##TITLE= Sample 006 By ssteindl date Dienstag, November 20 2018
##JCAMP-DX= 4.24
##DATA TYPE= INFRARED SPECTRUM
##ORIGIN= Exported PE Spectrum Data File
##OWNER= Sandra Steindl
##DATE= 18/11/20
##TIME= 13:23:40.00
##SPECTROMETER/DATA SYSTEM= PERKIN-ELMER Frontier FT-IR/NIR IR
##INSTRUMENT PARAMETERS=
  APODIZATION=stark
  DETECTOR=INGAAS
##RESOLUTION= 16.000000
##DELTAX= -2.000000
##XUNITS= 1/CM
##YUNITS= A
##XFACTOR= 1.00
##YFACTOR= 0.00000011920928955078
##FIRSTX= 10000.00
##LASTX= 4000.00
##NPOINTS= 3001
##FIRSTY= 0.193577
##MAXY= 0.579950
##MINY= 0.165943
##XYDATA= (X++(Y..Y))
 10000.000000   1623838   1617306   1610541   1603630   1597428  
  9990.000000   1592850   1590158   1589056   1589323   1590796  
  9980.000000   1593138   1595660   1597629   1598291   1597151  
  9970.000000   1594060   1589453   1584157   1579172   1575321  
  9960.000000   1573060   1572368   1572928   1574302   1576136  
  9950.000000   1578213   1580333   1582220   1583403   1583344  
  9940.000000   1581647   1578314   1573925   1569496   1566213  
  9930.000000   1564938   1565856   1568364   1571231   1573093  
  9920.000000   1572936   1570502   1566383   1561746   1557929  
  9910.000000   1555868   1555827   1557278   1559164   1560281  
  9900.000000   1559750   1557316   1553481   1549339   1546256  
  9890.000000   1545445   1547548   1552414   1559050   1565915  
  9880.000000   1571350   1574133   1573845   1571047   1567026  
  9870.000000   1563402   1561492   1561889   1564263   1567484  
  9860.000000   1570107   1570804   1568878   1564357   1557908  
  9850.000000   1550532   1543144   1536438   1530767   1526367  
  9840.000000   1523463   1522381   1523432   1526720   1531902  
  9830.000000   1538149   1544232   1548854   1551012   1550293  
  9820.000000   1547042   1542172   1536939   1532454   1529442  
  9810.000000   1528031   1527867   1528293   1528637   1528416  
  9800.000000   1527445   1525812   1523793   1521711   1519866  
  9790.000000   1518430   1517495   1517044   1517048   1517481  
  9780.000000   1518356   1519756   1521759   1524492   1527996  
  9770.000000   1532294   1537261   1542671   1548122   1553080  
  9760.000000   1556915   1558999   1558859   1556272   1551403  
  9750.000000   1544756   1537134   1529424   1522397   1516537  
  9740.000000   1511917   1508329   1505370   1502769   1500451  
  9730.000000   1498668   1497821   1498303   1500272   1503506  
  9720.000000   1507460   1511328   1514354   1515956   1515973  
  9710.000000   1514613   1512439   1510151   1508446   1507849  
  9700.000000   1508624   1510738   1513846   1517364   1520551  
  9690.000000   1522705   1523313   1522227   1519691   1516288  
  9680.000000   1512771   1509837   1507928   1507113   1507096  
  9670.000000   1507380   1507435   1506947   1505871   1504458  
  9660.000000   1503104   1502198   1501984   1502459   1503397  
  9650.000000   1504364   1504883   1504512   1503036   1500507  
  9640.000000   1497311   1494069   1491503   1490237   1490596  
  9630.000000   1492513   1495507   1498858   1501820   1503878  
  9620.000000   1504886   1505077   1504902   1504819   1505087  
  9610.000000   1505664   1506284   1506559   1506231   1505218  
  9600.000000   1503689   1501933   1500220   1498707   1497349  
  9590.000000   1496043   1494674   1493315   1492193   1491688  
  9580.000000   1492141   1493745   1496385   1499674   1502971  
  9570.000000   1505582   1506876   1506466   1504286   1500610  
  9560.000000   1496007   1491177   1486815   1483378   1481018  
  9550.000000   1479468   1478212   1476591   1474086   1470490  
  9540.000000   1465983   1461135   1456685   1453413   1451881  
  9530.000000   1452391   1454941   1459284   1464998   1471491  
  9520.000000   1478029   1483732   1487702   1489170   1487775  
  9510.000000   1483690   1477715   1471044   1465004   1460607  
  9500.000000   1458306   1457871   1458562   1459452   1459765  
  9490.000000   1459154   1457693   1455810   1453990   1452653  
  9480.000000   1452004   1452094   1452895   1454362   1456496  
  9470.000000   1459226   1462392   1465631   1468428   1470235  
  9460.000000   1470614   1469450   1466963   1463693   1460335  
  9450.000000   1457540   1455789   1455270   1455886   1457240  
  9440.000000   1458706   1459530   1458998   1456656   1452497  
  9430.000000   1447051   1441318   1436521   1433789   1433796  
  9420.000000   1436551   1441363   1447043   1452306   1456153  
  9410.000000   1458195   1458659   1458254   1457830   1458081  
  9400.000000   1459331   1461470   1464052   1466433   1467977  
  9390.000000   1468198   1466868   1464041   1460031   1455353  
  9380.000000   1450625   1446443   1443232   1441114   1439884  
  9370.000000   1439094   1438255   1437089   1435626   1434273  
  9360.000000   1433577   1434077   1436009   1439243   1443281  
  9350.000000   1447426   1451021   1453582   1454902   1454944  
  9340.000000   1453788   1451501   1448181   1443990   1439269  
  9330.000000   1434515   1430317   1427151   1425210   1424348  
  9320.000000   1424117   1423991   1423541   1422670   1421593  
  9310.000000   1420764   1420609   1421367   1422989   1425191  
  9300.000000   1427603   1429882   1431833   1433354   1434404  
  9290.000000   1434879   1434634   1433498   1431432   1428579  
  9280.000000   1425322   1422145   1419516   1417700   1416719  
  9270.000000   1416400   1416486   1416787   1417215   1417847  
  9260.000000   1418805   1420213   1422073   1424289   1426710  
  9250.000000   1429200   1431695   1434112   1436348   1438151  
  9240.000000   1439222   1439237   1438020   1435602   1432281  
  9230.000000   1428593   1425172   1422617   1421305   1421383  
  9220.000000   1422729   1425078   1428029   1431148   1433990  
  9210.000000   1436175   1437430   1437629   1436809   1435194  
  9200.000000   1433144   1431070   1429326   1428140   1427616  
  9190.000000   1427748   1428429   1429458   1430513   1431212  
  9180.000000   1431127   1429911   1427392   1423718   1419419  
  9170.000000   1415284   1412139   1410558   1410653   1412019  
  9160.000000   1413860   1415296   1415682   1414855   1413152  
  9150.000000   1411232   1409784   1409218   1409563   1410452  
  9140.000000   1411372   1411834   1411609   1410713   1409357  
  9130.000000   1407814   1406294   1404940   1403841   1403150  
  9120.000000   1403107   1403951   1405800   1408491   1411587  
  9110.000000   1414419   1416295   1416733   1415648   1413381  
  9100.000000   1410563   1407919   1406054   1405311   1405736  
  9090.000000   1407139   1409215   1411623   1414025   1416067  
  9080.000000   1417394   1417712   1416881   1414987   1412381  
  9070.000000   1409647   1407484   1406478   1406907   1408680  
  9060.000000   1411389   1414470   1417330   1419565   1421010  
  9050.000000   1421729   1421906   1421734   1421373   1420896  
  9040.000000   1420324   1419626   1418785   1417801   1416694  
  9030.000000   1415527   1414379   1413409   1412774   1412651  
  9020.000000   1413093   1414045   1415295   1416515   1417352  
  9010.000000   1417508   1416877   1415509   1413596   1411379  
  9000.000000   1409076   1406838   1404728   1402824   1401254  
  8990.000000   1400239   1400007   1400733   1402422   1404823  
  8980.000000   1407435   1409598   1410725   1410388   1408512  
  8970.000000   1405344   1401478   1397632   1394488   1392544  
  8960.000000   1392028   1392918   1394947   1397779   1401080  
  8950.000000   1404610   1408175   1411615   1414747   1417315  
  8940.000000   1419016   1419551   1418793   1416807   1413927  
  8930.000000   1410669   1407638   1405367   1404147   1404020  
  8920.000000   1404761   1406033   1407450   1408729   1409689  
  8910.000000   1410261   1410404   1410075   1409251   1407955  
  8900.000000   1406340   1404656   1403259   1402457   1402443  
  8890.000000   1403159   1404333   1405550   1406421   1406729  
  8880.000000   1406501   1405985   1405538   1405493   1406035  
  8870.000000   1407176   1408781   1410663   1412660   1414671  
  8860.000000   1416642   1418491   1420083   1421216   1421700  
  8850.000000   1421406   1420369   1418774   1416955   1415268  
  8840.000000   1414002   1413322   1413251   1413736   1414670  
  8830.000000   1415990   1417653   1419648   1421926   1424384  
  8820.000000   1426860   1429151   1431082   1432503   1433363  
  8810.000000   1433655   1433468   1432904   1432118   1431264  
  8800.000000   1430502   1429982   1429798   1430013   1430624  
  8790.000000   1431626   1433003   1434774   1436947   1439501  
  8780.000000   1442309   1445132   1447640   1449491   1450477  
  8770.000000   1450576   1450032   1449235   1448636   1448536  
  8760.000000   1449002   1449829   1450657   1451145   1451132  
  8750.000000   1450739   1450317   1450350   1451241   1453189  
  8740.000000   1456090   1459607   1463288   1466713   1469610  
  8730.000000   1471860   1473478   1474531   1475101   1475249  
  8720.000000   1475065   1474665   1474243   1473997   1474090  
  8710.000000   1474567   1475328   1476178   1476880   1477303  
  8700.000000   1477449   1477513   1477781   1478558   1480027  
  8690.000000   1482185   1484834   1487631   1490200   1492222  
  8680.000000   1493512   1494035   1493900   1493319   1492577  
  8670.000000   1491956   1491695   1491923   1492655   1493761  
  8660.000000   1495018   1496149   1496926   1497242   1497166  
  8650.000000   1496933   1496873   1497317   1498481   1500408  
  8640.000000   1502968   1505908   1508950   1511850   1514473  
  8630.000000   1516767   1518761   1520475   1521906   1522994  
  8620.000000   1523692   1523978   1523926   1523697   1523538  
  8610.000000   1523717   1524459   1525891   1527998   1530644  
  8600.000000   1533570   1536493   1539145   1541363   1543109  
  8590.000000   1544487   1545719   1547065   1548751   1550865  
  8580.000000   1553342   1555924   1558256   1559975   1560839  
  8570.000000   1560808   1560063   1558990   1558055   1557720  
  8560.000000   1558268   1559804   1562196   1565167   1568344  
  8550.000000   1571374   1573989   1576024   1577411   1578145  
  8540.000000   1578292   1577929   1577178   1576163   1575064  
  8530.000000   1574060   1573336   1573055   1573334   1574247  
  8520.000000   1575772   1577859   1580390   1583243   1586251  
  8510.000000   1589251   1592092   1594633   1596776   1598429  
  8500.000000   1599574   1600194   1600326   1600009   1599331  
  8490.000000   1598410   1597400   1596501   1595914   1595853  
  8480.000000   1596459   1597791   1599770   1602201   1604789  
  8470.000000   1607200   1609130   1610369   1610862   1610700  
  8460.000000   1610112   1609399   1608884   1608823   1609355  
  8450.000000   1610473   1612049   1613858   1615637   1617148  
  8440.000000   1618234   1618850   1619051   1618979   1618830  
  8430.000000   1618798   1619039   1619638   1620616   1621929  
  8420.000000   1623492   1625205   1626968   1628702   1630333  
  8410.000000   1631812   1633092   1634150   1634975   1635581  
  8400.000000   1636008   1636306   1636531   1636722   1636890  
  8390.000000   1637022   1637075   1637022   1636844   1636584  
  8380.000000   1636312   1636148   1636180   1636485   1637059  
  8370.000000   1637847   1638722   1639540   1640156   1640466  
  8360.000000   1640415   1639998   1639252   1638220   1636959  
  8350.000000   1635511   1633926   1632256   1630559   1628918  
  8340.000000   1627418   1626164   1625237   1624710   1624614  
  8330.000000   1624946   1625645   1626594   1627630   1628562  
  8320.000000   1629217   1629465   1629264   1628665   1627815  
  8310.000000   1626908   1626133   1625613   1625383   1625377  
  8300.000000   1625460   1625456   1625215   1624641   1623724  
  8290.000000   1622529   1621177   1619812   1618569   1617569  
  8280.000000   1616881   1616554   1616588   1616966   1617636  
  8270.000000   1618536   1619574   1620643   1621611   1622325  
  8260.000000   1622634   1622399   1621546   1620072   1618081  
  8250.000000   1615766   1613383   1611202   1609433   1608211  
  8240.000000   1607532   1607321   1607412   1607650   1607884  
  8230.000000   1608028   1608020   1607824   1607389   1606648  
  8220.000000   1605537   1604011   1602088   1599852   1597458  
  8210.000000   1595094   1592931   1591094   1589609   1588435  
  8200.000000   1587458   1586554   1585607   1584546   1583343  
  8190.000000   1582012   1580584   1579092   1577562   1576016  
  8180.000000   1574478   1572976   1571551   1570244   1569085  
  8170.000000   1568080   1567188   1566339   1565428   1564358  
  8160.000000   1563070   1561559   1559896   1558188   1556566  
  8150.000000   1555113   1553853   1552715   1551570   1550274  
  8140.000000   1548746   1547015   1545231   1543640   1542495  
  8130.000000   1541988   1542161   1542896   1543927   1544920  
  8120.000000   1545565   1545646   1545111   1544045   1542645  
  8110.000000   1541121   1539647   1538294   1537043   1535808  
  8100.000000   1534493   1533056   1531532   1530052   1528791  
  8090.000000   1527924   1527536   1527594   1527924   1528269  
  8080.000000   1528362   1528011   1527166   1525930   1524521  
  8070.000000   1523192   1522137   1521426   1520994   1520664  
  8060.000000   1520239   1519562   1518577   1517337   1515959  
  8050.000000   1514578   1513288   1512132   1511102   1510185  
  8040.000000   1509387   1508740   1508287   1508037   1507942  
  8030.000000   1507877   1507681   1507194   1506332   1505102  
  8020.000000   1503618   1502052   1500590   1499379   1498503  
  8010.000000   1497986   1497809   1497935   1498314   1498874  
  8000.000000   1499519   1500118   1500536   1500651   1500409  
  7990.000000   1499835   1499035   1498164   1497381   1496801  
  7980.000000   1496476   1496398   1496518   1496780   1497125  
  7970.000000   1497495   1497808   1497960   1497819   1497270  
  7960.000000   1496250   1494795   1493047   1491223   1489565  
  7950.000000   1488261   1487408   1486983   1486872   1486918  
  7940.000000   1486975   1486943   1486782   1486499   1486133  
  7930.000000   1485729   1485342   1485028   1484864   1484916  
  7920.000000   1485246   1485859   1486707   1487674   1488611  
  7910.000000   1489366   1489840   1490001   1489901   1489644  
  7900.000000   1489352   1489128   1489029   1489065   1489210  
  7890.000000   1489421   1489659   1489904   1490148   1490393  
  7880.000000   1490637   1490869   1491065   1491197   1491237  
  7870.000000   1491169   1490999   1490754   1490486   1490257  
  7860.000000   1490122   1490116   1490232   1490429   1490639  
  7850.000000   1490796   1490855   1490821   1490741   1490689  
  7840.000000   1490733   1490911   1491208   1491569   1491915  
  7830.000000   1492181   1492334   1492384   1492366   1492320  
  7820.000000   1492264   1492186   1492045   1491807   1491452  
  7810.000000   1491009   1490533   1490107   1489794   1489635  
  7800.000000   1489621   1489715   1489852   1489971   1490017  
  7790.000000   1489949   1489738   1489356   1488786   1488029  
  7780.000000   1487114   1486109   1485111   1484231   1483556  
  7770.000000   1483138   1482961   1482965   1483052   1483127  
  7760.000000   1483119   1482992   1482748   1482402   1481977  
  7750.000000   1481478   1480909   1480275   1479603   1478955  
  7740.000000   1478414   1478075   1478005   1478226   1478691  
  7730.000000   1479288   1479864   1480260   1480350   1480065  
  7720.000000   1479415   1478468   1477346   1476180   1475088  
  7710.000000   1474154   1473414   1472872   1472504   1472281  
  7700.000000   1472176   1472176   1472277   1472473   1472746  
  7690.000000   1473051   1473318   1473455   1473382   1473046  
  7680.000000   1472456   1471692   1470892   1470230   1469859  
  7670.000000   1469876   1470283   1470987   1471815   1472563  
  7660.000000   1473047   1473145   1472831   1472163   1471266  
  7650.000000   1470286   1469359   1468584   1468013   1467668  
  7640.000000   1467544   1467630   1467903   1468332   1468857  
  7630.000000   1469398   1469854   1470120   1470123   1469828  
  7620.000000   1469269   1468526   1467725   1467001   1466476  
  7610.000000   1466235   1466312   1466696   1467325   1468115  
  7600.000000   1468965   1469776   1470472   1470999   1471347  
  7590.000000   1471535   1471617   1471648   1471687   1471760  
  7580.000000   1471875   1472012   1472151   1472286   1472435  
  7570.000000   1472651   1472990   1473503   1474194   1475021  
  7560.000000   1475894   1476704   1477359   1477802   1478044  
  7550.000000   1478139   1478176   1478233   1478364   1478581  
  7540.000000   1478872   1479219   1479624   1480110   1480719  
  7530.000000   1481485   1482408   1483439   1484491   1485455  
  7520.000000   1486249   1486831   1487231   1487524   1487819  
  7510.000000   1488210   1488763   1489495   1490402   1491454  
  7500.000000   1492625   1493886   1495207   1496543   1497842  
  7490.000000   1499044   1500118   1501066   1501956   1502887  
  7480.000000   1503976   1505297   1506863   1508597   1510368  
  7470.000000   1512018   1513430   1514555   1515437   1516192  
  7460.000000   1516966   1517895   1519073   1520532   1522253  
  7450.000000   1524175   1526228   1528337   1530430   1532439  
  7440.000000   1534306   1535991   1537490   1538831   1540084  
  7430.000000   1541333   1542673   1544161   1545820   1547622  
  7420.000000   1549509   1551416   1553289   1555112   1556901  
  7410.000000   1558701   1560569   1562553   1564675   1566919  
  7400.000000   1569230   1571519   1573684   1575629   1577292  
  7390.000000   1578672   1579836   1580911   1582048   1583397  
  7380.000000   1585051   1587031   1589265   1591623   1593948  
  7370.000000   1596105   1598007   1599631   1601013   1602222  
  7360.000000   1603340   1604435   1605560   1606744   1608002  
  7350.000000   1609336   1610743   1612221   1613759   1615356  
  7340.000000   1617006   1618714   1620483   1622308   1624167  
  7330.000000   1626020   1627816   1629499   1631037   1632426  
  7320.000000   1633701   1634922   1636157   1637464   1638871  
  7310.000000   1640378   1641956   1643570   1645186   1646782  
  7300.000000   1648344   1649865   1651330   1652722   1654024  
  7290.000000   1655228   1656345   1657403   1658444   1659508  
  7280.000000   1660627   1661809   1663045   1664312   1665584  
  7270.000000   1666844   1668088   1669325   1670579   1671878  
  7260.000000   1673249   1674708   1676261   1677883   1679538  
  7250.000000   1681161   1682689   1684054   1685234   1686236  
  7240.000000   1687133   1688032   1689070   1690366   1692012  
  7230.000000   1694021   1696354   1698904   1701551   1704170  
  7220.000000   1706690   1709080   1711385   1713680   1716074  
  7210.000000   1718647   1721450   1724464   1727635   1730860  
  7200.000000   1734055   1737152   1740142   1743052   1745947  
  7190.000000   1748885   1751916   1755045   1758256   1761505  
  7180.000000   1764755   1767970   1771138   1774245   1777295  
  7170.000000   1780276   1783197   1786065   1788921   1791810  
  7160.000000   1794798   1797927   1801230   1804701   1808327  
  7150.000000   1812083   1815966   1819976   1824135   1828441  
  7140.000000   1832882   1837397   1841929   1846404   1850803  
  7130.000000   1855127   1859441   1863803   1868285   1872908  
  7120.000000   1877679   1882568   1887561   1892652   1897867  
  7110.000000   1903229   1908748   1914385   1920071   1925707  
  7100.000000   1931222   1936584   1941834   1947055   1952349  
  7090.000000   1957782   1963369   1969059   1974775   1980440  
  7080.000000   1986013   1991503   1996952   2002410   2007908  
  7070.000000   2013437   2018957   2024413   2029762   2034983  
  7060.000000   2040088   2045104   2050065   2055002   2059946  
  7050.000000   2064932   2070002   2075201   2080563   2086096  
  7040.000000   2091770   2097519   2103260   2108912   2114416  
  7030.000000   2119747   2124910   2129933   2134849   2139694  
  7020.000000   2144499   2149300   2154122   2158984   2163872  
  7010.000000   2168750   2173548   2178200   2182655   2186913  
  7000.000000   2191016   2195047   2199078   2203159   2207272  
  6990.000000   2211366   2215359   2219202   2222880   2226445  
  6980.000000   2229963   2233507   2237095   2240707   2244267  
  6970.000000   2247708   2250967   2254037   2256933   2259698  
  6960.000000   2262355   2264917   2267367   2269698   2271906  
  6950.000000   2274024   2276084   2278128   2280158   2282162  
  6940.000000   2284095   2285934   2287669   2289345   2291017  
  6930.000000   2292753   2294584   2296500   2298441   2300332  
  6920.000000   2302097   2303699   2305137   2306448   2307681  
  6910.000000   2308892   2310115   2311378   2312689   2314048  
  6900.000000   2315436   2316820   2318148   2319365   2320427  
  6890.000000   2321323   2322081   2322769   2323465   2324236  
  6880.000000   2325114   2326091   2327129   2328189   2329246  
  6870.000000   2330303   2331375   2332486   2333632   2334792  
  6860.000000   2335928   2337012   2338039   2339038   2340054  
  6850.000000   2341123   2342249   2343392   2344477   2345426  
  6840.000000   2346181   2346745   2347163   2347532   2347946  
  6830.000000   2348488   2349194   2350055   2351022   2352019  
  6820.000000   2352953   2353740   2354305   2354618   2354687  
  6810.000000   2354583   2354411   2354303   2354363   2354653  
  6800.000000   2355151   2355777   2356403   2356911   2357219  
  6790.000000   2357303   2357188   2356927   2356573   2356160  
  6780.000000   2355704   2355222   2354745   2354325   2354030  
  6770.000000   2353914   2353997   2354255   2354624   2355025  
  6760.000000   2355396   2355707   2355969   2356213   2356478  
  6750.000000   2356780   2357120   2357481   2357853   2358229  
  6740.000000   2358621   2359039   2359490   2359963   2360439  
  6730.000000   2360895   2361322   2361724   2362112   2362493  
  6720.000000   2362861   2363188   2363444   2363609   2363689  
  6710.000000   2363724   2363764   2363861   2364034   2364276  
  6700.000000   2364548   2364812   2365040   2365232   2365399  
  6690.000000   2365556   2365688   2365766   2365738   2365573  
  6680.000000   2365268   2364866   2364433   2364036   2363703  
  6670.000000   2363413   2363096   2362677   2362093   2361346  
  6660.000000   2360479   2359580   2358723   2357957   2357276  
  6650.000000   2356642   2355997   2355304   2354544   2353731  
  6640.000000   2352878   2352002   2351096   2350155   2349170  
  6630.000000   2348157   2347142   2346162   2345231   2344346  
  6620.000000   2343464   2342535   2341513   2340380   2339154  
  6610.000000   2337875   2336586   2335312   2334051   2332779  
  6600.000000   2331469   2330114   2328733   2327366   2326055  
  6590.000000   2324825   2323668   2322550   2321420   2320236  
  6580.000000   2318976   2317649   2316282   2314915   2313577  
  6570.000000   2312290   2311054   2309862   2308694   2307521  
  6560.000000   2306307   2305013   2303605   2302069   2300421  
  6550.000000   2298711   2297015   2295414   2293968   2292699  
  6540.000000   2291579   2290549   2289534   2288472   2287336  
  6530.000000   2286129   2284887   2283649   2282452   2281315  
  6520.000000   2280243   2279224   2278244   2277286   2276332  
  6510.000000   2275364   2274364   2273327   2272254   2271165  
  6500.000000   2270087   2269051   2268072   2267143   2266229  
  6490.000000   2265279   2264237   2263065   2261750   2260313  
  6480.000000   2258798   2257265   2255770   2254354   2253039  
  6470.000000   2251824   2250686   2249583   2248466   2247286  
  6460.000000   2246005   2244612   2243125   2241596   2240096  
  6450.000000   2238698   2237461   2236406   2235518   2234747  
  6440.000000   2234028   2233294   2232503   2231632   2230694  
  6430.000000   2229715   2228738   2227797   2226928   2226141  
  6420.000000   2225446   2224831   2224285   2223791   2223344  
  6410.000000   2222938   2222583   2222284   2222051   2221876  
  6400.000000   2221749   2221646   2221548   2221440   2221322  
  6390.000000   2221206   2221108   2221040   2220999   2220969  
  6380.000000   2220920   2220823   2220658   2220421   2220122  
  6370.000000   2219782   2219423   2219063   2218706   2218358  
  6360.000000   2218015   2217681   2217354   2217032   2216705  
  6350.000000   2216361   2215981   2215549   2215058   2214511  
  6340.000000   2213920   2213301   2212669   2212033   2211396  
  6330.000000   2210759   2210121   2209484   2208848   2208217  
  6320.000000   2207586   2206953   2206309   2205654   2204985  
  6310.000000   2204306   2203616   2202911   2202181   2201416  
  6300.000000   2200606   2199756   2198877   2197988   2197101  
  6290.000000   2196219   2195322   2194385   2193375   2192281  
  6280.000000   2191102   2189869   2188616   2187382   2186181  
  6270.000000   2185012   2183853   2182677   2181459   2180191  
  6260.000000   2178879   2177540   2176191   2174845   2173506  
  6250.000000   2172175   2170851   2169533   2168222   2166920  
  6240.000000   2165623   2164331   2163042   2161760   2160494  
  6230.000000   2159257   2158052   2156875   2155704   2154509  
  6220.000000   2153261   2151945   2150565   2149146   2147724  
  6210.000000   2146329   2144981   2143677   2142401   2141133  
  6200.000000   2139864   2138595   2137346   2136140   2134998  
  6190.000000   2133928   2132928   2131985   2131087   2130223  
  6180.000000   2129389   2128582   2127803   2127051   2126326  
  6170.000000   2125632   2124973   2124352   2123764   2123188  
  6160.000000   2122590   2121927   2121161   2120268   2119254  
  6150.000000   2118150   2117001   2115856   2114746   2113683  
  6140.000000   2112661   2111664   2110683   2109716   2108777  
  6130.000000   2107880   2107036   2106241   2105481   2104735  
  6120.000000   2103989   2103239   2102495   2101775   2101102  
  6110.000000   2100486   2099935   2099442   2099001   2098599  
  6100.000000   2098227   2097875   2097536   2097196   2096850  
  6090.000000   2096493   2096132   2095776   2095444   2095147  
  6080.000000   2094893   2094676   2094492   2094323   2094174  
  6070.000000   2094044   2093955   2093922   2093973   2094115  
  6060.000000   2094360   2094700   2095135   2095647   2096236  
  6050.000000   2096886   2097602   2098382   2099246   2100206  
  6040.000000   2101296   2102527   2103916   2105446   2107097  
  6030.000000   2108824   2110600   2112393   2114210   2116062  
  6020.000000   2117985   2119994   2122105   2124294   2126540  
  6010.000000   2128797   2131046   2133269   2135487   2137718  
  6000.000000   2140005   2142368   2144838   2147416   2150115  
  5990.000000   2152924   2155851   2158885   2162032   2165279  
  5980.000000   2168635   2172090   2175661   2179351   2183185  
  5970.000000   2187164   2191297   2195561   2199941   2204392  
  5960.000000   2208887   2213386   2217873   2222325   2226744  
  5950.000000   2231128   2235493   2239855   2244248   2248704  
  5940.000000   2253254   2257923   2262717   2267629   2272632  
  5930.000000   2277693   2282767   2287818   2292799   2297675  
  5920.000000   2302402   2306945   2311270   2315361   2319210  
  5910.000000   2322835   2326254   2329502   2332603   2335590  
  5900.000000   2338483   2341319   2344120   2346929   2349759  
  5890.000000   2352631   2355527   2358429   2361294   2364094  
  5880.000000   2366800   2369404   2371899   2374287   2376560  
  5870.000000   2378709   2380729   2382630   2384442   2386219  
  5860.000000   2388022   2389909   2391910   2394028   2396242  
  5850.000000   2398517   2400824   2403155   2405517   2407931  
  5840.000000   2410414   2412969   2415586   2418236   2420895  
  5830.000000   2423538   2426160   2428757   2431338   2433905  
  5820.000000   2436465   2439020   2441582   2444164   2446780  
  5810.000000   2449437   2452126   2454827   2457502   2460136  
  5800.000000   2462706   2465245   2467770   2470340   2472955  
  5790.000000   2475620   2478259   2480793   2483081   2485008  
  5780.000000   2486434   2487271   2487430   2486894   2485661  
  5770.000000   2483809   2481443   2478730   2475829   2472918  
  5760.000000   2470110   2467497   2465092   2462901   2460886  
  5750.000000   2459035   2457322   2455743   2454279   2452908  
  5740.000000   2451590   2450283   2448953   2447574   2446148  
  5730.000000   2444677   2443185   2441675   2440160   2438638  
  5720.000000   2437117   2435611   2434146   2432749   2431441  
  5710.000000   2430232   2429115   2428071   2427080   2426122  
  5700.000000   2425185   2424263   2423352   2422449   2421543  
  5690.000000   2420636   2419722   2418815   2417918   2417045  
  5680.000000   2416184   2415323   2414420   2413435   2412311  
  5670.000000   2411005   2409467   2407663   2405563   2403160  
  5660.000000   2400466   2397533   2394439   2391293   2388200  
  5650.000000   2385258   2382517   2379991   2377651   2375448  
  5640.000000   2373327   2371251   2369197   2367162   2365154  
  5630.000000   2363175   2361239   2359348   2357521   2355768  
  5620.000000   2354114   2352565   2351130   2349791   2348530  
  5610.000000   2347322   2346152   2345010   2343900   2342821  
  5600.000000   2341777   2340756   2339753   2338759   2337782  
  5590.000000   2336833   2335937   2335104   2334340   2333628  
  5580.000000   2332942   2332255   2331550   2330821   2330077  
  5570.000000   2329328   2328578   2327821   2327041   2326222  
  5560.000000   2325356   2324445   2323502   2322541   2321573  
  5550.000000   2320597   2319606   2318594   2317562   2316528  
  5540.000000   2315512   2314538   2313614   2312733   2311873  
  5530.000000   2311010   2310124   2309213   2308279   2307337  
  5520.000000   2306393   2305445   2304480   2303488   2302460  
  5510.000000   2301400   2300316   2299217   2298103   2296970  
  5500.000000   2295802   2294596   2293355   2292105   2290872  
  5490.000000   2289681   2288530   2287395   2286227   2284980  
  5480.000000   2283618   2282137   2280557   2278921   2277269  
  5470.000000   2275634   2274020   2272423   2270824   2269211  
  5460.000000   2267575   2265915   2264229   2262515   2260767  
  5450.000000   2258985   2257174   2255353   2253544   2251770  
  5440.000000   2250045   2248370   2246739   2245147   2243598  
  5430.000000   2242099   2240667   2239300   2237993   2236717  
  5420.000000   2235455   2234190   2232944   2231747   2230659  
  5410.000000   2229711   2228924   2228266   2227704   2227183  
  5400.000000   2226691   2226226   2225834   2225551   2225426  
  5390.000000   2225462   2225662   2225987   2226432   2226977  
  5380.000000   2227651   2228459   2229432   2230551   2231815  
  5370.000000   2233177   2234639   2236174   2237825   2239593  
  5360.000000   2241537   2243654   2245991   2248532   2251333  
  5350.000000   2254393   2257791   2261533   2265690   2270234  
  5340.000000   2275206   2280553   2286318   2292461   2299046  
  5330.000000   2306035   2313481   2321318   2329583   2338204  
  5320.000000   2347247   2356684   2366635   2377099   2388204  
  5310.000000   2399924   2412348   2425411   2439180   2453597  
  5300.000000   2468750   2484616   2501308   2518809   2537213  
  5290.000000   2556460   2576569   2597400   2618891   2640863  
  5280.000000   2663266   2686001   2709128   2732678   2756790  
  5270.000000   2781507   2806867   2832763   2859044   2885492  
  5260.000000   2911932   2938262   2964467   2990606   3016730  
  5250.000000   3042863   3068905   3094722   3120082   3144850  
  5240.000000   3168883   3192230   3214921   3237131   3258914  
  5230.000000   3280382   3301459   3322113   3342150   3361502  
  5220.000000   3380015   3397730   3414622   3430848   3446447  
  5210.000000   3461570   3476184   3490324   3503839   3516699  
  5200.000000   3528755   3540056   3550569   3560447   3569717  
  5190.000000   3578519   3586816   3594657   3601932   3608656  
  5180.000000   3614735   3620225   3625082   3629392   3633118  
  5170.000000   3636331   3638993   3641181   3642883   3644195  
  5160.000000   3645109   3645695   3645899   3645741   3645144  
  5150.000000   3644130   3642665   3640824   3638617   3636124  
  5140.000000   3633340   3630310   3627005   3623457   3619661  
  5130.000000   3615674   3611515   3607245   3602862   3598389  
  5120.000000   3593800   3589103   3584287   3579381   3574406  
  5110.000000   3569400   3564382   3559371   3554365   3549371  
  5100.000000   3544390   3539440   3534534   3529693   3524925  
  5090.000000   3520238   3515628   3511094   3506631   3502239  
  5080.000000   3497908   3493625   3489360   3485080   3480746  
  5070.000000   3476332   3471817   3467205   3462498   3457714  
  5060.000000   3452853   3447924   3442918   3437837   3432671  
  5050.000000   3427430   3422107   3416713   3411236   3405684  
  5040.000000   3400048   3394339   3388562   3382739   3376876  
  5030.000000   3370989   3365070   3359119   3353127   3347094  
  5020.000000   3341031   3334954   3328888   3322852   3316860  
  5010.000000   3310912   3305012   3299153   3293348   3287606  
  5000.000000   3281961   3276433   3271063   3265860   3260854  
  4990.000000   3256038   3251432   3247024   3242833   3238843  
  4980.000000   3235074   3231504   3228157   3225012   3222107  
  4970.000000   3219430   3217030   3214895   3213065   3211511  
  4960.000000   3210257   3209261   3208548   3208086   3207918  
  4950.000000   3208028   3208472   3209234   3210366   3211839  
  4940.000000   3213696   3215902   3218497   3221446   3224794  
  4930.000000   3228506   3232624   3237113   3242014   3247288  
  4920.000000   3252968   3259010   3265431   3272176   3279257  
  4910.000000   3286628   3294307   3302272   3310549   3319124  
  4900.000000   3328002   3337146   3346518   3356056   3365694  
  4890.000000   3375367   3385004   3394556   3403952   3413153  
  4880.000000   3422084   3430716   3438971   3446832   3454225  
  4870.000000   3461141   3467505   3473315   3478497   3483067  
  4860.000000   3486971   3490252   3492884   3494930   3496380  
  4850.000000   3497309   3497720   3497702   3497283   3496567  
  4840.000000   3495600   3494483   3493258   3492000   3490726  
  4830.000000   3489483   3488276   3487130   3486049   3485046  
  4820.000000   3484122   3483276   3482510   3481822   3481223  
  4810.000000   3480720   3480334   3480070   3479946   3479948  
  4800.000000   3480079   3480317   3480663   3481105   3481657  
  4790.000000   3482321   3483114   3484029   3485065   3486198  
  4780.000000   3487409   3488668   3489959   3491261   3492567  
  4770.000000   3493868   3495163   3496445   3497715   3498969  
  4760.000000   3500214   3501454   3502697   3503951   3505217  
  4750.000000   3506496   3507777   3509049   3510296   3511502  
  4740.000000   3512654   3513749   3514789   3515785   3516753  
  4730.000000   3517709   3518665   3519621   3520574   3521509  
  4720.000000   3522421   3523305   3524177   3525055   3525975  
  4710.000000   3526959   3528042   3529230   3530546   3531992  
  4700.000000   3533597   3535375   3537367   3539593   3542079  
  4690.000000   3544817   3547798   3550983   3554348   3557851  
  4680.000000   3561483   3565213   3569037   3572916   3576827  
  4670.000000   3580709   3584532   3588248   3591865   3595393  
  4660.000000   3598897   3602437   3606098   3609938   3614012  
  4650.000000   3618337   3622918   3627735   3632760   3637958  
  4640.000000   3643287   3648714   3654200   3659719   3665238  
  4630.000000   3670737   3676181   3681547   3686785   3691860  
  4620.000000   3696705   3701276   3705511   3709384   3712858  
  4610.000000   3715951   3718664   3721050   3723131   3724972  
  4600.000000   3726585   3728026   3729289   3730415   3731389  
  4590.000000   3732239   3732937   3733493   3733862   3734035  
  4580.000000   3733965   3733652   3733073   3732263   3731239  
  4570.000000   3730058   3728750   3727363   3725906   3724396  
  4560.000000   3722820   3721185   3719477   3717708   3715878  
  4550.000000   3714005   3712092   3710155   3708197   3706229  
  4540.000000   3704258   3702295   3700348   3698421   3696518  
  4530.000000   3694631   3692761   3690896   3689047   3687212  
  4520.000000   3685421   3683678   3682022   3680451   3679008  
  4510.000000   3677685   3676535   3675559   3674836   3674384  
  4500.000000   3674301   3674606   3675398   3676680   3678539  
  4490.000000   3680963   3684033   3687730   3692130   3697202  
  4480.000000   3703007   3709489   3716691   3724538   3733058  
  4470.000000   3742175   3751910   3762182   3773001   3784276  
  4460.000000   3796000   3808078   3820495   3833164   3846076  
  4450.000000   3859165   3872427   3885819   3899343   3912972  
  4440.000000   3926703   3940521   3954409   3968347   3982295  
  4430.000000   3996227   4010077   4023814   4037361   4050692  
  4420.000000   4063729   4076457   4088801   4100751   4112225  
  4410.000000   4123204   4133596   4143380   4152482   4160913  
  4400.000000   4168657   4175793   4182376   4188538   4194361  
  4390.000000   4199982   4205469   4210925   4216389   4221932  
  4380.000000   4227566   4233337   4239238   4245290   4251472  
  4370.000000   4257788   4264206   4270715   4277269   4283839  
  4360.000000   4290365   4296816   4303125   4309284   4315228  
  4350.000000   4320979   4326465   4331729   4336703   4341462  
  4340.000000   4345970   4350316   4354429   4358266   4361548  
  4330.000000   4363938   4364902   4363943   4360605   4354715  
  4320.000000   4346382   4336096   4324578   4312707   4301282  
  4310.000000   4290950   4282052   4274696   4268757   4264022  
  4300.000000   4260250   4257245   4254887   4253084   4251804  
  4290.000000   4250969   4250563   4250511   4250834   4251511  
  4280.000000   4252604   4254122   4256088   4258469   4261198  
  4270.000000   4264190   4267321   4270465   4273437   4276024  
  4260.000000   4277938   4278874   4278526   4276681   4273254  
  4250.000000   4268363   4262275   4255417   4248232   4241174  
  4240.000000   4234551   4228581   4223297   4218664   4214539  
  4230.000000   4210789   4207261   4203845   4200456   4197039  
  4220.000000   4193590   4190110   4186667   4183310   4180148  
  4210.000000   4177240   4174678   4172473   4170654   4169172  
  4200.000000   4167998   4167056   4166307   4165682   4165169  
  4190.000000   4164726   4164371   4164088   4163917   4163849  
  4180.000000   4163934   4164160   4164569   4165148   4165939  
  4170.000000   4166938   4168204   4169744   4171628   4173863  
  4160.000000   4176507   4179540   4182996   4186835   4191078  
  4150.000000   4195678   4200665   4205995   4211709   4217770  
  4140.000000   4224223   4231033   4238248   4245824   4253804  
  4130.000000   4262135   4270846   4279883   4289281   4299008  
  4120.000000   4309124   4319636   4330630   4342132   4354219  
  4110.000000   4366893   4380180   4394020   4408365   4423094  
  4100.000000   4438108   4453270   4468488   4483672   4498790  
  4090.000000   4513827   4528802   4543748   4558690   4573665  
  4080.000000   4588677   4603753   4618861   4634007   4649110  
  4070.000000   4664128   4678920   4693411   4707441   4720961  
  4060.000000   4733857   4746141   4757747   4768720   4779005  
  4050.000000   4788661   4797643   4806038   4813823   4821101  
  4040.000000   4827832   4834084   4839773   4844931   4849466  
  4030.000000   4853430   4856766   4859546   4861731   4863379  
  4020.000000   4864433   4864960   4864976   4864589   4863810  
  4010.000000   4862773   4861537   4860090   4858219   4855912  
  4000.000000   4853369  
##END= 
