##TITLE= Sample 011 By ssteindl date Dienstag, November 20 2018
##JCAMP-DX= 4.24
##DATA TYPE= INFRARED SPECTRUM
##ORIGIN= Exported PE Spectrum Data File
##OWNER= Sandra Steindl
##DATE= 18/11/20
##TIME= 10:03:42.00
##SPECTROMETER/DATA SYSTEM= PERKIN-ELMER Frontier FT-IR/NIR IR
##INSTRUMENT PARAMETERS=
  APODIZATION=stark
  DETECTOR=INGAAS
##RESOLUTION= 16.000000
##DELTAX= -2.000000
##XUNITS= 1/CM
##YUNITS= A
##XFACTOR= 1.00
##YFACTOR= 0.00000011920928955078
##FIRSTX= 10000.00
##LASTX= 4000.00
##NPOINTS= 3001
##FIRSTY= 0.190763
##MAXY= 0.635691
##MINY= 0.163838
##XYDATA= (X++(Y..Y))
 10000.000000   1600239   1593781   1587874   1583515   1581497  
  9990.000000   1582208   1585671   1591369   1598137   1604353  
  9980.000000   1608560   1609826   1608097   1604088   1599048  
  9970.000000   1594209   1590336   1587531   1585364   1583205  
  9960.000000   1580686   1577868   1575271   1573492   1572809  
  9950.000000   1572881   1572711   1571065   1566987   1560393  
  9940.000000   1552284   1544551   1539399   1538566   1542690  
  9930.000000   1551027   1561628   1571921   1579501   1582765  
  9920.000000   1581353   1576045   1568483   1560542   1553890  
  9910.000000   1549561   1547876   1548469   1550517   1553050  
  9900.000000   1555163   1556338   1556413   1555712   1554793  
  9890.000000   1554341   1554880   1556554   1559081   1561702  
  9880.000000   1563487   1563519   1561269   1556747   1550580  
  9870.000000   1543888   1537981   1534061   1532822   1534346  
  9860.000000   1537982   1542613   1546894   1549704   1550437  
  9850.000000   1549157   1546528   1543489   1540908   1539191  
  9840.000000   1538205   1537274   1535603   1532555   1528089  
  9830.000000   1522763   1517628   1513819   1512122   1512719  
  9820.000000   1515120   1518450   1521797   1524598   1526771  
  9810.000000   1528683   1530856   1533721   1537349   1541459  
  9800.000000   1545507   1548907   1551227   1552242   1551951  
  9790.000000   1550412   1547722   1543931   1539144   1533558  
  9780.000000   1527512   1521445   1515786   1510872   1506871  
  9770.000000   1503874   1501922   1501161   1501755   1503864  
  9760.000000   1507431   1512106   1517241   1522023   1525762  
  9750.000000   1528050   1528933   1528753   1528042   1527206  
  9740.000000   1526466   1525785   1525038   1524142   1523149  
  9730.000000   1522246   1521590   1521231   1521000   1520656  
  9720.000000   1519985   1519015   1517992   1517345   1517411  
  9710.000000   1518272   1519629   1520911   1521535   1521177  
  9700.000000   1519960   1518363   1516962   1516095   1515628  
  9690.000000   1515018   1513581   1510894   1507093   1502900  
  9680.000000   1499362   1497410   1497419   1499034   1501272  
  9670.000000   1502940   1503112   1501484   1498462   1494934  
  9660.000000   1491879   1489965   1489347   1489689   1490415  
  9650.000000   1490966   1491049   1490636   1489891   1488982  
  9640.000000   1487965   1486785   1485356   1483707   1482052  
  9630.000000   1480747   1480156   1480453   1481522   1482966  
  9620.000000   1484253   1484914   1484733   1483788   1482430  
  9610.000000   1481080   1480090   1479579   1479453   1479452  
  9600.000000   1479335   1478980   1478487   1478130   1478239  
  9590.000000   1479075   1480666   1482832   1485197   1487382  
  9580.000000   1489141   1490463   1491541   1492655   1493957  
  9570.000000   1495371   1496504   1496825   1495868   1493482  
  9560.000000   1489980   1486054   1482558   1480133   1478915  
  9550.000000   1478442   1477819   1476128   1472854   1468185  
  9540.000000   1462984   1458495   1455869   1455750   1458067  
  9530.000000   1462071   1466682   1470830   1473833   1475485  
  9520.000000   1475970   1475668   1474919   1474006   1473166  
  9510.000000   1472719   1473067   1474589   1477419   1481251  
  9500.000000   1485247   1488235   1489010   1486825   1481662  
  9490.000000   1474354   1466321   1459104   1453837   1450906  
  9480.000000   1449890   1449844   1449699   1448677   1446506  
  9470.000000   1443430   1440014   1436875   1434459   1432918  
  9460.000000   1432181   1432014   1432219   1432615   1433129  
  9450.000000   1433706   1434326   1435000   1435779   1436775  
  9440.000000   1438123   1439909   1442118   1444542   1446840  
  9430.000000   1448585   1449407   1449100   1447654   1445288  
  9420.000000   1442351   1439302   1436592   1434634   1433693  
  9410.000000   1433842   1434898   1436433   1437838   1438452  
  9400.000000   1437749   1435500   1431887   1427475   1423056  
  9390.000000   1419418   1417101   1416300   1416849   1418384  
  9380.000000   1420459   1422721   1424937   1426994   1428825  
  9370.000000   1430285   1431154   1431109   1429913   1427445  
  9360.000000   1423844   1419433   1414694   1410168   1406370  
  9350.000000   1403772   1402698   1403331   1405600   1409195  
  9340.000000   1413554   1417954   1421653   1424011   1424688  
  9330.000000   1423665   1421318   1418231   1415115   1412573  
  9320.000000   1411034   1410668   1411412   1413042   1415229  
  9310.000000   1417664   1420062   1422238   1424070   1425532  
  9300.000000   1426651   1427485   1428086   1428463   1428596  
  9290.000000   1428467   1428074   1427482   1426767   1426059  
  9280.000000   1425435   1424967   1424630   1424349   1423986  
  9270.000000   1423383   1422398   1420888   1418747   1415882  
  9260.000000   1412308   1408152   1403722   1399448   1395827  
  9250.000000   1393311   1392185   1392521   1394145   1396741  
  9240.000000   1399937   1403421   1406960   1410399   1413607  
  9230.000000   1416403   1418590   1419937   1420339   1419804  
  9220.000000   1418547   1416862   1415068   1413369   1411822  
  9210.000000   1410388   1408985   1407622   1406368   1405405  
  9200.000000   1404884   1404904   1405405   1406219   1407126  
  9190.000000   1407947   1408588   1409023   1409260   1409265  
  9180.000000   1408971   1408276   1407137   1405638   1404019  
  9170.000000   1402624   1401763   1401605   1402090   1402981  
  9160.000000   1403931   1404636   1404903   1404695   1404078  
  9150.000000   1403134   1401917   1400413   1398632   1396629  
  9140.000000   1394577   1392703   1391237   1390304   1389877  
  9130.000000   1389824   1389978   1390268   1390744   1391566  
  9120.000000   1392882   1394685   1396764   1398706   1400096  
  9110.000000   1400617   1400232   1399157   1397813   1396620  
  9100.000000   1395842   1395528   1395552   1395775   1396127  
  9090.000000   1396709   1397688   1399223   1401264   1403544  
  9080.000000   1405581   1406889   1407137   1406273   1404513  
  9070.000000   1402234   1399828   1397548   1395460   1393478  
  9060.000000   1391485   1389440   1387419   1385586   1384102  
  9050.000000   1383047   1382374   1381961   1381673   1381446  
  9040.000000   1381317   1381394   1381798   1382571   1383656  
  9030.000000   1384891   1386085   1387065   1387739   1388087  
  9020.000000   1388149   1387981   1387635   1387166   1386639  
  9010.000000   1386140   1385746   1385501   1385383   1385293  
  9000.000000   1385085   1384613   1383798   1382656   1381287  
  8990.000000   1379839   1378456   1377238   1376241   1375505  
  8980.000000   1375092   1375076   1375523   1376425   1377668  
  8970.000000   1379019   1380190   1380921   1381097   1380783  
  8960.000000   1380224   1379735   1379601   1379962   1380790  
  8950.000000   1381922   1383135   1384266   1385238   1386085  
  8940.000000   1386867   1387635   1388361   1388963   1389330  
  8930.000000   1389374   1389073   1388454   1387588   1386518  
  8920.000000   1385260   1383793   1382110   1380251   1378337  
  8910.000000   1376568   1375181   1374401   1374375   1375135  
  8900.000000   1376591   1378552   1380760   1382936   1384838  
  8890.000000   1386287   1387236   1387735   1387956   1388098  
  8880.000000   1388367   1388867   1389601   1390459   1391294  
  8870.000000   1391985   1392500   1392922   1393405   1394119  
  8860.000000   1395137   1396419   1397792   1399041   1399987  
  8850.000000   1400574   1400900   1401168   1401627   1402427  
  8840.000000   1403576   1404889   1406069   1406786   1406823  
  8830.000000   1406150   1404973   1403688   1402785   1402716  
  8820.000000   1403762   1405957   1409060   1412631   1416152  
  8810.000000   1419168   1421413   1422855   1423684   1424210  
  8800.000000   1424753   1425520   1426577   1427832   1429129  
  8790.000000   1430312   1431299   1432101   1432783   1433445  
  8780.000000   1434142   1434921   1435800   1436825   1438062  
  8770.000000   1439583   1441408   1443450   1445497   1447241  
  8760.000000   1448377   1448711   1448254   1447238   1446058  
  8750.000000   1445139   1444807   1445192   1446210   1447631  
  8740.000000   1449161   1450577   1451757   1452724   1453588  
  8730.000000   1454480   1455514   1456711   1458051   1459418  
  8720.000000   1460682   1461662   1462210   1462220   1461715  
  8710.000000   1460884   1460087   1459808   1460521   1462552  
  8700.000000   1465929   1470351   1475227   1479843   1483561  
  8690.000000   1486018   1487235   1487556   1487530   1487670  
  8680.000000   1488319   1489523   1491082   1492636   1493847  
  8670.000000   1494527   1494712   1494651   1494691   1495186  
  8660.000000   1496353   1498250   1500749   1503609   1506548  
  8650.000000   1509311   1511753   1513828   1515612   1517229  
  8640.000000   1518819   1520471   1522205   1523969   1525679  
  8630.000000   1527262   1528706   1530087   1531549   1533265  
  8620.000000   1535350   1537831   1540582   1543374   1545904  
  8610.000000   1547913   1549260   1549971   1550249   1550389  
  8600.000000   1550707   1551426   1552606   1554140   1555782  
  8590.000000   1557265   1558368   1559047   1559428   1559807  
  8580.000000   1560527   1561883   1563989   1566727   1569750  
  8570.000000   1572565   1574686   1575753   1575663   1574576  
  8560.000000   1572889   1571107   1569709   1569032   1569197  
  8550.000000   1570130   1571602   1573346   1575118   1576794  
  8540.000000   1578347   1579844   1581363   1582947   1584567  
  8530.000000   1586113   1587442   1588398   1588897   1588930  
  8520.000000   1588602   1588086   1587593   1587304   1587338  
  8510.000000   1587721   1588393   1589230   1590091   1590863  
  8500.000000   1591499   1592030   1592556   1593219   1594171  
  8490.000000   1595528   1597347   1599605   1602223   1605050  
  8480.000000   1607909   1610606   1612990   1614952   1616452  
  8470.000000   1617521   1618259   1618813   1619336   1619977  
  8460.000000   1620843   1622012   1623495   1625270   1627256  
  8450.000000   1629350   1631409   1633283   1634824   1635927  
  8440.000000   1636555   1636744   1636599   1636281   1635959  
  8430.000000   1635797   1635884   1636275   1636955   1637893  
  8420.000000   1639019   1640257   1641521   1642698   1643661  
  8410.000000   1644249   1644330   1643816   1642733   1641209  
  8400.000000   1639497   1637922   1636833   1636522   1637136  
  8390.000000   1638665   1640935   1643664   1646514   1649177  
  8380.000000   1651438   1653202   1654487   1655380   1655998  
  8370.000000   1656441   1656778   1657039   1657240   1657401  
  8360.000000   1657560   1657773   1658067   1658439   1658816  
  8350.000000   1659093   1659137   1658855   1658213   1657275  
  8340.000000   1656177   1655101   1654209   1653611   1653336  
  8330.000000   1653344   1653542   1653823   1654090   1654283  
  8320.000000   1654365   1654332   1654194   1653981   1653735  
  8310.000000   1653507   1653348   1653285   1653322   1653424  
  8300.000000   1653521   1653521   1653332   1652899   1652216  
  8290.000000   1651340   1650370   1649433   1648663   1648164  
  8280.000000   1647988   1648102   1648399   1648715   1648867  
  8270.000000   1648710   1648178   1647332   1646356   1645512  
  8260.000000   1645059   1645156   1645811   1646862   1648025  
  8250.000000   1648972   1649445   1649332   1648700   1647762  
  8240.000000   1646789   1646025   1645602   1645532   1645704  
  8230.000000   1645959   1646127   1646112   1645876   1645475  
  8220.000000   1644979   1644481   1644027   1643629   1643238  
  8210.000000   1642756   1642052   1640983   1639451   1637422  
  8200.000000   1634959   1632219   1629422   1626806   1624566  
  8190.000000   1622813   1621556   1620726   1620207   1619899  
  8180.000000   1619722   1619644   1619642   1619697   1619768  
  8170.000000   1619799   1619743   1619572   1619301   1618944  
  8160.000000   1618507   1617932   1617114   1615915   1614230  
  8150.000000   1612049   1609497   1606840   1604405   1602508  
  8140.000000   1601321   1600847   1600896   1601175   1601366  
  8130.000000   1601237   1600686   1599745   1598537   1597198  
  8120.000000   1595832   1594468   1593097   1591674   1590186  
  8110.000000   1588641   1587086   1585572   1584134   1582797  
  8100.000000   1581561   1580439   1579456   1578662   1578096  
  8090.000000   1577765   1577611   1577509   1577297   1576819  
  8080.000000   1575991   1574820   1573415   1571929   1570516  
  8070.000000   1569260   1568161   1567145   1566107   1564983  
  8060.000000   1563779   1562602   1561609   1560961   1560743  
  8050.000000   1560922   1561345   1561766   1561934   1561647  
  8040.000000   1560827   1559524   1557904   1556196   1554627  
  8030.000000   1553374   1552525   1552077   1551948   1552016  
  8020.000000   1552144   1552218   1552153   1551909   1551472  
  8010.000000   1550856   1550080   1549161   1548120   1546974  
  8000.000000   1545761   1544529   1543341   1542256   1541305  
  7990.000000   1540482   1539731   1538972   1538125   1537152  
  7980.000000   1536083   1535015   1534078   1533391   1533005  
  7970.000000   1532880   1532894   1532882   1532713   1532316  
  7960.000000   1531727   1531038   1530367   1529790   1529321  
  7950.000000   1528905   1528471   1527970   1527428   1526928  
  7940.000000   1526591   1526502   1526668   1526997   1527330  
  7930.000000   1527503   1527413   1527060   1526552   1526052  
  7920.000000   1525715   1525628   1525780   1526083   1526407  
  7910.000000   1526643   1526732   1526668   1526488   1526224  
  7900.000000   1525892   1525473   1524940   1524272   1523487  
  7890.000000   1522635   1521799   1521071   1520530   1520239  
  7880.000000   1520231   1520521   1521096   1521914   1522893  
  7870.000000   1523905   1524794   1525399   1525603   1525362  
  7860.000000   1524731   1523841   1522867   1521970   1521252  
  7850.000000   1520737   1520372   1520074   1519758   1519386  
  7840.000000   1518966   1518550   1518196   1517947   1517806  
  7830.000000   1517737   1517675   1517553   1517324   1516970  
  7820.000000   1516508   1515985   1515455   1514976   1514585  
  7810.000000   1514300   1514105   1513961   1513804   1513563  
  7800.000000   1513170   1512577   1511768   1510761   1509608  
  7790.000000   1508383   1507165   1506023   1504997   1504094  
  7780.000000   1503290   1502547   1501821   1501100   1500397  
  7770.000000   1499761   1499251   1498915   1498758   1498727  
  7760.000000   1498719   1498597   1498240   1497572   1496598  
  7750.000000   1495398   1494115   1492899   1491881   1491128  
  7740.000000   1490641   1490366   1490220   1490116   1489985  
  7730.000000   1489778   1489474   1489071   1488592   1488080  
  7720.000000   1487599   1487222   1487011   1486988   1487120  
  7710.000000   1487320   1487462   1487433   1487165   1486673  
  7700.000000   1486046   1485422   1484932   1484646   1484544  
  7690.000000   1484513   1484399   1484049   1483390   1482446  
  7680.000000   1481337   1480240   1479327   1478711   1478420  
  7670.000000   1478401   1478555   1478772   1478975   1479124  
  7660.000000   1479222   1479286   1479330   1479348   1479322  
  7650.000000   1479222   1479045   1478805   1478557   1478361  
  7640.000000   1478277   1478340   1478538   1478829   1479140  
  7630.000000   1479405   1479577   1479646   1479645   1479620  
  7620.000000   1479627   1479685   1479789   1479884   1479905  
  7610.000000   1479782   1479494   1479071   1478608   1478241  
  7600.000000   1478113   1478330   1478932   1479879   1481064  
  7590.000000   1482339   1483561   1484623   1485484   1486160  
  7580.000000   1486712   1487204   1487695   1488205   1488739  
  7570.000000   1489280   1489826   1490384   1490978   1491633  
  7560.000000   1492365   1493170   1494027   1494909   1495798  
  7550.000000   1496688   1497590   1498517   1499471   1500432  
  7540.000000   1501369   1502242   1503040   1503773   1504491  
  7530.000000   1505252   1506109   1507072   1508122   1509200  
  7520.000000   1510257   1511259   1512224   1513201   1514263  
  7510.000000   1515462   1516822   1518320   1519922   1521591  
  7500.000000   1523325   1525146   1527101   1529214   1531478  
  7490.000000   1533834   1536201   1538490   1540655   1542692  
  7480.000000   1544654   1546605   1548602   1550656   1552746  
  7470.000000   1554819   1556837   1558786   1560697   1562623  
  7460.000000   1564623   1566733   1568965   1571306   1573745  
  7450.000000   1576276   1578913   1581663   1584521   1587439  
  7440.000000   1590343   1593140   1595768   1598211   1600514  
  7430.000000   1602760   1605051   1607459   1610005   1612663  
  7420.000000   1615378   1618103   1620819   1623537   1626287  
  7410.000000   1629087   1631923   1634738   1637450   1639979  
  7400.000000   1642281   1644368   1646301   1648179   1650112  
  7390.000000   1652187   1654454   1656917   1659542   1662265  
  7380.000000   1665006   1667682   1670231   1672619   1674854  
  7370.000000   1676982   1679079   1681228   1683492   1685900  
  7360.000000   1688442   1691071   1693730   1696369   1698953  
  7350.000000   1701472   1703918   1706290   1708575   1710772  
  7340.000000   1712892   1714984   1717118   1719383   1721841  
  7330.000000   1724506   1727325   1730182   1732924   1735414  
  7320.000000   1737559   1739350   1740843   1742156   1743424  
  7310.000000   1744785   1746330   1748113   1750122   1752312  
  7300.000000   1754591   1756854   1758978   1760862   1762428  
  7290.000000   1763650   1764546   1765186   1765666   1766096  
  7280.000000   1766580   1767207   1768037   1769104   1770393  
  7270.000000   1771851   1773383   1774872   1776207   1777305  
  7260.000000   1778155   1778811   1779396   1780050   1780907  
  7250.000000   1782038   1783459   1785112   1786922   1788803  
  7240.000000   1790715   1792643   1794615   1796649   1798765  
  7230.000000   1800948   1803197   1805491   1807853   1810296  
  7220.000000   1812859   1815540   1818337   1821196   1824085  
  7210.000000   1826964   1829851   1832784   1835846   1839100  
  7200.000000   1842603   1846355   1850337   1854491   1858779  
  7190.000000   1863150   1867596   1872095   1876658   1881273  
  7180.000000   1885951   1890683   1895482   1900333   1905234  
  7170.000000   1910144   1915042   1919890   1924701   1929498  
  7160.000000   1934360   1939354   1944551   1949966   1955594  
  7150.000000   1961390   1967329   1973388   1979596   1985969  
  7140.000000   1992527   1999223   2005983   2012691   2019281  
  7130.000000   2025729   2032128   2038615   2045376   2052524  
  7120.000000   2060105   2068023   2076128   2084221   2092170  
  7110.000000   2099900   2107453   2114910   2122394   2129998  
  7100.000000   2137809   2145873   2154233   2162899   2171863  
  7090.000000   2181057   2190364   2199626   2208690   2217450  
  7080.000000   2225899   2234113   2242237   2250404   2258694  
  7070.000000   2267084   2275480   2283755   2291827   2299692  
  7060.000000   2307434   2315194   2323097   2331226   2339572  
  7050.000000   2348077   2356647   2365215   2373746   2382239  
  7040.000000   2390691   2399081   2407344   2415406   2423192  
  7030.000000   2430686   2437913   2444961   2451918   2458866  
  7020.000000   2465827   2472793   2479709   2486533   2493214  
  7010.000000   2499738   2506086   2512266   2518271   2524134  
  7000.000000   2529884   2535597   2541331   2547149   2553051  
  6990.000000   2559002   2564901   2570652   2576163   2581410  
  6980.000000   2586401   2591208   2595885   2600492   2605035  
  6970.000000   2609517   2613911   2618225   2622452   2626609  
  6960.000000   2630673   2634619   2638371   2641880   2645094  
  6950.000000   2648032   2650733   2653282   2655737   2658145  
  6940.000000   2660494   2662772   2664946   2667027   2669035  
  6930.000000   2671028   2673040   2675090   2677147   2679164  
  6920.000000   2681076   2682846   2684459   2685938   2687315  
  6910.000000   2688630   2689907   2691169   2692429   2693708  
  6900.000000   2695016   2696356   2697705   2699021   2700248  
  6890.000000   2701347   2702310   2703179   2704028   2704947  
  6880.000000   2705997   2707198   2708517   2709896   2711268  
  6870.000000   2712592   2713856   2715073   2716259   2717415  
  6860.000000   2718518   2719532   2720424   2721186   2721842  
  6850.000000   2722437   2723026   2723652   2724335   2725081  
  6840.000000   2725879   2726731   2727634   2728600   2729620  
  6830.000000   2730681   2731747   2732783   2733757   2734655  
  6820.000000   2735473   2736217   2736879   2737442   2737874  
  6810.000000   2738155   2738281   2738283   2738210   2738129  
  6800.000000   2738076   2738072   2738090   2738098   2738054  
  6790.000000   2737945   2737775   2737568   2737339   2737093  
  6780.000000   2736809   2736467   2736046   2735559   2735038  
  6770.000000   2734541   2734112   2733780   2733530   2733327  
  6760.000000   2733110   2732828   2732441   2731934   2731309  
  6750.000000   2730581   2729769   2728895   2727976   2727032  
  6740.000000   2726070   2725093   2724089   2723049   2721961  
  6730.000000   2720839   2719707   2718610   2717581   2716634  
  6720.000000   2715741   2714846   2713875   2712773   2711522  
  6710.000000   2710155   2708734   2707335   2706008   2704769  
  6700.000000   2703590   2702428   2701241   2700012   2698745  
  6690.000000   2697468   2696196   2694937   2693674   2692387  
  6680.000000   2691057   2689688   2688294   2686899   2685509  
  6670.000000   2684114   2682680   2681171   2679561   2677857  
  6660.000000   2676092   2674321   2672588   2670926   2669329  
  6650.000000   2667779   2666242   2664696   2663121   2661516  
  6640.000000   2659872   2658177   2656405   2654528   2652524  
  6630.000000   2650390   2648136   2645794   2643399   2640990  
  6620.000000   2638601   2636268   2634021   2631896   2629908  
  6610.000000   2628061   2626328   2624662   2623002   2621298  
  6600.000000   2619517   2617658   2615744   2613800   2611848  
  6590.000000   2609885   2607897   2605861   2603770   2601631  
  6580.000000   2599474   2597335   2595251   2593246   2591332  
  6570.000000   2589517   2587805   2586205   2584723   2583352  
  6560.000000   2582066   2580818   2579554   2578225   2576811  
  6550.000000   2575319   2573787   2572260   2570781   2569366  
  6540.000000   2568011   2566694   2565392   2564087   2562770  
  6530.000000   2561438   2560087   2558710   2557300   2555860  
  6520.000000   2554407   2552971   2551591   2550291   2549077  
  6510.000000   2547926   2546802   2545661   2544481   2543258  
  6500.000000   2542018   2540792   2539612   2538493   2537439  
  6490.000000   2536442   2535495   2534594   2533738   2532920  
  6480.000000   2532119   2531305   2530437   2529490   2528454  
  6470.000000   2527348   2526206   2525063   2523938   2522827  
  6460.000000   2521710   2520557   2519348   2518085   2516784  
  6450.000000   2515474   2514178   2512913   2511683   2510492  
  6440.000000   2509345   2508251   2507220   2506250   2505323  
  6430.000000   2504403   2503453   2502446   2501382   2500288  
  6420.000000   2499208   2498176   2497206   2496273   2495336  
  6410.000000   2494350   2493298   2492199   2491106   2490087  
  6400.000000   2489199   2488462   2487859   2487341   2486852  
  6390.000000   2486346   2485798   2485204   2484570   2483903  
  6380.000000   2483205   2482476   2481722   2480959   2480212  
  6370.000000   2479508   2478860   2478261   2477683   2477088  
  6360.000000   2476438   2475718   2474931   2474104   2473265  
  6350.000000   2472439   2471634   2470850   2470073   2469294  
  6340.000000   2468503   2467698   2466871   2466021   2465139  
  6330.000000   2464227   2463287   2462334   2461380   2460436  
  6320.000000   2459494   2458537   2457527   2456435   2455229  
  6310.000000   2453909   2452480   2450972   2449408   2447817  
  6300.000000   2446214   2444618   2443034   2441475   2439929  
  6290.000000   2438382   2436793   2435124   2433329   2431394  
  6280.000000   2429324   2427162   2424956   2422762   2420599  
  6270.000000   2418466   2416326   2414140   2411868   2409503  
  6260.000000   2407051   2404544   2402005   2399455   2396888  
  6250.000000   2394302   2391684   2389036   2386367   2383695  
  6240.000000   2381026   2378362   2375683   2372973   2370209  
  6230.000000   2367393   2364535   2361664   2358810   2355999  
  6220.000000   2353245   2350551   2347907   2345298   2342709  
  6210.000000   2340124   2337536   2334942   2332352   2329782  
  6200.000000   2327253   2324782   2322373   2320010   2317659  
  6190.000000   2315280   2312842   2310338   2307795   2305261  
  6180.000000   2302789   2300419   2298157   2295976   2293826  
  6170.000000   2291662   2289457   2287215   2284967   2282747  
  6160.000000   2280581   2278465   2276371   2274257   2272089  
  6150.000000   2269856   2267580   2265303   2263078   2260945  
  6140.000000   2258922   2257002   2255166   2253385   2251641  
  6130.000000   2249919   2248219   2246540   2244885   2243250  
  6120.000000   2241638   2240046   2238479   2236937   2235430  
  6110.000000   2233958   2232531   2231155   2229844   2228611  
  6100.000000   2227471   2226425   2225473   2224591   2223761  
  6090.000000   2222955   2222166   2221389   2220642   2219936  
  6080.000000   2219293   2218710   2218191   2217720   2217296  
  6070.000000   2216912   2216580   2216309   2216121   2216023  
  6060.000000   2216028   2216127   2216324   2216601   2216959  
  6050.000000   2217383   2217879   2218440   2219082   2219809  
  6040.000000   2220646   2221603   2222698   2223928   2225292  
  6030.000000   2226766   2228334   2229968   2231657   2233385  
  6020.000000   2235154   2236957   2238802   2240683   2242605  
  6010.000000   2244564   2246558   2248574   2250599   2252605  
  6000.000000   2254566   2256455   2258262   2259985   2261648  
  5990.000000   2263277   2264905   2266551   2268228   2269936  
  5980.000000   2271679   2273468   2275326   2277283   2279367  
  5970.000000   2281590   2283943   2286391   2288894   2291406  
  5960.000000   2293906   2296379   2298836   2301280   2303719  
  5950.000000   2306140   2308534   2310884   2313193   2315475  
  5940.000000   2317764   2320094   2322502   2325008   2327617  
  5930.000000   2330320   2333100   2335937   2338807   2341686  
  5920.000000   2344548   2347362   2350108   2352770   2355354  
  5910.000000   2357877   2360371   2362860   2365366   2367892  
  5900.000000   2370432   2372972   2375503   2378025   2380547  
  5890.000000   2383084   2385648   2388246   2390878   2393535  
  5880.000000   2396206   2398875   2401520   2404114   2406625  
  5870.000000   2409015   2411263   2413358   2415321   2417194  
  5860.000000   2419040   2420923   2422899   2425001   2427246  
  5850.000000   2429630   2432148   2434793   2437561   2440449  
  5840.000000   2443453   2446561   2449754   2453009   2456302  
  5830.000000   2459606   2462893   2466132   2469287   2472329  
  5820.000000   2475231   2477990   2480612   2483124   2485542  
  5810.000000   2487889   2490146   2492298   2494294   2496118  
  5800.000000   2497739   2499183   2500461   2501622   2502667  
  5790.000000   2503615   2504429   2505089   2505544   2505775  
  5780.000000   2505745   2505448   2504861   2503991   2502838  
  5770.000000   2501437   2499836   2498112   2496338   2494590  
  5760.000000   2492911   2491326   2489836   2488442   2487154  
  5750.000000   2485994   2484999   2484196   2483597   2483181  
  5740.000000   2482912   2482730   2482595   2482473   2482368  
  5730.000000   2482284   2482250   2482275   2482373   2482535  
  5720.000000   2482763   2483044   2483381   2483761   2484181  
  5710.000000   2484620   2485067   2485509   2485954   2486417  
  5700.000000   2486929   2487511   2488178   2488923   2489729  
  5690.000000   2490572   2491430   2492297   2493164   2494031  
  5680.000000   2494878   2495682   2496401   2497003   2497464  
  5670.000000   2497783   2497972   2498059   2498057   2497978  
  5660.000000   2497812   2497552   2497185   2496721   2496170  
  5650.000000   2495557   2494898   2494209   2493493   2492759  
  5640.000000   2492015   2491281   2490576   2489917   2489306  
  5630.000000   2488734   2488180   2487628   2487070   2486520  
  5620.000000   2486000   2485532   2485127   2484780   2484468  
  5610.000000   2484163   2483842   2483499   2483135   2482757  
  5600.000000   2482362   2481939   2481459   2480899   2480243  
  5590.000000   2479498   2478682   2477829   2476960   2476087  
  5580.000000   2475200   2474288   2473333   2472335   2471296  
  5570.000000   2470229   2469139   2468023   2466868   2465661  
  5560.000000   2464396   2463084   2461745   2460408   2459094  
  5550.000000   2457812   2456560   2455331   2454117   2452925  
  5540.000000   2451765   2450651   2449587   2448563   2447560  
  5530.000000   2446555   2445531   2444488   2443435   2442392  
  5520.000000   2441371   2440379   2439410   2438453   2437500  
  5510.000000   2436544   2435581   2434606   2433605   2432561  
  5500.000000   2431453   2430277   2429041   2427779   2426527  
  5490.000000   2425319   2424159   2423028   2421876   2420655  
  5480.000000   2419323   2417868   2416296   2414638   2412916  
  5470.000000   2411148   2409331   2407462   2405528   2403535  
  5460.000000   2401485   2399391   2397250   2395060   2392807  
  5450.000000   2390493   2388130   2385758   2383425   2381172  
  5440.000000   2379024   2376967   2374975   2373006   2371038  
  5430.000000   2369065   2367112   2365203   2363368   2361610  
  5420.000000   2359938   2358346   2356858   2355494   2354303  
  5410.000000   2353304   2352510   2351885   2351396   2350988  
  5400.000000   2350653   2350387   2350237   2350230   2350410  
  5390.000000   2350766   2351294   2351950   2352734   2353635  
  5380.000000   2354697   2355939   2357405   2359076   2360949  
  5370.000000   2362961   2365105   2367337   2369699   2372188  
  5360.000000   2374879   2377777   2380954   2384405   2388209  
  5350.000000   2392365   2396965   2402001   2407548   2413563  
  5340.000000   2420095   2427084   2434599   2442604   2451194  
  5330.000000   2460328   2470083   2480377   2491254   2502629  
  5320.000000   2514584   2527088   2540293   2554204   2568979  
  5310.000000   2584585   2601122   2618494   2636765   2655839  
  5300.000000   2675809   2696630   2718441   2741229   2765128  
  5290.000000   2790090   2816166   2843210   2871163   2899825  
  5280.000000   2929131   2958967   2989392   3020436   3052233  
  5270.000000   3084813   3118167   3152122   3186428   3220788  
  5260.000000   3254936   3288737   3322140   3355229   3388036  
  5250.000000   3420608   3452801   3484484   3515360   3545300  
  5240.000000   3574108   3601865   3628557   3654393   3679379  
  5230.000000   3703661   3727118   3749766   3771392   3791996  
  5220.000000   3811419   3829772   3847018   3863367   3878827  
  5210.000000   3893584   3907566   3920834   3933206   3944687  
  5200.000000   3955113   3964579   3973040   3980686   3987513  
  5190.000000   3993672   3999085   4003803   4007698   4010817  
  5180.000000   4013081   4014605   4015369   4015504   4014977  
  5170.000000   4013880   4012161   4009908   4007097   4003843  
  5160.000000   4000135   3996064   3991584   3986734   3981451  
  5150.000000   3975780   3969702   3963304   3956595   3949654  
  5140.000000   3942463   3935059   3927410   3919556   3911506  
  5130.000000   3903335   3895072   3886778   3878442   3870068  
  5120.000000   3861608   3853054   3844385   3835631   3826813  
  5110.000000   3817978   3809141   3800320   3791504   3782694  
  5100.000000   3773885   3765090   3756317   3747584   3738888  
  5090.000000   3730224   3721574   3712929   3704279   3695634  
  5080.000000   3687005   3678409   3669850   3661332   3652844  
  5070.000000   3644381   3635929   3627486   3619042   3610596  
  5060.000000   3602132   3593643   3585115   3576547   3567945  
  5050.000000   3559322   3550694   3542073   3533461   3524854  
  5040.000000   3516246   3507631   3499018   3490423   3481873  
  5030.000000   3473393   3465013   3456744   3448602   3440586  
  5020.000000   3432707   3424960   3417355   3409879   3402538  
  5010.000000   3395311   3388204   3381202   3374333   3367604  
  5000.000000   3361070   3354747   3348693   3342908   3337430  
  4990.000000   3332236   3327350   3322740   3318430   3314389  
  4980.000000   3310645   3307164   3303979   3301059   3298451  
  4970.000000   3296135   3294172   3292549   3291323   3290470  
  4960.000000   3290031   3289964   3290304   3291010   3292122  
  4950.000000   3293603   3295491   3297743   3300385   3303364  
  4940.000000   3306707   3310370   3314393   3318745   3323469  
  4930.000000   3328524   3333929   3339625   3345611   3351826  
  4920.000000   3358278   3364927   3371803   3378889   3386225  
  4910.000000   3393802   3401653   3409760   3418141   3426760  
  4900.000000   3435609   3444640   3453829   3463134   3472539  
  4890.000000   3482027   3491599   3501250   3510970   3520735  
  4880.000000   3530502   3540224   3549838   3559299   3568554  
  4870.000000   3577581   3586348   3594856   3603089   3611065  
  4860.000000   3618776   3626252   3633492   3640526   3647344  
  4850.000000   3653972   3660392   3666634   3672688   3678594  
  4840.000000   3684351   3689998   3695525   3700957   3706269  
  4830.000000   3711476   3716557   3721534   3726390   3731145  
  4820.000000   3735770   3740264   3744585   3748722   3752642  
  4810.000000   3756353   3759851   3763165   3766301   3769291  
  4800.000000   3772137   3774864   3777475   3780001   3782447  
  4790.000000   3784845   3787190   3789498   3791746   3793934  
  4780.000000   3796037   3798063   3800000   3801867   3803652  
  4770.000000   3805367   3806983   3808491   3809854   3811061  
  4760.000000   3812082   3812921   3813566   3814036   3814328  
  4750.000000   3814467   3814449   3814299   3814002   3813572  
  4740.000000   3812979   3812225   3811276   3810140   3808801  
  4730.000000   3807290   3805613   3803811   3801890   3799872  
  4720.000000   3797747   3795517   3793168   3790709   3788148  
  4710.000000   3785514   3782830   3780130   3777431   3774752  
  4700.000000   3772100   3769489   3766929   3764443   3762048  
  4690.000000   3759763   3757591   3755526   3753544   3751613  
  4680.000000   3749694   3747746   3745739   3743642   3741443  
  4670.000000   3739130   3736714   3734202   3731629   3729026  
  4660.000000   3726441   3723917   3721503   3719231   3717134  
  4650.000000   3715223   3713508   3711976   3710615   3709399  
  4640.000000   3708304   3707300   3706376   3705516   3704724  
  4630.000000   3703997   3703343   3702752   3702213   3701696  
  4620.000000   3701177   3700624   3700023   3699364   3698651  
  4610.000000   3697894   3697101   3696281   3695436   3694567  
  4600.000000   3693680   3692785   3691893   3691025   3690194  
  4590.000000   3689411   3688676   3687984   3687319   3686669  
  4580.000000   3686013   3685340   3684636   3683893   3683104  
  4570.000000   3682265   3681372   3680421   3679404   3678315  
  4560.000000   3677143   3675883   3674536   3673114   3671639  
  4550.000000   3670140   3668648   3667181   3665754   3664359  
  4540.000000   3662997   3661655   3660349   3659088   3657917  
  4530.000000   3656858   3655965   3655241   3654723   3654389  
  4520.000000   3654271   3654342   3654652   3655191   3656032  
  4510.000000   3657177   3658718   3660660   3663105   3666055  
  4500.000000   3669609   3673749   3678556   3683987   3690106  
  4490.000000   3696862   3704323   3712454   3721336   3730934  
  4480.000000   3741314   3752420   3764276   3776797   3789979  
  4470.000000   3803722   3818009   3832738   3847876   3863316  
  4460.000000   3879012   3894859   3910808   3926773   3942713  
  4450.000000   3958568   3974306   3989896   4005318   4020573  
  4440.000000   4035655   4050594   4065386   4080069   4094614  
  4430.000000   4109051   4123317   4137430   4151301   4164939  
  4420.000000   4178233   4191179   4203640   4215592   4226874  
  4410.000000   4237447   4247143   4255928   4263660   4270340  
  4400.000000   4275884   4280359   4283761   4286221   4287800  
  4390.000000   4288661   4288890   4288641   4287990   4287068  
  4380.000000   4285946   4284745   4283559   4282524   4281765  
  4370.000000   4281418   4281601   4282401   4283880   4286040  
  4360.000000   4288871   4292308   4296293   4300735   4305567  
  4350.000000   4310701   4316079   4321636   4327334   4333141  
  4340.000000   4339040   4345005   4350994   4356919   4362642  
  4330.000000   4367971   4372683   4376570   4379477   4381365  
  4320.000000   4382308   4382527   4382299   4381962   4381778  
  4310.000000   4381965   4382587   4383654   4385056   4386699  
  4300.000000   4388441   4390209   4391914   4393523   4394979  
  4290.000000   4396253   4397300   4398100   4398642   4398950  
  4280.000000   4399054   4399019   4398887   4398722   4398541  
  4270.000000   4398383   4398234   4398096   4397913   4397634  
  4260.000000   4397154   4396377   4395185   4393504   4391287  
  4250.000000   4388567   4385422   4381999   4378457   4374970  
  4240.000000   4371668   4368656   4365966   4363597   4361494  
  4230.000000   4359589   4357791   4356018   4354187   4352232  
  4220.000000   4350112   4347800   4345314   4342678   4339964  
  4210.000000   4337233   4334571   4332036   4329687   4327546  
  4200.000000   4325631   4323926   4322422   4321076   4319870  
  4190.000000   4318746   4317692   4316652   4315641   4314634  
  4180.000000   4313693   4312835   4312164   4311724   4311639  
  4170.000000   4311955   4312794   4314190   4316247   4318967  
  4160.000000   4322421   4326560   4331406   4336861   4342919  
  4150.000000   4349470   4356525   4363998   4371940   4380304  
  4140.000000   4389176   4398535   4408479   4418988   4430141  
  4130.000000   4441896   4454291   4467250   4480776   4494777  
  4120.000000   4509251   4524127   4539424   4555104   4571209  
  4110.000000   4587713   4604653   4621988   4639718   4657771  
  4100.000000   4676113   4694665   4713394   4732248   4751223  
  4090.000000   4770312   4789525   4808866   4828330   4847908  
  4080.000000   4867574   4887319   4907109   4926947   4946792  
  4070.000000   4966640   4986418   5006107   5025617   5044938  
  4060.000000   5063987   5082776   5101213   5119306   5136936  
  4050.000000   5154105   5170693   5186738   5202147   5216982  
  4040.000000   5231133   5244632   5257313   5269181   5280071  
  4030.000000   5290029   5298940   5306893   5313794   5319703  
  4020.000000   5324471   5328152   5330686   5332175   5332564  
  4010.000000   5332053   5330751   5328725   5325740   5321917  
  4000.000000   5317671  
##END= 
