##TITLE= Sample 038 By ssteindl date Dienstag, November 20 2018
##JCAMP-DX= 4.24
##DATA TYPE= INFRARED SPECTRUM
##ORIGIN= Exported PE Spectrum Data File
##OWNER= Sandra Steindl
##DATE= 18/11/20
##TIME= 15:29:28.00
##SPECTROMETER/DATA SYSTEM= PERKIN-ELMER Frontier FT-IR/NIR IR
##INSTRUMENT PARAMETERS=
  APODIZATION=stark
  DETECTOR=INGAAS
##RESOLUTION= 16.000000
##DELTAX= -2.000000
##XUNITS= 1/CM
##YUNITS= A
##XFACTOR= 1.00
##YFACTOR= 0.00000011920928955078
##FIRSTX= 10000.00
##LASTX= 4000.00
##NPOINTS= 3001
##FIRSTY= 0.200836
##MAXY= 0.589325
##MINY= 0.174964
##XYDATA= (X++(Y..Y))
 10000.000000   1684734   1686242   1686522   1684129   1679236  
  9990.000000   1673032   1666351   1659489   1652915   1647215  
  9980.000000   1642668   1639197   1636617   1634738   1633253  
  9970.000000   1631944   1630755   1629902   1629747   1630709  
  9960.000000   1633090   1636852   1641648   1646707   1651112  
  9950.000000   1653856   1654211   1651842   1647022   1640580  
  9940.000000   1633752   1627927   1624271   1623515   1625699  
  9930.000000   1630281   1636186   1642177   1647070   1650045  
  9920.000000   1650764   1649358   1646352   1642386   1638112  
  9910.000000   1633942   1630103   1626592   1623367   1620434  
  9900.000000   1617937   1616202   1615553   1616323   1618528  
  9890.000000   1621996   1626186   1630478   1634221   1636977  
  9880.000000   1638594   1639153   1638899   1637968   1636349  
  9870.000000   1633720   1629682   1623819   1616049   1606674  
  9860.000000   1596464   1586498   1577903   1571662   1568312  
  9850.000000   1567994   1570371   1574866   1580726   1587194  
  9840.000000   1593605   1599385   1604156   1607625   1609704  
  9830.000000   1610355   1609698   1607871   1605150   1601862  
  9820.000000   1598495   1595635   1593866   1593685   1595171  
  9810.000000   1598051   1601495   1604531   1606193   1606014  
  9800.000000   1604145   1601349   1598694   1597040   1596683  
  9790.000000   1597062   1597030   1595186   1590607   1583175  
  9780.000000   1573803   1564096   1555840   1550437   1548495  
  9770.000000   1549829   1553664   1559058   1565216   1571655  
  9760.000000   1578136   1584485   1590417   1595511   1599339  
  9750.000000   1601655   1602604   1602631   1602397   1602393  
  9740.000000   1602815   1603415   1603692   1603116   1601378  
  9730.000000   1598543   1594960   1591157   1587575   1584538  
  9720.000000   1582173   1580618   1580021   1580664   1582774  
  9710.000000   1586425   1591315   1596789   1601936   1605874  
  9700.000000   1608025   1608248   1606862   1604401   1601453  
  9690.000000   1598395   1595381   1592377   1589284   1586104  
  9680.000000   1582934   1580023   1577604   1575904   1574996  
  9670.000000   1574864   1575352   1576225   1577168   1577792  
  9660.000000   1577717   1576599   1574317   1570990   1567083  
  9650.000000   1563247   1560185   1558381   1557968   1558690  
  9640.000000   1560044   1561490   1562662   1563465   1564056  
  9630.000000   1564683   1565539   1566614   1567734   1568621  
  9620.000000   1569087   1569104   1568854   1568628   1568685  
  9610.000000   1569174   1570060   1571233   1572523   1573837  
  9600.000000   1575086   1576210   1577070   1577473   1577201  
  9590.000000   1576097   1574159   1571543   1568537   1565413  
  9580.000000   1562344   1559317   1556208   1552883   1549369  
  9570.000000   1545913   1542947   1540961   1540292   1541028  
  9560.000000   1542928   1545557   1548415   1551135   1553566  
  9550.000000   1555749   1557835   1559897   1561890   1563564  
  9540.000000   1564610   1564711   1563717   1561657   1558779  
  9530.000000   1555463   1552131   1549185   1546894   1545437  
  9520.000000   1544853   1545113   1546104   1547643   1549476  
  9510.000000   1551278   1552694   1553402   1553192   1552036  
  9500.000000   1550127   1547867   1545791   1544467   1544333  
  9490.000000   1545585   1548086   1551390   1554846   1557743  
  9480.000000   1559485   1559686   1558241   1555291   1551182  
  9470.000000   1546382   1541438   1536920   1533366   1531210  
  9460.000000   1530663   1531668   1533834   1536562   1539160  
  9450.000000   1541065   1541982   1541940   1541231   1540229  
  9440.000000   1539234   1538327   1537435   1536399   1535190  
  9430.000000   1533948   1532986   1532636   1533047   1534102  
  9420.000000   1535344   1536197   1536153   1535045   1533144  
  9410.000000   1531049   1529467   1528862   1529307   1530390  
  9400.000000   1531418   1531655   1530603   1528205   1524834  
  9390.000000   1521224   1518177   1516410   1516329   1518018  
  9380.000000   1521237   1525478   1530059   1534163   1536974  
  9370.000000   1537799   1536249   1532375   1526716   1520213  
  9360.000000   1514024   1509240   1506648   1506517   1508537  
  9350.000000   1511922   1515603   1518549   1519984   1519594  
  9340.000000   1517539   1514404   1511007   1508189   1506591  
  9330.000000   1506476   1507723   1509857   1512289   1514448  
  9320.000000   1515954   1516640   1516492   1515597   1514032  
  9310.000000   1511895   1509342   1506649   1504271   1502755  
  9300.000000   1502610   1504067   1506903   1510434   1513675  
  9290.000000   1515702   1515956   1514456   1511776   1508854  
  9280.000000   1506652   1505801   1506401   1508038   1510026  
  9270.000000   1511701   1512635   1512725   1512104   1511034  
  9260.000000   1509732   1508340   1506908   1505481   1504155  
  9250.000000   1503060   1502297   1501820   1501415   1500759  
  9240.000000   1499578   1497782   1495560   1493310   1491516  
  9230.000000   1490486   1490253   1490518   1490826   1490754  
  9220.000000   1490128   1489108   1488149   1487816   1488550  
  9210.000000   1490499   1493471   1497013   1500574   1503640  
  9200.000000   1505863   1507083   1507355   1506853   1505853  
  9190.000000   1504645   1503517   1502682   1502241   1502161  
  9180.000000   1502283   1502419   1502408   1502264   1502150  
  9170.000000   1502377   1503209   1504775   1506932   1509311  
  9160.000000   1511401   1512726   1513006   1512237   1510675  
  9150.000000   1508710   1506727   1504976   1503537   1502350  
  9140.000000   1501290   1500255   1499192   1498115   1497047  
  9130.000000   1496054   1495175   1494486   1494024   1493855  
  9120.000000   1493999   1494425   1495007   1495535   1495800  
  9110.000000   1495606   1494864   1493525   1491625   1489186  
  9100.000000   1486263   1482895   1479201   1475416   1471926  
  9090.000000   1469211   1467707   1467708   1469236   1472037  
  9080.000000   1475587   1479278   1482559   1485071   1486688  
  9070.000000   1487473   1487641   1487410   1486981   1486430  
  9060.000000   1485791   1485009   1484051   1482877   1481504  
  9050.000000   1479992   1478431   1476972   1475757   1474957  
  9040.000000   1474675   1475006   1475979   1477588   1479756  
  9030.000000   1482349   1485167   1487913   1490219   1491700  
  9020.000000   1492080   1491253   1489377   1486833   1484191  
  9010.000000   1482001   1480662   1480282   1480693   1481529  
  9000.000000   1482360   1482871   1482945   1482712   1482439  
  8990.000000   1482447   1482988   1484184   1486021   1488346  
  8980.000000   1490949   1493558   1495908   1497746   1498875  
  8970.000000   1499220   1498852   1498020   1497072   1496397  
  8960.000000   1496289   1496857   1497991   1499390   1500681  
  8950.000000   1501508   1501625   1500929   1499471   1497425  
  8940.000000   1495058   1492705   1490720   1489466   1489195  
  8930.000000   1490041   1491892   1494479   1497372   1500166  
  8920.000000   1502534   1504344   1505606   1506397   1506733  
  8910.000000   1506489   1505451   1503378   1500198   1496067  
  8900.000000   1491428   1486858   1482896   1479864   1477784  
  8890.000000   1476429   1475459   1474611   1473819   1473221  
  8880.000000   1473059   1473512   1474604   1476156   1477892  
  8870.000000   1479548   1481020   1482368   1483791   1485467  
  8860.000000   1487478   1489716   1491954   1493909   1495378  
  8850.000000   1496258   1496553   1496302   1495545   1494300  
  8840.000000   1492612   1490624   1488609   1486953   1486029  
  8830.000000   1486087   1487131   1488905   1490981   1492897  
  8820.000000   1494343   1495211   1495619   1495772   1495888  
  8810.000000   1496071   1496359   1496738   1497286   1498157  
  8800.000000   1499597   1501806   1504841   1508540   1512514  
  8790.000000   1516301   1519487   1521890   1523571   1524822  
  8780.000000   1526026   1527511   1529424   1531689   1534037  
  8770.000000   1536101   1537527   1538067   1537644   1536353  
  8760.000000   1534436   1532241   1530135   1528467   1527450  
  8750.000000   1527166   1527521   1528336   1529394   1530547  
  8740.000000   1531741   1533011   1534425   1535972   1537534  
  8730.000000   1538840   1539596   1539556   1538688   1537191  
  8720.000000   1535489   1534100   1533495   1533970   1535576  
  8710.000000   1538145   1541346   1544798   1548134   1551052  
  8700.000000   1553310   1554753   1555330   1555125   1554390  
  8690.000000   1553488   1552853   1552838   1553629   1555148  
  8680.000000   1557076   1558958   1560361   1561039   1561009  
  8670.000000   1560542   1560050   1559933   1560456   1561654  
  8660.000000   1563372   1565321   1567229   1568911   1570341  
  8650.000000   1571619   1572913   1574388   1576135   1578163  
  8640.000000   1580399   1582741   1585088   1587365   1589535  
  8630.000000   1591574   1593472   1595183   1596641   1597747  
  8620.000000   1598424   1598625   1598380   1597807   1597113  
  8610.000000   1596570   1596444   1596964   1598252   1600322  
  8600.000000   1603043   1606209   1609553   1612825   1615812  
  8590.000000   1618380   1620488   1622169   1623518   1624627  
  8580.000000   1625591   1626434   1627141   1627644   1627886  
  8570.000000   1627850   1627594   1627278   1627112   1627337  
  8560.000000   1628106   1629483   1631388   1633652   1636037  
  8550.000000   1638335   1640401   1642187   1643711   1645028  
  8540.000000   1646196   1647235   1648143   1648881   1649437  
  8530.000000   1649795   1649971   1649986   1649874   1649690  
  8520.000000   1649496   1649402   1649528   1650025   1650997  
  8510.000000   1652492   1654458   1656750   1659154   1661424  
  8500.000000   1663350   1664779   1665657   1666003   1665924  
  8490.000000   1665568   1665122   1664780   1664722   1665085  
  8480.000000   1665927   1667218   1668823   1670552   1672181  
  8470.000000   1673536   1674515   1675125   1675466   1675686  
  8460.000000   1675949   1676365   1676990   1677797   1678703  
  8450.000000   1679595   1680366   1680960   1681376   1681693  
  8440.000000   1682035   1682551   1683353   1684481   1685860  
  8430.000000   1687324   1688648   1689625   1690121   1690129  
  8420.000000   1689769   1689248   1688780   1688522   1688533  
  8410.000000   1688769   1689119   1689447   1689658   1689704  
  8400.000000   1689594   1689355   1689031   1688664   1688313  
  8390.000000   1688059   1688005   1688276   1688975   1690172  
  8380.000000   1691846   1693913   1696230   1698637   1700983  
  8370.000000   1703127   1704944   1706311   1707120   1707277  
  8360.000000   1706748   1705597   1704006   1702265   1700690  
  8350.000000   1699572   1699078   1699235   1699907   1700851  
  8340.000000   1701760   1702364   1702474   1702014   1701018  
  8330.000000   1699613   1698003   1696441   1695177   1694426  
  8320.000000   1694317   1694885   1696046   1697631   1699390  
  8310.000000   1701073   1702452   1703373   1703744   1703539  
  8300.000000   1702776   1701511   1699834   1697859   1695734  
  8290.000000   1693612   1691642   1689930   1688529   1687417  
  8280.000000   1686509   1685688   1684839   1683882   1682796  
  8270.000000   1681624   1680472   1679501   1678902   1678856  
  8260.000000   1679485   1680816   1682747   1685063   1687456  
  8250.000000   1689602   1691235   1692205   1692507   1692240  
  8240.000000   1691564   1690616   1689480   1688164   1686641  
  8230.000000   1684891   1682952   1680936   1678991   1677280  
  8220.000000   1675888   1674844   1674078   1673507   1673038  
  8210.000000   1672639   1672317   1672109   1672030   1672047  
  8200.000000   1672067   1671953   1671570   1670814   1669648  
  8190.000000   1668091   1666216   1664121   1661914   1659706  
  8180.000000   1657598   1655687   1654041   1652697   1651631  
  8170.000000   1650772   1649998   1649184   1648226   1647076  
  8160.000000   1645751   1644314   1642856   1641455   1640174  
  8150.000000   1639035   1638044   1637191   1636457   1635816  
  8140.000000   1635225   1634629   1633959   1633162   1632211  
  8130.000000   1631123   1629957   1628779   1627657   1626606  
  8120.000000   1625605   1624579   1623454   1622171   1620731  
  8110.000000   1619196   1617686   1616347   1615315   1614694  
  8100.000000   1614518   1614755   1615304   1616013   1616699  
  8090.000000   1617184   1617327   1617048   1616353   1615315  
  8080.000000   1614065   1612736   1611438   1610217   1609067  
  8070.000000   1607942   1606799   1605632   1604487   1603453  
  8060.000000   1602623   1602058   1601751   1601622   1601541  
  8050.000000   1601380   1601059   1600578   1600020   1599514  
  8040.000000   1599190   1599125   1599315   1599670   1600048  
  8030.000000   1600289   1600271   1599925   1599251   1598306  
  8020.000000   1597177   1595969   1594777   1593687   1592756  
  8010.000000   1592015   1591453   1591024   1590642   1590209  
  8000.000000   1589642   1588897   1587991   1586988   1585987  
  7990.000000   1585073   1584297   1583647   1583069   1582489  
  7980.000000   1581854   1581167   1580491   1579936   1579613  
  7970.000000   1579593   1579877   1580378   1580948   1581402  
  7960.000000   1581572   1581335   1580653   1579572   1578226  
  7950.000000   1576805   1575526   1574581   1574094   1574082  
  7940.000000   1574444   1574986   1575475   1575710   1575593  
  7930.000000   1575148   1574517   1573896   1573452   1573263  
  7920.000000   1573291   1573409   1573481   1573429   1573286  
  7910.000000   1573180   1573276   1573684   1574383   1575211  
  7900.000000   1575913   1576234   1576027   1575311   1574267  
  7890.000000   1573167   1572268   1571722   1571537   1571596  
  7880.000000   1571728   1571787   1571709   1571511   1571262  
  7870.000000   1571020   1570798   1570556   1570234   1569806  
  7860.000000   1569313   1568867   1568621   1568702   1569164  
  7850.000000   1569956   1570935   1571915   1572720   1573230  
  7840.000000   1573403   1573262   1572872   1572314   1571669  
  7830.000000   1571017   1570431   1569982   1569718   1569655  
  7820.000000   1569752   1569928   1570065   1570061   1569844  
  7810.000000   1569414   1568821   1568156   1567508   1566941  
  7800.000000   1566472   1566077   1565711   1565327   1564891  
  7790.000000   1564390   1563823   1563195   1562513   1561781  
  7780.000000   1561013   1560230   1559466   1558755   1558128  
  7770.000000   1557603   1557180   1556856   1556620   1556472  
  7760.000000   1556418   1556466   1556612   1556832   1557078  
  7750.000000   1557282   1557373   1557292   1557010   1556537  
  7740.000000   1555915   1555210   1554493   1553822   1553228  
  7730.000000   1552717   1552267   1551847   1551424   1550975  
  7720.000000   1550491   1549970   1549413   1548808   1548135  
  7710.000000   1547368   1546491   1545516   1544499   1543534  
  7700.000000   1542742   1542238   1542096   1542319   1542831  
  7690.000000   1543484   1544099   1544500   1544577   1544294  
  7680.000000   1543715   1542963   1542204   1541582   1541195  
  7670.000000   1541075   1541186   1541445   1541750   1542014  
  7660.000000   1542183   1542253   1542253   1542240   1542263  
  7650.000000   1542345   1542475   1542604   1542672   1542612  
  7640.000000   1542389   1541994   1541452   1540811   1540126  
  7630.000000   1539458   1538861   1538398   1538130   1538118  
  7620.000000   1538401   1538980   1539796   1540725   1541599  
  7610.000000   1542231   1542484   1542293   1541718   1540903  
  7600.000000   1540063   1539398   1539059   1539096   1539468  
  7590.000000   1540054   1540713   1541321   1541813   1542193  
  7580.000000   1542519   1542869   1543313   1543885   1544579  
  7570.000000   1545355   1546163   1546953   1547700   1548389  
  7560.000000   1549025   1549610   1550143   1550617   1551031  
  7550.000000   1551391   1551731   1552093   1552534   1553097  
  7540.000000   1553798   1554617   1555504   1556392   1557224  
  7530.000000   1557977   1558676   1559384   1560189   1561158  
  7520.000000   1562328   1563667   1565096   1566492   1567739  
  7510.000000   1568749   1569508   1570056   1570497   1570954  
  7500.000000   1571553   1572377   1573462   1574781   1576269  
  7490.000000   1577840   1579415   1580938   1582399   1583820  
  7480.000000   1585262   1586784   1588435   1590223   1592117  
  7470.000000   1594042   1595907   1597625   1599150   1600484  
  7460.000000   1601689   1602860   1604108   1605516   1607115  
  7450.000000   1608875   1610720   1612552   1614289   1615892  
  7440.000000   1617382   1618829   1620324   1621941   1623718  
  7430.000000   1625629   1627609   1629566   1631431   1633170  
  7420.000000   1634806   1636399   1638026   1639744   1641578  
  7410.000000   1643506   1645483   1647458   1649401   1651304  
  7400.000000   1653185   1655069   1656969   1658887   1660811  
  7390.000000   1662737   1664677   1666668   1668753   1670967  
  7380.000000   1673302   1675703   1678070   1680291   1682276  
  7370.000000   1683983   1685433   1686687   1687830   1688932  
  7360.000000   1690034   1691146   1692273   1693430   1694660  
  7350.000000   1696033   1697617   1699456   1701533   1703780  
  7340.000000   1706092   1708369   1710546   1712606   1714578  
  7330.000000   1716503   1718408   1720285   1722094   1723781  
  7320.000000   1725312   1726686   1727942   1729146   1730355  
  7310.000000   1731608   1732892   1734174   1735400   1736550  
  7300.000000   1737633   1738706   1739834   1741070   1742421  
  7290.000000   1743832   1745205   1746422   1747393   1748080  
  7280.000000   1748519   1748806   1749074   1749457   1750052  
  7270.000000   1750905   1752008   1753312   1754752   1756265  
  7260.000000   1757807   1759347   1760868   1762346   1763760  
  7250.000000   1765081   1766302   1767427   1768504   1769587  
  7240.000000   1770756   1772060   1773526   1775134   1776847  
  7230.000000   1778612   1780408   1782227   1784108   1786079  
  7220.000000   1788179   1790402   1792733   1795122   1797548  
  7210.000000   1799996   1802505   1805128   1807943   1810997  
  7200.000000   1814317   1817873   1821623   1825496   1829438  
  7190.000000   1833389   1837316   1841173   1844936   1848568  
  7180.000000   1852065   1855434   1858727   1862009   1865371  
  7170.000000   1868879   1872590   1876504   1880604   1884831  
  7160.000000   1889137   1893462   1897780   1902071   1906347  
  7150.000000   1910630   1914978   1919441   1924098   1928983  
  7140.000000   1934122   1939459   1944921   1950380   1955741  
  7130.000000   1960928   1965955   1970881   1975839   1980964  
  7120.000000   1986396   1992208   1998430   2005010   2011868  
  7110.000000   2018880   2025937   2032926   2039781   2046454  
  7100.000000   2052962   2059345   2065689   2072069   2078555  
  7090.000000   2085158   2091856   2098579   2105258   2111841  
  7080.000000   2118324   2124749   2131193   2137738   2144448  
  7070.000000   2151341   2158403   2165577   2172792   2179967  
  7060.000000   2187024   2193896   2200537   2206941   2213152  
  7050.000000   2219275   2225451   2231826   2238492   2245454  
  7040.000000   2252601   2259749   2266684   2273251   2279389  
  7030.000000   2285163   2290722   2296247   2301870   2307642  
  7020.000000   2313512   2319380   2325133   2330720   2336148  
  7010.000000   2341496   2346843   2352265   2357769   2363329  
  7000.000000   2368871   2374330   2379645   2384785   2389720  
  6990.000000   2394429   2398885   2403078   2407015   2410759  
  6980.000000   2414399   2418061   2421840   2425803   2429936  
  6970.000000   2434185   2438441   2442613   2446615   2450418  
  6960.000000   2454007   2457403   2460608   2463635   2466474  
  6950.000000   2469134   2471622   2473975   2476233   2478452  
  6940.000000   2480661   2482892   2485131   2487368   2489556  
  6930.000000   2491667   2493661   2495529   2497268   2498908  
  6920.000000   2500479   2502022   2503557   2505089   2506592  
  6910.000000   2508036   2509385   2510627   2511774   2512871  
  6900.000000   2513968   2515119   2516351   2517667   2519044  
  6890.000000   2520443   2521825   2523153   2524395   2525528  
  6880.000000   2526532   2527403   2528151   2528818   2529465  
  6870.000000   2530172   2531001   2531986   2533107   2534307  
  6860.000000   2535497   2536599   2537557   2538367   2539056  
  6850.000000   2539679   2540283   2540898   2541522   2542138  
  6840.000000   2542712   2543220   2543647   2543997   2544287  
  6830.000000   2544552   2544828   2545163   2545587   2546123  
  6820.000000   2546753   2547435   2548097   2548666   2549086  
  6810.000000   2549343   2549459   2549487   2549481   2549476  
  6800.000000   2549471   2549434   2549325   2549117   2548811  
  6790.000000   2548439   2548039   2547645   2547262   2546882  
  6780.000000   2546487   2546084   2545706   2545414   2545263  
  6770.000000   2545282   2545436   2545650   2545812   2545828  
  6760.000000   2545643   2545257   2544717   2544082   2543395  
  6750.000000   2542671   2541893   2541046   2540133   2539197  
  6740.000000   2538303   2537529   2536920   2536485   2536178  
  6730.000000   2535926   2535642   2535256   2534719   2534009  
  6720.000000   2533127   2532089   2530932   2529711   2528499  
  6710.000000   2527374   2526394   2525584   2524913   2524316  
  6700.000000   2523702   2523002   2522182   2521260   2520284  
  6690.000000   2519311   2518370   2517456   2516534   2515560  
  6680.000000   2514508   2513388   2512230   2511076   2509946  
  6670.000000   2508833   2507696   2506494   2505197   2503811  
  6660.000000   2502369   2500919   2499490   2498094   2496710  
  6650.000000   2495312   2493883   2492434   2490991   2489589  
  6640.000000   2488236   2486916   2485576   2484162   2482633  
  6630.000000   2480992   2479280   2477567   2475919   2474380  
  6620.000000   2472953   2471612   2470308   2469003   2467664  
  6610.000000   2466279   2464842   2463346   2461784   2460150  
  6600.000000   2458448   2456698   2454929   2453172   2451448  
  6590.000000   2449760   2448098   2446449   2444808   2443189  
  6580.000000   2441616   2440115   2438696   2437345   2436028  
  6570.000000   2434701   2433333   2431907   2430429   2428916  
  6560.000000   2427387   2425849   2424307   2422763   2421234  
  6550.000000   2419753   2418360   2417084   2415930   2414869  
  6540.000000   2413844   2412786   2411646   2410406   2409086  
  6530.000000   2407731   2406393   2405110   2403897   2402743  
  6520.000000   2401630   2400533   2399438   2398334   2397210  
  6510.000000   2396053   2394852   2393600   2392306   2390996  
  6500.000000   2389714   2388502   2387392   2386389   2385480  
  6490.000000   2384634   2383819   2383012   2382199   2381376  
  6480.000000   2380537   2379676   2378785   2377860   2376915  
  6470.000000   2375975   2375070   2374221   2373419   2372629  
  6460.000000   2371793   2370853   2369777   2368573   2367289  
  6450.000000   2365999   2364775   2363666   2362680   2361795  
  6440.000000   2360966   2360153   2359333   2358507   2357692  
  6430.000000   2356915   2356197   2355545   2354956   2354412  
  6420.000000   2353890   2353360   2352794   2352163   2351454  
  6410.000000   2350665   2349820   2348963   2348150   2347437  
  6400.000000   2346866   2346450   2346176   2346009   2345907  
  6390.000000   2345829   2345742   2345626   2345467   2345254  
  6380.000000   2344979   2344637   2344233   2343782   2343307  
  6370.000000   2342835   2342384   2341960   2341553   2341141  
  6360.000000   2340696   2340196   2339625   2338985   2338285  
  6350.000000   2337548   2336796   2336062   2335368   2334739  
  6340.000000   2334180   2333689   2333244   2332819   2332381  
  6330.000000   2331904   2331364   2330745   2330033   2329217  
  6320.000000   2328286   2327241   2326096   2324888   2323665  
  6310.000000   2322484   2321381   2320369   2319420   2318486  
  6300.000000   2317501   2316419   2315215   2313903   2312508  
  6290.000000   2311072   2309619   2308162   2306694   2305210  
  6280.000000   2303701   2302171   2300624   2299065   2297487  
  6270.000000   2295881   2294235   2292549   2290837   2289129  
  6260.000000   2287451   2285820   2284227   2282642   2281026  
  6250.000000   2279349   2277602   2275811   2274015   2272258  
  6240.000000   2270563   2268930   2267331   2265730   2264093  
  6230.000000   2262403   2260656   2258861   2257023   2255144  
  6220.000000   2253217   2251244   2249235   2247220   2245237  
  6210.000000   2243328   2241516   2239809   2238187   2236622  
  6200.000000   2235081   2233542   2231989   2230413   2228806  
  6190.000000   2227151   2225435   2223646   2221787   2219877  
  6180.000000   2217950   2216043   2214189   2212410   2210713  
  6170.000000   2209097   2207555   2206082   2204669   2203303  
  6160.000000   2201964   2200625   2199259   2197848   2196394  
  6150.000000   2194914   2193439   2191994   2190596   2189239  
  6140.000000   2187905   2186567   2185209   2183827   2182436  
  6130.000000   2181057   2179712   2178415   2177170   2175969  
  6120.000000   2174807   2173674   2172570   2171486   2170417  
  6110.000000   2169344   2168257   2167142   2166005   2164860  
  6100.000000   2163741   2162680   2161709   2160843   2160084  
  6090.000000   2159418   2158828   2158292   2157798   2157329  
  6080.000000   2156884   2156453   2156036   2155623   2155213  
  6070.000000   2154796   2154371   2153925   2153468   2153002  
  6060.000000   2152560   2152178   2151909   2151792   2151862  
  6050.000000   2152112   2152521   2153035   2153613   2154215  
  6040.000000   2154842   2155507   2156255   2157115   2158115  
  6030.000000   2159245   2160490   2161812   2163186   2164582  
  6020.000000   2165994   2167407   2168816   2170201   2171553  
  6010.000000   2172857   2174121   2175353   2176587   2177842  
  6000.000000   2179144   2180497   2181905   2183360   2184870  
  5990.000000   2186441   2188097   2189858   2191746   2193766  
  5980.000000   2195919   2198190   2200568   2203031   2205572  
  5970.000000   2208166   2210809   2213476   2216169   2218876  
  5960.000000   2221613   2224383   2227204   2230068   2232976  
  5950.000000   2235906   2238849   2241800   2244777   2247806  
  5940.000000   2250922   2254150   2257499   2260952   2264478  
  5930.000000   2268038   2271600   2275142   2278653   2282123  
  5920.000000   2285542   2288890   2292147   2295297   2298335  
  5910.000000   2301275   2304138   2306949   2309720   2312456  
  5900.000000   2315153   2317809   2320432   2323049   2325692  
  5890.000000   2328399   2331184   2334050   2336967   2339902  
  5880.000000   2342810   2345655   2348408   2351045   2353540  
  5870.000000   2355870   2358013   2359964   2361743   2363397  
  5860.000000   2364999   2366629   2368354   2370218   2372231  
  5850.000000   2374376   2376617   2378918   2381244   2383572  
  5840.000000   2385886   2388183   2390464   2392736   2395016  
  5830.000000   2397318   2399653   2402013   2404377   2406702  
  5820.000000   2408944   2411072   2413074   2414973   2416809  
  5810.000000   2418638   2420494   2422402   2424348   2426317  
  5800.000000   2428266   2430185   2432039   2433833   2435534  
  5790.000000   2437134   2438586   2439866   2440924   2441737  
  5780.000000   2442262   2442475   2442331   2441806   2440873  
  5770.000000   2439553   2437889   2435986   2433954   2431925  
  5760.000000   2429991   2428222   2426628   2425207   2423928  
  5750.000000   2422777   2421738   2420813   2419994   2419269  
  5740.000000   2418617   2418009   2417431   2416874   2416356  
  5730.000000   2415890   2415497   2415177   2414926   2414721  
  5720.000000   2414548   2414388   2414239   2414095   2413958  
  5710.000000   2413817   2413666   2413500   2413330   2413179  
  5700.000000   2413079   2413060   2413132   2413283   2413476  
  5690.000000   2413669   2413821   2413917   2413954   2413955  
  5680.000000   2413932   2413898   2413837   2413730   2413538  
  5670.000000   2413237   2412802   2412225   2411495   2410611  
  5660.000000   2409564   2408360   2407008   2405540   2403992  
  5650.000000   2402413   2400842   2399313   2397843   2396445  
  5640.000000   2395119   2393871   2392697   2391589   2390526  
  5630.000000   2389479   2388419   2387325   2386200   2385065  
  5620.000000   2383960   2382922   2381977   2381124   2380342  
  5610.000000   2379592   2378842   2378065   2377256   2376419  
  5600.000000   2375565   2374699   2373821   2372933   2372036  
  5590.000000   2371145   2370275   2369445   2368659   2367909  
  5580.000000   2367171   2366419   2365627   2364789   2363904  
  5570.000000   2362984   2362033   2361047   2360012   2358911  
  5560.000000   2357734   2356484   2355180   2353850   2352525  
  5550.000000   2351229   2349976   2348776   2347632   2346547  
  5540.000000   2345519   2344541   2343594   2342650   2341677  
  5530.000000   2340654   2339575   2338457   2337331   2336228  
  5520.000000   2335168   2334152   2333161   2332169   2331152  
  5510.000000   2330100   2329015   2327910   2326795   2325673  
  5500.000000   2324539   2323388   2322219   2321045   2319885  
  5490.000000   2318761   2317677   2316624   2315567   2314473  
  5480.000000   2313302   2312039   2310683   2309251   2307766  
  5470.000000   2306252   2304720   2303179   2301626   2300062  
  5460.000000   2298474   2296850   2295168   2293405   2291543  
  5450.000000   2289585   2287552   2285494   2283465   2281516  
  5440.000000   2279675   2277943   2276300   2274715   2273167  
  5430.000000   2271641   2270140   2268658   2267190   2265713  
  5420.000000   2264220   2262706   2261210   2259782   2258500  
  5410.000000   2257415   2256558   2255896   2255388   2254960  
  5400.000000   2254582   2254231   2253944   2253752   2253714  
  5390.000000   2253844   2254162   2254645   2255298   2256104  
  5380.000000   2257087   2258243   2259592   2261106   2262779  
  5370.000000   2264562   2266458   2268440   2270548   2272776  
  5360.000000   2275176   2277734   2280498   2283455   2286675  
  5350.000000   2290172   2294044   2298304   2303026   2308172  
  5340.000000   2313767   2319736   2326109   2332832   2339970  
  5330.000000   2347490   2355461   2363831   2372657   2381883  
  5320.000000   2391590   2401762   2412527   2423888   2435977  
  5310.000000   2448765   2462336   2476612   2491651   2507374  
  5300.000000   2523858   2541058   2559086   2577921   2597675  
  5290.000000   2618308   2639875   2662262   2685433   2709218  
  5280.000000   2733565   2758360   2783650   2809441   2835859  
  5270.000000   2862928   2890672   2918960   2947621   2976418  
  5260.000000   3005164   3033756   3062189   3090543   3118879  
  5250.000000   3147234   3175495   3203514   3231019   3257853  
  5240.000000   3283836   3309010   3333385   3357144   3380327  
  5230.000000   3403059   3425248   3446874   3467735   3487780  
  5220.000000   3506857   3525034   3542289   3558808   3574628  
  5210.000000   3589921   3604647   3618852   3632372   3645183  
  5200.000000   3657118   3668230   3678467   3687981   3696775  
  5190.000000   3704984   3712548   3719518   3725778   3731362  
  5180.000000   3736191   3740354   3743823   3746706   3748963  
  5170.000000   3750667   3751757   3752304   3752276   3751778  
  5160.000000   3750807   3749464   3747717   3745614   3743086  
  5150.000000   3740160   3736779   3732995   3728787   3724222  
  5140.000000   3719294   3714068   3708544   3702799   3696850  
  5130.000000   3690777   3684593   3678340   3671992   3665548  
  5120.000000   3658961   3652234   3645357   3638370   3631299  
  5110.000000   3624197   3617084   3609989   3602913   3595870  
  5100.000000   3588858   3581888   3574954   3568056   3561169  
  5090.000000   3554278   3547362   3540419   3533455   3526493  
  5080.000000   3519553   3512649   3505773   3498906   3492013  
  5070.000000   3485069   3478049   3470955   3463794   3456591  
  5060.000000   3449362   3442133   3434910   3427704   3420509  
  5050.000000   3413323   3406129   3398914   3391655   3384336  
  5040.000000   3376945   3369485   3361968   3354412   3346841  
  5030.000000   3339271   3331715   3324182   3316689   3309254  
  5020.000000   3301912   3294693   3287636   3280752   3274049  
  5010.000000   3267501   3261090   3254777   3248561   3242430  
  5000.000000   3236418   3230540   3224847   3219346   3214075  
  4990.000000   3209020   3204206   3199610   3195257   3191125  
  4980.000000   3187243   3183587   3180186   3177017   3174117  
  4970.000000   3171469   3169118   3167047   3165295   3163829  
  4960.000000   3162673   3161785   3161190   3160860   3160843  
  4950.000000   3161125   3161762   3162733   3164075   3165742  
  4940.000000   3167753   3170053   3172670   3175568   3178794  
  4930.000000   3182331   3186230   3190471   3195094   3200062  
  4920.000000   3205399   3211059   3217054   3223335   3229913  
  4910.000000   3236748   3243854   3251202   3258804   3266632  
  4900.000000   3274685   3282923   3291328   3299859   3308493  
  4890.000000   3317201   3325960   3334745   3343518   3352241  
  4880.000000   3360855   3369315   3377558   3385556   3393264  
  4870.000000   3400681   3407775   3414560   3421008   3427139  
  4860.000000   3432929   3438406   3443554   3448405   3452942  
  4850.000000   3457196   3461153   3464851   3468290   3471526  
  4840.000000   3474576   3477503   3480315   3483053   3485704  
  4830.000000   3488278   3490750   3493126   3495388   3497554  
  4820.000000   3499620   3501608   3503521   3505378   3507183  
  4810.000000   3508954   3510696   3512424   3514138   3515844  
  4800.000000   3517532   3519199   3520835   3522438   3524003  
  4790.000000   3525539   3527049   3528545   3530033   3531524  
  4780.000000   3533016   3534514   3536006   3537487   3538933  
  4770.000000   3540333   3541661   3542913   3544077   3545163  
  4760.000000   3546170   3547111   3547977   3548767   3549452  
  4750.000000   3550017   3550426   3550670   3550727   3550607  
  4740.000000   3550310   3549865   3549286   3548605   3547834  
  4730.000000   3546998   3546099   3545150   3544143   3543079  
  4720.000000   3541951   3540762   3539516   3538226   3536910  
  4710.000000   3535592   3534298   3533054   3531885   3530806  
  4700.000000   3529832   3528965   3528205   3527543   3526977  
  4690.000000   3526502   3526125   3525851   3525694   3525653  
  4680.000000   3525729   3525890   3526106   3526323   3526501  
  4670.000000   3526595   3526597   3526503   3526347   3526157  
  4660.000000   3525988   3525874   3525862   3525980   3526261  
  4650.000000   3526721   3527374   3528214   3529230   3530391  
  4640.000000   3531667   3533027   3534453   3535936   3537483  
  4630.000000   3539097   3540780   3542518   3544282   3546027  
  4620.000000   3547705   3549270   3550687   3551936   3553009  
  4610.000000   3553915   3554665   3555291   3555818   3556287  
  4600.000000   3556725   3557165   3557610   3558064   3558497  
  4590.000000   3558887   3559191   3559393   3559464   3559407  
  4580.000000   3559208   3558872   3558386   3557755   3556970  
  4570.000000   3556048   3555000   3553861   3552650   3551397  
  4560.000000   3550106   3548783   3547418   3546010   3544558  
  4550.000000   3543075   3541572   3540066   3538560   3537054  
  4540.000000   3535538   3534003   3532448   3530877   3529313  
  4530.000000   3527770   3526283   3524863   3523543   3522330  
  4520.000000   3521259   3520335   3519599   3519043   3518703  
  4510.000000   3518554   3518634   3518920   3519477   3520310  
  4500.000000   3521513   3523104   3525177   3527726   3530827  
  4490.000000   3534451   3538666   3543447   3548868   3554906  
  4480.000000   3561625   3568977   3576997   3585612   3594840  
  4470.000000   3604605   3614923   3625721   3637005   3648692  
  4460.000000   3660769   3673145   3685799   3698654   3711696  
  4450.000000   3724871   3738169   3751548   3764998   3778491  
  4440.000000   3792016   3805566   3819129   3832705   3846264  
  4430.000000   3859795   3873236   3886566   3899706   3912643  
  4420.000000   3925295   3937663   3949660   3961278   3972414  
  4410.000000   3983038   3993033   4002364   4010921   4018698  
  4400.000000   4025626   4031748   4037057   4041655   4045594  
  4390.000000   4049019   4052018   4054742   4057273   4059728  
  4380.000000   4062149   4064602   4067103   4069691   4072382  
  4370.000000   4075222   4078240   4081480   4084970   4088732  
  4360.000000   4092780   4097121   4101753   4106678   4111860  
  4350.000000   4117281   4122857   4128544   4134238   4139918  
  4340.000000   4145520   4151056   4156464   4161679   4166492  
  4330.000000   4170630   4173692   4175301   4175120   4173023  
  4320.000000   4169092   4163691   4157338   4150678   4144277  
  4310.000000   4138603   4133887   4130203   4127431   4125405  
  4300.000000   4123910   4122790   4121926   4121253   4120746  
  4290.000000   4120380   4120165   4120083   4120162   4120401  
  4280.000000   4120836   4121472   4122320   4123374   4124611  
  4270.000000   4126015   4127543   4129154   4130748   4132195  
  4260.000000   4133292   4133809   4133506   4132202   4129807  
  4250.000000   4126375   4122085   4117233   4112147   4107167  
  4240.000000   4102539   4098435   4094890   4091875   4089276  
  4230.000000   4086976   4084844   4082784   4080726   4078627  
  4220.000000   4076483   4074295   4072110   4069957   4067910  
  4210.000000   4066000   4064293   4062795   4061537   4060496  
  4200.000000   4059673   4059034   4058573   4058257   4058092  
  4190.000000   4058044   4058132   4058330   4058670   4059138  
  4180.000000   4059779   4060582   4061595   4062803   4064258  
  4170.000000   4065957   4067974   4070333   4073132   4076397  
  4160.000000   4080211   4084554   4089455   4094837   4100696  
  4150.000000   4106945   4113596   4120592   4127983   4135741  
  4140.000000   4143933   4152535   4161606   4171112   4181096  
  4130.000000   4191509   4202379   4213645   4225324   4237359  
  4120.000000   4249773   4262533   4275682   4289212   4303174  
  4110.000000   4317554   4332376   4347590   4363167   4379016  
  4100.000000   4395078   4411265   4427538   4443859   4460240  
  4090.000000   4476694   4493256   4509950   4526785   4543767  
  4080.000000   4560869   4578085   4595370   4612710   4630040  
  4070.000000   4647324   4664460   4681395   4698018   4714301  
  4060.000000   4730162   4745621   4760616   4775177   4789228  
  4050.000000   4802797   4815806   4828312   4840262   4851742  
  4040.000000   4862692   4873173   4883073   4892413   4901055  
  4030.000000   4909022   4916195   4922617   4928190   4932951  
  4020.000000   4936787   4939756   4941840   4943139   4943613  
  4010.000000   4943413   4942614   4941230   4939017   4936052  
  4000.000000   4932710  
##END= 
