##TITLE= Sample 008 By ssteindl date Montag, November 19 2018
##JCAMP-DX= 4.24
##DATA TYPE= INFRARED SPECTRUM
##ORIGIN= Exported PE Spectrum Data File
##OWNER= Sandra Steindl
##DATE= 18/11/19
##TIME= 15:57:46.00
##SPECTROMETER/DATA SYSTEM= PERKIN-ELMER Frontier FT-IR/NIR IR
##INSTRUMENT PARAMETERS=
  APODIZATION=stark
  DETECTOR=INGAAS
##RESOLUTION= 16.000000
##DELTAX= -2.000000
##XUNITS= 1/CM
##YUNITS= A
##XFACTOR= 1.00
##YFACTOR= 0.00000000023841857910
##FIRSTX= 10000.00
##LASTX= 4000.00
##NPOINTS= 3001
##FIRSTY= 0.065399
##MAXY= 0.422355
##MINY= 0.029510
##XYDATA= (X++(Y..Y))
 10000.000000   0274303923   0276339687   0278705330   0281509821   0284052790  
  9990.000000   0285391466   0285131282   0283547512   0281137972   0278435401  
  9980.000000   0275909512   0273849385   0272172116   0270617154   0268977147  
  9970.000000   0267300810   0265817444   0264851096   0264578319   0264903362  
  9960.000000   0265430630   0265638658   0265109075   0263716315   0261704261  
  9950.000000   0259546785   0257762887   0256655824   0256239935   0256256643  
  9940.000000   0256370900   0256358701   0256220872   0256147487   0256356740  
  9930.000000   0256925313   0257724975   0258469840   0258911067   0258946917  
  9920.000000   0258722035   0258494838   0258504405   0258777919   0259096190  
  9910.000000   0259102863   0258504738   0257313028   0255888156   0254881066  
  9900.000000   0254926611   0256401527   0259183525   0262689296   0266040023  
  9890.000000   0268379426   0269184148   0268374859   0266328155   0263591429  
  9880.000000   0260706081   0257967211   0255446277   0253066429   0250755506  
  9870.000000   0248587246   0246761651   0245603959   0245386177   0246312813  
  9860.000000   0248398584   0251520657   0255395984   0259612606   0263681281  
  9850.000000   0267023999   0269121204   0269525576   0268074725   0264905285  
  9840.000000   0260556769   0255836507   0251673426   0248861128   0247844521  
  9830.000000   0248658984   0250913615   0254029917   0257331683   0260316454  
  9820.000000   0262646349   0264243674   0265186055   0265652447   0265842405  
  9810.000000   0265880904   0265817158   0265555920   0264924509   0263686008  
  9800.000000   0261655711   0258797885   0255292325   0251571876   0248202662  
  9790.000000   0245760485   0244610776   0244795267   0245992621   0247615028  
  9780.000000   0248993203   0249568653   0249058381   0247514271   0245295578  
  9770.000000   0242944708   0241036163   0240027234   0240164538   0241449319  
  9760.000000   0243654402   0246382723   0249140549   0251436240   0252871965  
  9750.000000   0253240612   0252565266   0251092125   0249197977   0247252920  
  9740.000000   0245506361   0244003018   0242639266   0241234443   0239668857  
  9730.000000   0237952902   0236218152   0234676641   0233479329   0232689003  
  9720.000000   0232213869   0231910199   0231640700   0231380079   0231224813  
  9710.000000   0231323008   0231790374   0232573812   0233478135   0234168556  
  9700.000000   0234352828   0233841165   0232655893   0230971998   0229058590  
  9690.000000   0227177460   0225529615   0224271380   0223539476   0223491702  
  9680.000000   0224275446   0225957146   0228437402   0231389714   0234300900  
  9670.000000   0236579690   0237734222   0237539332   0236113134   0233900624  
  9660.000000   0231518215   0229582811   0228532890   0228555208   0229576361  
  9650.000000   0231337729   0233458485   0235522366   0237090196   0237780277  
  9640.000000   0237279398   0235467650   0232451720   0228623797   0224601322  
  9630.000000   0221073171   0218637060   0217566771   0217771576   0218770879  
  9620.000000   0219888709   0220433266   0219926537   0218229187   0215574697  
  9610.000000   0212491716   0209655335   0207722991   0207183334   0208268430  
  9600.000000   0210905773   0214741171   0219210549   0223657917   0227485818  
  9590.000000   0230276736   0231868912   0232353458   0231986133   0231073595  
  9580.000000   0229852300   0228437752   0226847052   0225071728   0223169169  
  9570.000000   0221309524   0219730761   0218651573   0218117884   0217957902  
  9560.000000   0217786644   0217158270   0215737340   0213453994   0210553408  
  9550.000000   0207522244   0204919783   0203199396   0202576757   0203018707  
  9540.000000   0204311332   0206178101   0208368641   0210687355   0212959262  
  9530.000000   0214978410   0216486200   0217213237   0216982435   0215791220  
  9520.000000   0213883518   0211672976   0209648914   0208175800   0207384589  
  9510.000000   0207126264   0207051488   0206777802   0206037308   0204786599  
  9500.000000   0203197843   0201572370   0200223245   0199352069   0199010651  
  9490.000000   0199097178   0199437609   0199854221   0200240624   0200579812  
  9480.000000   0200934257   0201416410   0202147197   0203233186   0204730115  
  9470.000000   0206612052   0208754427   0210915713   0212791036   0214054773  
  9460.000000   0214469201   0213947628   0212603084   0210727310   0208708310  
  9450.000000   0206931314   0205668348   0205040094   0204995189   0205381374  
  9440.000000   0205972620   0206566623   0206981204   0207117880   0206929361  
  9430.000000   0206451022   0205769414   0205021771   0204356131   0203888037  
  9420.000000   0203654910   0203582655   0203505225   0203219648   0202569248  
  9410.000000   0201518703   0200165982   0198722449   0197412632   0196396655  
  9400.000000   0195698393   0195203507   0194730205   0194103690   0193253787  
  9390.000000   0192219339   0191122359   0190092093   0189192251   0188407766  
  9380.000000   0187665576   0186903056   0186150422   0185540079   0185297023  
  9370.000000   0185597290   0186479930   0187757963   0189063731   0189955264  
  9360.000000   0190078970   0189301418   0187793663   0185989683   0184474389  
  9350.000000   0183772186   0184171267   0185616693   0187735422   0189974007  
  9340.000000   0191772050   0192733686   0192719642   0191875575   0190558700  
  9330.000000   0189216133   0188235786   0187834915   0188028772   0188651216  
  9320.000000   0189435847   0190088922   0190362098   0190122571   0189368266  
  9310.000000   0188245893   0186988039   0185871942   0185146225   0184972687  
  9300.000000   0185380631   0186229408   0187239642   0188055260   0188365002  
  9290.000000   0188000940   0187005860   0185625799   0184240265   0183248267  
  9280.000000   0182931337   0183352531   0184334216   0185532397   0186583764  
  9270.000000   0187229095   0187395955   0187193280   0186837584   0186553778  
  9260.000000   0186463741   0186557693   0186711596   0186769637   0186640196  
  9250.000000   0186341355   0186001711   0185784525   0185795628   0186030644  
  9240.000000   0186348079   0186545237   0186423353   0185891865   0185004554  
  9230.000000   0183955042   0183000507   0182362761   0182138601   0182278886  
  9220.000000   0182609684   0182895612   0182921495   0182553484   0181796121  
  9210.000000   0180760738   0179628999   0178576231   0177723699   0177113144  
  9200.000000   0176711950   0176454151   0176283591   0176187732   0176206177  
  9190.000000   0176418851   0176898021   0177664196   0178639302   0179659373  
  9180.000000   0180512448   0181002196   0181014955   0180558571   0179763225  
  9170.000000   0178832666   0177962688   0177284727   0176826426   0176533761  
  9160.000000   0176303119   0176036032   0175666145   0175177779   0174575273  
  9150.000000   0173863163   0173012983   0171990964   0170787403   0169457372  
  9140.000000   0168128504   0166970824   0166145885   0165736860   0165712105  
  9130.000000   0165921171   0166152629   0166207674   0165983411   0165491869  
  9120.000000   0164854935   0164227566   0163748914   0163469757   0163368290  
  9110.000000   0163360490   0163377899   0163383738   0163402270   0163481353  
  9100.000000   0163669107   0163979916   0164387041   0164844825   0165310076  
  9090.000000   0165772186   0166250688   0166783454   0167396321   0168077663  
  9080.000000   0168770550   0169389582   0169850045   0170097102   0170115975  
  9070.000000   0169930869   0169581993   0169113184   0168552120   0167931588  
  9060.000000   0167283847   0166664545   0166125724   0165715815   0165450664  
  9050.000000   0165311784   0165245363   0165171371   0165011375   0164703079  
  9040.000000   0164225159   0163580712   0162801805   0161938489   0161068249  
  9030.000000   0160286273   0159694930   0159400766   0159485596   0159985789  
  9020.000000   0160855470   0161985239   0163218380   0164384009   0165330374  
  9010.000000   0165947707   0166203657   0166103974   0165700172   0165043286  
  9000.000000   0164207227   0163257748   0162262470   0161289425   0160412357  
  8990.000000   0159715792   0159277841   0159176615   0159463163   0160159361  
  8980.000000   0161215759   0162521445   0163887246   0165093361   0165924624  
  8970.000000   0166248578   0166059780   0165493061   0164787783   0164208129  
  8960.000000   0163958822   0164098930   0164523273   0164988984   0165211916  
  8950.000000   0164959860   0164133237   0162788693   0161113214   0159361372  
  8940.000000   0157780734   0156555343   0155780606   0155474868   0155596356  
  8930.000000   0156067573   0156776875   0157604054   0158428802   0159159165  
  8920.000000   0159751721   0160220793   0160645129   0161104804   0161656376  
  8910.000000   0162254766   0162784095   0163060787   0162934438   0162347399  
  8900.000000   0161390826   0160293819   0159350211   0158842403   0158935256  
  8890.000000   0159643102   0160816595   0162223381   0163612677   0164790636  
  8880.000000   0165633414   0166096401   0166190670   0165966915   0165502034  
  8870.000000   0164897326   0164277190   0163766960   0163459806   0163380021  
  8860.000000   0163464418   0163581451   0163573631   0163334926   0162845456  
  8850.000000   0162194591   0161522804   0160969263   0160600883   0160389345  
  8840.000000   0160239693   0160040071   0159740493   0159368687   0159022364  
  8830.000000   0158806658   0158768511   0158869907   0158994555   0159017612  
  8820.000000   0158876696   0158614465   0158385536   0158370919   0158712241  
  8810.000000   0159404478   0160296968   0161113601   0161569209   0161468924  
  8800.000000   0160796503   0159720193   0158546043   0157624589   0157253077  
  8790.000000   0157600046   0158667883   0160304055   0162249560   0164196882  
  8780.000000   0165861705   0167024387   0167578611   0167545246   0167069839  
  8770.000000   0166386675   0165752997   0165388510   0165419500   0165862476  
  8760.000000   0166634224   0167599184   0168609818   0169555266   0170356521  
  8750.000000   0170969458   0171350451   0171451488   0171232040   0170679753  
  8740.000000   0169854948   0168882072   0167940744   0167202537   0166782322  
  8730.000000   0166707555   0166916270   0167309577   0167789153   0168321157  
  8720.000000   0168921887   0169646525   0170516735   0171493192   0172463105  
  8710.000000   0173275637   0173809575   0174012632   0173938572   0173701052  
  8700.000000   0173431625   0173202307   0173004975   0172760294   0172378677  
  8690.000000   0171821985   0171145530   0170489993   0170027742   0169891115  
  8680.000000   0170110515   0170608525   0171232417   0171823729   0172284374  
  8670.000000   0172606380   0172872440   0173194940   0173669263   0174321344  
  8660.000000   0175107042   0175934243   0176702752   0177349339   0177861414  
  8650.000000   0178274938   0178648390   0179038330   0179485375   0179999616  
  8640.000000   0180564861   0181129953   0181618418   0181924511   0181940711  
  8630.000000   0181588296   0180864008   0179868409   0178800540   0177924556  
  8620.000000   0177492090   0177672476   0178486570   0179797570   0181352200  
  8610.000000   0182856937   0184079438   0184896299   0185326459   0185479031  
  8600.000000   0185510687   0185549014   0185670841   0185893083   0186209811  
  8590.000000   0186621927   0187163202   0187890860   0188858976   0190084063  
  8580.000000   0191515596   0193037114   0194482659   0195685229   0196519217  
  8570.000000   0196929705   0196946941   0196675683   0196276921   0195932701  
  8560.000000   0195801334   0196001274   0196566288   0197458013   0198544006  
  8550.000000   0199660426   0200636718   0201353155   0201760930   0201887781  
  8540.000000   0201828642   0201673887   0201486774   0201249685   0200910123  
  8530.000000   0200385263   0199639081   0198720292   0197782782   0197063428  
  8520.000000   0196791264   0197158567   0198231714   0199968457   0202191821  
  8510.000000   0204668079   0207147771   0209410601   0211289170   0212656216  
  8500.000000   0213445421   0213614617   0213179951   0212196637   0210800323  
  8490.000000   0209174819   0207543447   0206122571   0205081131   0204525726  
  8480.000000   0204467109   0204859254   0205591393   0206550352   0207616803  
  8470.000000   0208691499   0209690288   0210546786   0211228550   0211718996  
  8460.000000   0212038236   0212224656   0212349579   0212482969   0212685370  
  8450.000000   0212995492   0213435331   0214014532   0214724542   0215548672  
  8440.000000   0216445796   0217352647   0218166040   0218768832   0219051115  
  8430.000000   0218954471   0218495673   0217781034   0216981478   0216292411  
  8420.000000   0215865197   0215769731   0215966153   0216338684   0216734036  
  8410.000000   0217021378   0217126561   0217050917   0216849292   0216594213  
  8400.000000   0216328893   0216062714   0215773812   0215446752   0215090210  
  8390.000000   0214758590   0214538836   0214522758   0214761783   0215234605  
  8380.000000   0215837433   0216411365   0216782941   0216810477   0216418962  
  8370.000000   0215621976   0214522665   0213281866   0212085053   0211101649  
  8360.000000   0210460620   0210219989   0210350082   0210740160   0211217950  
  8350.000000   0211599395   0211728565   0211532018   0211039095   0210384443  
  8340.000000   0209763184   0209364811   0209303456   0209576537   0210068581  
  8330.000000   0210587680   0210938333   0210985000   0210703411   0210173671  
  8320.000000   0209540580   0208946825   0208478024   0208133895   0207845975  
  8310.000000   0207515067   0207075020   0206522518   0205929005   0205411567  
  8300.000000   0205076073   0204987859   0205128233   0205430653   0205790826  
  8290.000000   0206128089   0206402359   0206626565   0206845340   0207091545  
  8280.000000   0207355730   0207563608   0207598774   0207333331   0206682198  
  8270.000000   0205630699   0204257565   0202718620   0201212828   0199934745  
  8260.000000   0199017591   0198517432   0198393314   0198543407   0198821664  
  8250.000000   0199090437   0199243250   0199233519   0199069824   0198802274  
  8240.000000   0198493425   0198193416   0197924892   0197676838   0197417134  
  8230.000000   0197105749   0196719214   0196259903   0195757710   0195255874  
  8220.000000   0194788302   0194363695   0193955208   0193508226   0192958816  
  8210.000000   0192259043   0191400201   0190424804   0189415267   0188479732  
  8200.000000   0187710302   0187173766   0186880180   0186803018   0186874921  
  8190.000000   0187022892   0187171788   0187262434   0187244315   0187074329  
  8180.000000   0186714995   0186132273   0185313358   0184262699   0183024228  
  8170.000000   0181661229   0180260523   0178902074   0177648264   0176534457  
  8160.000000   0175564117   0174733700   0174031693   0173467646   0173056786  
  8150.000000   0172824648   0172782614   0172914778   0173171385   0173463959  
  8140.000000   0173690801   0173745028   0173552164   0173072320   0172324238  
  8130.000000   0171368651   0170311246   0169271678   0168371152   0167701793  
  8120.000000   0167307523   0167171948   0167212051   0167305199   0167313998  
  8110.000000   0167137624   0166738652   0166161293   0165514307   0164932899  
  8100.000000   0164529614   0164348552   0164349297   0164414834   0164403168  
  8090.000000   0164195373   0163753276   0163123215   0162423296   0161786741  
  8080.000000   0161311371   0161022708   0160866511   0160744708   0160555109  
  8070.000000   0160249817   0159845125   0159430173   0159114331   0158998120  
  8060.000000   0159118278   0159439853   0159859833   0160232249   0160416596  
  8050.000000   0160293605   0159804402   0158934508   0157727452   0156261791  
  8040.000000   0154654028   0153044252   0151585682   0150426703   0149680248  
  8030.000000   0149406305   0149584657   0150128050   0150888485   0151704305  
  8020.000000   0152427629   0152960332   0153264211   0153350558   0153268377  
  8010.000000   0153065982   0152790667   0152461427   0152096168   0151699947  
  8000.000000   0151291026   0150887592   0150507689   0150161043   0149836309  
  7990.000000   0149517425   0149179727   0148822230   0148464316   0148158491  
  7980.000000   0147965959   0147939403   0148090882   0148380845   0148719222  
  7970.000000   0148990058   0149089244   0148955280   0148593011   0148064636  
  7960.000000   0147467965   0146898532   0146417175   0146036023   0145723427  
  7950.000000   0145428193   0145110865   0144760547   0144404017   0144082727  
  7940.000000   0143834039   0143660829   0143529550   0143377293   0143143295  
  7930.000000   0142797017   0142359672   0141905435   0141539505   0141368689  
  7920.000000   0141464143   0141843155   0142462828   0143232340   0144036635  
  7910.000000   0144754455   0145282681   0145541466   0145490909   0145129003  
  7900.000000   0144504319   0143705530   0142859024   0142099139   0141543752  
  7890.000000   0141261552   0141252696   0141454571   0141756214   0142044639  
  7880.000000   0142231766   0142288110   0142240283   0142155029   0142109903  
  7870.000000   0142154984   0142301845   0142511576   0142722751   0142867586  
  7860.000000   0142905252   0142832200   0142683956   0142526833   0142430893  
  7850.000000   0142459640   0142641231   0142972161   0143407980   0143879161  
  7840.000000   0144303690   0144603240   0144724165   0144641532   0144368141  
  7830.000000   0143942356   0143418273   0142850714   0142282473   0141747011  
  7820.000000   0141266397   0140869591   0140587026   0140461222   0140520582  
  7810.000000   0140776313   0141192643   0141694787   0142170854   0142502599  
  7800.000000   0142596793   0142407179   0141954690   0141308445   0140574326  
  7790.000000   0139851870   0139217136   0138701429   0138298111   0137977099  
  7780.000000   0137704123   0137462040   0137250972   0137093510   0137011026  
  7770.000000   0137022645   0137121958   0137286980   0137476681   0137647519  
  7760.000000   0137764194   0137804706   0137768226   0137662451   0137502311  
  7750.000000   0137293094   0137030101   0136695210   0136267873   0135735861  
  7740.000000   0135108914   0134425152   0133746420   0133146954   0132688798  
  7730.000000   0132408288   0132298424   0132317745   0132397599   0132469253  
  7720.000000   0132480111   0132409199   0132267594   0132086681   0131905994  
  7710.000000   0131751582   0131634815   0131543006   0131454674   0131339947  
  7700.000000   0131176163   0130948152   0130655795   0130312693   0129947625  
  7690.000000   0129600168   0129315811   0129133537   0129075495   0129134929  
  7680.000000   0129274857   0129436003   0129552643   0129578060   0129496443  
  7670.000000   0129335944   0129153195   0129020711   0128996917   0129108724  
  7660.000000   0129340496   0129635999   0129917033   0130098985   0130115579  
  7650.000000   0129926825   0129528356   0128946817   0128235607   0127467033  
  7640.000000   0126722263   0126082170   0125611929   0125351623   0125302785  
  7630.000000   0125431720   0125671639   0125945547   0126179842   0126326365  
  7620.000000   0126366479   0126310129   0126186948   0126029025   0125866232  
  7610.000000   0125711944   0125572005   0125439334   0125308126   0125169628  
  7600.000000   0125020713   0124858523   0124684451   0124502328   0124319684  
  7590.000000   0124147890   0123998670   0123883031   0123807229   0123773231  
  7580.000000   0123780955   0123830926   0123928608   0124080966   0124292857  
  7570.000000   0124556572   0124847816   0125123615   0125334753   0125438223  
  7560.000000   0125417913   0125288702   0125098703   0124910945   0124785646  
  7550.000000   0124757853   0124826914   0124959706   0125105455   0125217552  
  7540.000000   0125271136   0125269128   0125239578   0125218167   0125236824  
  7530.000000   0125305464   0125415867   0125540338   0125652198   0125730050  
  7520.000000   0125773367   0125797917   0125836187   0125925744   0126101316  
  7510.000000   0126385453   0126784950   0127287669   0127867491   0128483004  
  7500.000000   0129089637   0129640140   0130101762   0130453886   0130701372  
  7490.000000   0130862726   0130976548   0131082386   0131222926   0131426020  
  7480.000000   0131707635   0132065744   0132487558   0132955186   0133452199  
  7470.000000   0133971747   0134515826   0135096215   0135724853   0136408658  
  7460.000000   0137140989   0137898322   0138645531   0139341070   0139954870  
  7450.000000   0140470393   0140895227   0141249642   0141563911   0141860943  
  7440.000000   0142154653   0142444556   0142727527   0143002636   0143281879  
  7430.000000   0143589453   0143955253   0144404219   0144943274   0145560786  
  7420.000000   0146230910   0146926166   0147630279   0148342175   0149074933  
  7410.000000   0149841338   0150641978   0151454164   0152238475   0152950393  
  7400.000000   0153565528   0154087018   0154553590   0155019738   0155538268  
  7390.000000   0156132325   0156784982   0157445633   0158051722   0158559464  
  7380.000000   0158963232   0159305242   0159658347   0160101311   0160684770  
  7370.000000   0161414753   0162251523   0163125646   0163965928   0164719288  
  7360.000000   0165366315   0165917632   0166401449   0166850052   0167286193  
  7350.000000   0167727279   0168188022   0168689858   0169259350   0169921028  
  7340.000000   0170682048   0171518940   0172373248   0173165041   0173816213  
  7330.000000   0174275103   0174538194   0174652229   0174705469   0174794321  
  7320.000000   0174994547   0175339927   0175819622   0176392382   0177005991  
  7310.000000   0177623129   0178232373   0178849015   0179498199   0180197376  
  7300.000000   0180942255   0181702132   0182432463   0183086764   0183640587  
  7290.000000   0184092803   0184471040   0184815322   0185168313   0185561577  
  7280.000000   0186010770   0186519173   0187081513   0187690331   0188334754  
  7270.000000   0189000634   0189667507   0190310453   0190904712   0191433345  
  7260.000000   0191896743   0192312218   0192714549   0193138346   0193613710  
  7250.000000   0194146933   0194729827   0195334582   0195937377   0196518551  
  7240.000000   0197079924   0197633365   0198202794   0198806207   0199459311  
  7230.000000   0200165930   0200933947   0201768896   0202688229   0203702164  
  7220.000000   0204818694   0206021237   0207280969   0208547853   0209779057  
  7210.000000   0210939175   0212028783   0213069613   0214111513   0215200116  
  7200.000000   0216373864   0217641550   0218993476   0220401583   0221842235  
  7190.000000   0223297471   0224769013   0226262777   0227791340   0229352043  
  7180.000000   0230933804   0232507753   0234045126   0235517506   0236914354  
  7170.000000   0238238906   0239518928   0240793549   0242116821   0243534702  
  7160.000000   0245084642   0246773553   0248584724   0250467489   0252357492  
  7150.000000   0254180379   0255884349   0257445373   0258893478   0260293644  
  7140.000000   0261745941   0263338814   0265139128   0267155303   0269353918  
  7130.000000   0271658570   0273991402   0276282651   0278504428   0280660167  
  7120.000000   0282794827   0284959952   0287211330   0289572145   0292043921  
  7110.000000   0294589343   0297162686   0299706601   0302185678   0304582627  
  7100.000000   0306917985   0309233700   0311590962   0314043971   0316629751  
  7090.000000   0319349061   0322170487   0325033245   0327871243   0330626809  
  7080.000000   0333272122   0335809925   0338273644   0340709503   0343163419  
  7070.000000   0345663089   0348214640   0350802053   0353398952   0355978126  
  7060.000000   0358521072   0361022578   0363487115   0365928096   0368357439  
  7050.000000   0370787310   0373222177   0375662935   0378103407   0380533348  
  7040.000000   0382939749   0385309187   0387631775   0389903217   0392125539  
  7030.000000   0394307331   0396458402   0398591197   0400713627   0402837069  
  7020.000000   0404968810   0407124219   0409313237   0411549942   0413833470  
  7010.000000   0416155758   0418489010   0420799071   0423045766   0425196510  
  7000.000000   0427228185   0429132624   0430911198   0432573630   0434130281  
  6990.000000   0435600193   0437006285   0438388016   0439785721   0441249334  
  6980.000000   0442810387   0444487570   0446261760   0448096700   0449933647  
  6970.000000   0451720700   0453410656   0454980861   0456421698   0457740755  
  6960.000000   0458947427   0460058434   0461092302   0462078985   0463051420  
  6950.000000   0464048749   0465095336   0466202006   0467346155   0468491117  
  6940.000000   0469584024   0470590314   0471493195   0472312277   0473082456  
  6930.000000   0473848684   0474637507   0475454962   0476277773   0477073729  
  6920.000000   0477809463   0478473333   0479070681   0479628495   0480174275  
  6910.000000   0480732812   0481310765   0481904033   0482497375   0483075220  
  6900.000000   0483622369   0484127797   0484581640   0484977875   0485313854  
  6890.000000   0485598877   0485854421   0486118233   0486432960   0486836999  
  6880.000000   0487347938   0487957829   0488631769   0489319966   0489970556  
  6870.000000   0490547175   0491036330   0491448840   0491810287   0492151000  
  6860.000000   0492495560   0492858881   0493244799   0493650793   0494069911  
  6850.000000   0494495365   0494918088   0495329951   0495719696   0496079692  
  6840.000000   0496402817   0496690173   0496945407   0497177904   0497394927  
  6830.000000   0497603862   0497806901   0498007146   0498204548   0498403512  
  6820.000000   0498605251   0498813189   0499023226   0499230182   0499422156  
  6810.000000   0499589850   0499723742   0499821073   0499881193   0499907295  
  6800.000000   0499901829   0499867706   0499807635   0499727089   0499633700  
  6790.000000   0499538422   0499450568   0499377621   0499320267   0499277121  
  6780.000000   0499243981   0499221852   0499214404   0499230625   0499276979  
  6770.000000   0499354462   0499454616   0499560125   0499651551   0499711286  
  6760.000000   0499731143   0499711030   0499657777   0499579369   0499481682  
  6750.000000   0499369255   0499248186   0499131650   0499039745   0498996987  
  6740.000000   0499021620   0499117353   0499265638   0499428576   0499558898  
  6730.000000   0499615073   0499577001   0499451404   0499270413   0499077673  
  6720.000000   0498913457   0498801750   0498745294   0498731641   0498742272  
  6710.000000   0498765071   0498797331   0498846297   0498918062   0499013276  
  6700.000000   0499117258   0499207440   0499255144   0499241203   0499159024  
  6690.000000   0499021030   0498850718   0498677540   0498522593   0498396511  
  6680.000000   0498290153   0498185144   0498051771   0497866556   0497610241  
  6670.000000   0497281920   0496890621   0496461013   0496018231   0495588117  
  6660.000000   0495182382   0494801952   0494430644   0494047140   0493625739  
  6650.000000   0493152363   0492621617   0492047214   0491448984   0490855826  
  6640.000000   0490289345   0489766140   0489287439   0488845247   0488418985  
  6630.000000   0487984220   0487512590   0486981493   0486374734   0485691150  
  6620.000000   0484942135   0484154104   0483359056   0482589789   0481868016  
  6610.000000   0481201613   0480580340   0479984091   0479386379   0478768072  
  6600.000000   0478117164   0477436214   0476733711   0476024342   0475320301  
  6590.000000   0474631334   0473961685   0473311058   0472673588   0472038215  
  6580.000000   0471388928   0470708198   0469981731   0469205266   0468388227  
  6570.000000   0467554597   0466735339   0465959978   0465243459   0464582746  
  6560.000000   0463955565   0463332469   0462687042   0462009246   0461307044  
  6550.000000   0460602644   0459920012   0459272104   0458654969   0458046453  
  6540.000000   0457419005   0456747279   0456023123   0455253048   0454459387  
  6530.000000   0453666906   0452898807   0452169430   0451486921   0450855816  
  6520.000000   0450279723   0449762671   0449304148   0448898260   0448529483  
  6510.000000   0448178461   0447825242   0447457592   0447072388   0446673349  
  6500.000000   0446264739   0445842321   0445391783   0444889522   0444313346  
  6490.000000   0443652172   0442913346   0442124045   0441321082   0440542792  
  6480.000000   0439813235   0439142364   0438521572   0437936819   0437370392  
  6470.000000   0436811458   0436251854   0435686712   0435109171   0434510442  
  6460.000000   0433883201   0433223902   0432539245   0431841199   0431147886  
  6450.000000   0430471453   0429819693   0429189686   0428577444   0427979152  
  6440.000000   0427399879   0426850253   0426345169   0425893979   0425498380  
  6430.000000   0425147839   0424827810   0424521465   0424221694   0423925956  
  6420.000000   0423641864   0423371876   0423118236   0422870736   0422619883  
  6410.000000   0422353311   0422069360   0421772873   0421478472   0421202496  
  6400.000000   0420960997   0420765509   0420624253   0420542076   0420521191  
  6390.000000   0420557386   0420637532   0420735123   0420814043   0420833615  
  6380.000000   0420761792   0420584943   0420314911   0419987125   0419649287  
  6370.000000   0419348140   0419113492   0418954492   0418857213   0418797246  
  6360.000000   0418743955   0418674398   0418569158   0418418365   0418212023  
  6350.000000   0417946234   0417619494   0417241152   0416829008   0416409192  
  6340.000000   0416006438   0415636362   0415297523   0414973402   0414637117  
  6330.000000   0414265569   0413846007   0413385255   0412902961   0412427398  
  6320.000000   0411980910   0411576374   0411211829   0410878382   0410562664  
  6310.000000   0410256739   0409954570   0409655509   0409354556   0409046507  
  6300.000000   0408720553   0408370121   0407990870   0407586463   0407161421  
  6290.000000   0406719287   0406254998   0405756928   0405207376   0404593759  
  6280.000000   0403911372   0403172854   0402400615   0401626369   0400875889  
  6270.000000   0400168534   0399507891   0398889811   0398300226   0397725997  
  6260.000000   0397152357   0396569018   0395966104   0395337932   0394682078  
  6250.000000   0394002903   0393310511   0392619294   0391942368   0391286819  
  6240.000000   0390650267   0390022266   0389389144   0388741383   0388078163  
  6230.000000   0387408527   0386746035   0386102050   0385478954   0384868102  
  6220.000000   0384253761   0383619921   0382959396   0382276582   0381587737  
  6210.000000   0380912981   0380270022   0379666166   0379098485   0378555456  
  6200.000000   0378024718   0377496441   0376967758   0376439501   0375915654  
  6190.000000   0375398192   0374888338   0374385647   0373891679   0373409211  
  6180.000000   0372942893   0372494883   0372064491   0371645512   0371230112  
  6170.000000   0370810385   0370382686   0369947808   0369509552   0369071513  
  6160.000000   0368633658   0368192581   0367743062   0367282943   0366815454  
  6150.000000   0366350348   0365899713   0365472424   0365068425   0364676871  
  6140.000000   0364279262   0363855498   0363391979   0362886060   0362347934  
  6130.000000   0361795531   0361249669   0360726443   0360236108   0359780714  
  6120.000000   0359359027   0358966046   0358598079   0358248694   0357912567  
  6110.000000   0357581017   0357248694   0356910943   0356571531   0356237262  
  6100.000000   0355922412   0355637932   0355394785   0355193469   0355032294  
  6090.000000   0354901595   0354795125   0354704501   0354627664   0354560249  
  6080.000000   0354502290   0354449245   0354402030   0354359030   0354328663  
  6070.000000   0354316610   0354336513   0354391530   0354486453   0354610601  
  6060.000000   0354756370   0354907701   0355062112   0355218316   0355393352  
  6050.000000   0355603544   0355876548   0356229084   0356680086   0357231041  
  6040.000000   0357883130   0358621076   0359432117   0360291497   0361182424  
  6030.000000   0362083277   0362988491   0363893813   0364813642   0365759554  
  6020.000000   0366752709   0367798260   0368899360   0370037451   0371194876  
  6010.000000   0372343652   0373471723   0374570809   0375655664   0376742640  
  6000.000000   0377860988   0379027809   0380261154   0381560166   0382924718  
  5990.000000   0384341256   0385805211   0387306787   0388850243   0390436252  
  5980.000000   0392077325   0393778223   0395550145   0397390831   0399300508  
  5970.000000   0401263644   0403269371   0405295553   0407332222   0409365761  
  5960.000000   0411399870   0413435649   0415486555   0417557039   0419655634  
  5950.000000   0421779008   0423926135   0426090986   0428273833   0430477633  
  5940.000000   0432709888   0434980033   0437293931   0439654230   0442053606  
  5930.000000   0444480482   0446914131   0449332397   0451706950   0454011718  
  5920.000000   0456219139   0458310143   0460270586   0462102838   0463817683  
  5910.000000   0465442076   0467001920   0468528651   0470039285   0471548865  
  5900.000000   0473053548   0474552209   0476031693   0477489646   0478915749  
  5890.000000   0480310724   0481666915   0482984917   0484258511   0485489928  
  5880.000000   0486678866   0487832360   0488954044   0490048753   0491114862  
  5870.000000   0492149501   0493147210   0494106847   0495032133   0495933766  
  5860.000000   0496826116   0497722933   0498634374   0499563889   0500511947  
  5850.000000   0501476756   0502460700   0503468811   0504511012   0505595507  
  5840.000000   0506728962   0507910781   0509137707   0510401748   0511697350  
  5830.000000   0513017468   0514358265   0515711163   0517067657   0518412922  
  5820.000000   0519735277   0521023620   0522276638   0523498595   0524700066  
  5810.000000   0525892921   0527083638   0528277966   0529470472   0530665040  
  5800.000000   0531855709   0533056112   0534264280   0535494804   0536733959  
  5790.000000   0537977164   0539186832   0540335028   0541367032   0542242052  
  5780.000000   0542900383   0543300099   0543390923   0543151026   0542567643  
  5770.000000   0541670983   0540509036   0539168068   0537731750   0536292259  
  5760.000000   0534906425   0533616942   0532423997   0531323109   0530289791  
  5750.000000   0529315294   0528388758   0527514757   0526693481   0525925690  
  5740.000000   0525204704   0524518939   0523858738   0523213573   0522583422  
  5730.000000   0521966505   0521369575   0520792386   0520238649   0519705003  
  5720.000000   0519191787   0518695284   0518214639   0517744747   0517281779  
  5710.000000   0516819011   0516354236   0515887679   0515426702   0514980700  
  5700.000000   0514558748   0514163954   0513789661   0513423381   0513046715  
  5690.000000   0512649844   0512227313   0511791595   0511355616   0510940459  
  5680.000000   0510551479   0510188896   0509830661   0509451285   0509012407  
  5670.000000   0508483198   0507831467   0507039436   0506094037   0504999516  
  5660.000000   0503768672   0502432219   0501026809   0499597257   0498179774  
  5650.000000   0496802287   0495472908   0494189290   0492938176   0491710967  
  5640.000000   0490504206   0489326714   0488192229   0487114911   0486103456  
  5630.000000   0485155847   0484266125   0483421568   0482616456   0481843117  
  5620.000000   0481102594   0480388638   0479698425   0479019474   0478346151  
  5610.000000   0477671544   0477002842   0476349417   0475728977   0475151609  
  5600.000000   0474623359   0474137678   0473685191   0473254251   0472840392  
  5590.000000   0472444140   0472071259   0471724133   0471399853   0471085473  
  5580.000000   0470764673   0470419965   0470042544   0469631067   0469193629  
  5570.000000   0468739708   0468277655   0467810646   0467338737   0466863178  
  5560.000000   0466388763   0465926942   0465490017   0465088915   0464724603  
  5550.000000   0464389492   0464066596   0463737983   0463388609   0463011601  
  5540.000000   0462607157   0462179185   0461731650   0461265580   0460780542  
  5530.000000   0460277520   0459761107   0459241868   0458731296   0458241278  
  5520.000000   0457776260   0457336965   0456917192   0456512470   0456117203  
  5510.000000   0455729700   0455344440   0454953216   0454539666   0454085465  
  5500.000000   0453573176   0452997041   0452364565   0451699227   0451029285  
  5490.000000   0450380915   0449764727   0449177098   0448599621   0448012648  
  5480.000000   0447399003   0446754679   0446082725   0445394105   0444695861  
  5470.000000   0443993224   0443285175   0442572990   0441859401   0441152634  
  5460.000000   0440459817   0439783580   0439116830   0438443792   0437745608  
  5450.000000   0437007639   0436227175   0435414024   0434587975   0433768410  
  5440.000000   0432970084   0432196806   0431450333   0430730963   0430049179  
  5430.000000   0429417083   0428849033   0428343841   0427888535   0427451124  
  5420.000000   0427002865   0426520250   0426010976   0425501612   0425044090  
  5410.000000   0424679771   0424437230   0424304598   0424253457   0424235268  
  5400.000000   0424221327   0424193607   0424170890   0424176147   0424246841  
  5390.000000   0424394970   0424626619   0424919552   0425262018   0425637154  
  5380.000000   0426058740   0426539257   0427112843   0427791711   0428593252  
  5370.000000   0429502355   0430514905   0431603105   0432766418   0433985025  
  5360.000000   0435272158   0436616040   0438039986   0439540190   0441153613  
  5350.000000   0442888227   0444791190   0446869056   0449158979   0451645727  
  5340.000000   0454346934   0457232939   0460324055   0463599486   0467093509  
  5330.000000   0470789631   0474720014   0478855202   0483216599   0487769643  
  5320.000000   0492548161   0497537723   0502799952   0508338318   0514224419  
  5310.000000   0520453766   0527080156   0534076673   0541478160   0549248824  
  5300.000000   0557420944   0565963794   0574916177   0584253934   0594016285  
  5290.000000   0604172939   0614743629   0625672854   0636945775   0648485044  
  5280.000000   0660267947   0672239923   0684418130   0696801156   0709442826  
  5270.000000   0722355466   0735555879   0748996592   0762610662   0776301039  
  5260.000000   0789984138   0803608042   0817157088   0830653156   0844112212  
  5250.000000   0857546777   0870912190   0884155774   0897173128   0909907051  
  5240.000000   0922285574   0934326579   0946029566   0957469481   0968663178  
  5230.000000   0979669863   0990461047   1001041153   1011332291   1021314729  
  5220.000000   1030915093   1040148239   1048988924   1057501675   1065694627  
  5210.000000   1073639509   1081321270   1088765431   1095904050   1102727126  
  5200.000000   1109161685   1115228957   1120906667   1126265247   1131310542  
  5190.000000   1136107577   1140632146   1144905736   1148871429   1152539007  
  5180.000000   1155865811   1158889549   1161596063   1164035332   1166189597  
  5170.000000   1168090914   1169707325   1171065042   1172142909   1172983298  
  5160.000000   1173580968   1173980097   1174165836   1174162040   1173938354  
  5150.000000   1173511137   1172859269   1172013284   1170969466   1169764493  
  5140.000000   1168395215   1166889879   1165241141   1163475493   1161592761  
  5130.000000   1159624401   1157573038   1155461064   1153278253   1151030592  
  5120.000000   1148701569   1146299806   1143825026   1141302159   1138744302  
  5110.000000   1136174170   1133593301   1131003723   1128391465   1125751286  
  5100.000000   1123076397   1120376102   1117660256   1114947538   1112247903  
  5090.000000   1109571810   1106918417   1104290135   1101683577   1099102719  
  5080.000000   1096546216   1094016040   1091503865   1089000880   1086489145  
  5070.000000   1083954750   1081381856   1078763803   1076094421   1073375098  
  5060.000000   1070604483   1067786774   1064922883   1062021887   1059090942  
  5050.000000   1056145921   1053197152   1050258031   1047330189   1044414193  
  5040.000000   1041499421   1038577784   1035637379   1032673904   1029684423  
  5030.000000   1026672680   1023643740   1020605014   1017564716   1014530489  
  5020.000000   1011511433   1008513652   1005544634   1002606070   0999701670  
  5010.000000   0996828922   0993991140   0991187272   0988426324   0985711892  
  5000.000000   0983057969   0980467471   0977952382   0975508925   0973144724  
  4990.000000   0970851528   0968637455   0966495223   0964436616   0962455754  
  4980.000000   0960566725   0958763852   0957064219   0955464791   0953987873  
  4970.000000   0952632596   0951421318   0950346471   0949420992   0948625155  
  4960.000000   0947964482   0947417132   0946995920   0946690598   0946527757  
  4950.000000   0946505200   0946650798   0946954374   0947432487   0948063072  
  4940.000000   0948857444   0949794363   0950892358   0952137906   0953554206  
  4930.000000   0955126771   0956872751   0958771168   0960835043   0963046363  
  4920.000000   0965425416   0967965399   0970693297   0973604768   0976718213  
  4910.000000   0980017135   0983501053   0987139756   0990919223   0994806390  
  4900.000000   0998784975   1002829499   1006927764   1011065335   1015233031  
  4890.000000   1019423234   1023621793   1027817775   1031981934   1036092868  
  4880.000000   1040105306   1043992775   1047705313   1051223590   1054504144  
  4870.000000   1057540031   1060295920   1062774690   1064947675   1066826919  
  4860.000000   1068392823   1069668822   1070646364   1071358952   1071806637  
  4850.000000   1072028692   1072031214   1071856473   1071515195   1071048968  
  4840.000000   1070468938   1069809661   1069078101   1068299567   1067479591  
  4830.000000   1066640470   1065793676   1064963504   1064166881   1063424240  
  4820.000000   1062748237   1062146593   1061622830   1061173925   1060801060  
  4810.000000   1060499790   1060275153   1060123149   1060048443   1060041725  
  4800.000000   1060102240   1060216079   1060382592   1060592959   1060854884  
  4790.000000   1061168962   1061548311   1061994586   1062514830   1063102098  
  4780.000000   1063752501   1064451209   1065188520   1065948227   1066721143  
  4770.000000   1067494033   1068261122   1069013907   1069751426   1070470799  
  4760.000000   1071175321   1071865429   1072544528   1073212440   1073870504  
  4750.000000   1074519169   1075161822   1075804168   1076454466   1077121665  
  4740.000000   1077812882   1078530650   1079272499   1080029837   1080792853  
  4730.000000   1081549320   1082292487   1083016100   1083722889   1084414305  
  4720.000000   1085100389   1085786531   1086486895   1087208701   1087967977  
  4710.000000   1088770993   1089631322   1090549869   1091533690   1092578087  
  4700.000000   1093687365   1094858744   1096101448   1097419749   1098827970  
  4690.000000   1100331557   1101939951   1103648698   1105454593   1107339286  
  4680.000000   1109287902   1111272751   1113275135   1115266505   1117232091  
  4670.000000   1119150481   1121018558   1122829937   1124597381   1126331101  
  4660.000000   1128056699   1129795779   1131578275   1133427874   1135368469  
  4650.000000   1137415836   1139578311   1141855308   1144233952   1146695346  
  4640.000000   1149209789   1151750159   1154284893   1156794016   1159256013  
  4630.000000   1161662765   1163999986   1166263373   1168436358   1170510987  
  4620.000000   1172464850   1174288087   1175957695   1177468782   1178803222  
  4610.000000   1179965501   1180946206   1181762939   1182418327   1182944130  
  4600.000000   1183353060   1183683407   1183946113   1184170533   1184352248  
  4590.000000   1184501494   1184596147   1184631354   1184578166   1184429328  
  4580.000000   1184161695   1183774941   1183257781   1182619886   1181862331  
  4570.000000   1181004288   1180056591   1179043958   1177980035   1176887259  
  4560.000000   1175774059   1174654882   1173530449   1172408221   1171285158  
  4550.000000   1170166010   1169047577   1167932789   1166818085   1165703625  
  4540.000000   1164586227   1163465499   1162342031   1161217113   1160094829  
  4530.000000   1158974743   1157859539   1156743060   1155626341   1154501806  
  4520.000000   1153377077   1152251738   1151146386   1150068525   1149048172  
  4510.000000   1148093471   1147237213   1146483330   1145865850   1145384665  
  4500.000000   1145075242   1144932691   1144992334   1145244686   1145728006  
  4490.000000   1146435759   1147417485   1148675983   1150270483   1152203575  
  4480.000000   1154526959   1157225410   1160329613   1163803687   1167663299  
  4470.000000   1171865023   1176421623   1181290649   1186483171   1191955507  
  4460.000000   1197713034   1203710920   1209951488   1216394931   1223043511  
  4450.000000   1229862754   1236849160   1243967366   1251202875   1258519987  
  4440.000000   1265898667   1273311542   1280740215   1288167598   1295572155  
  4430.000000   1302937270   1310228397   1317423433   1324477414   1331371670  
  4420.000000   1338065656   1344556381   1350816147   1356855217   1362649879  
  4410.000000   1368208220   1373497856   1378517449   1383230125   1387638340  
  4400.000000   1391721137   1395505000   1399000282   1402263033   1405330202  
  4390.000000   1408273491   1411136797   1413985052   1416847421   1419763699  
  4380.000000   1422736752   1425778787   1428873926   1432022904   1435210611  
  4370.000000   1438443115   1441714395   1445032950   1448389629   1451781572  
  4360.000000   1455184224   1458584555   1461946163   1465260376   1468484385  
  4350.000000   1471618506   1474611214   1477469814   1480144024   1482659504  
  4340.000000   1484986941   1487165446   1489157956   1490946129   1492397954  
  4330.000000   1493359833   1493583969   1492848386   1490950771   1487827322  
  4320.000000   1483544416   1478346566   1472579776   1466662289   1460970483  
  4310.000000   1455810959   1451350887   1447649782   1444659721   1442288096  
  4300.000000   1440425286   1438974582   1437872552   1437063833   1436528954  
  4290.000000   1436227403   1436156927   1436285024   1436626154   1437167484  
  4280.000000   1437931471   1438912110   1440109644   1441502050   1443056343  
  4270.000000   1444734982   1446483329   1448245298   1449932018   1451438119  
  4260.000000   1452617422   1453316008   1453374870   1452682662   1451185372  
  4250.000000   1448928544   1446031381   1442696716   1439141989   1435599737  
  4240.000000   1432238806   1429188758   1426484345   1424121688   1422032796  
  4230.000000   1420146463   1418377174   1416661104   1414953257   1413228990  
  4220.000000   1411494926   1409760564   1408068623   1406446167   1404950334  
  4210.000000   1403608202   1402467797   1401538673   1400842276   1400361315  
  4200.000000   1400088042   1399982877   1400023023   1400162625   1400383215  
  4190.000000   1400648050   1400956014   1401286719   1401657386   1402060864  
  4180.000000   1402525219   1403049416   1403664487   1404371173   1405201151  
  4170.000000   1406157306   1407272425   1408550130   1410020635   1411681415  
  4160.000000   1413552948   1415619776   1417890170   1420337938   1422967023  
  4150.000000   1425751061   1428700282   1431795507   1435056177   1438468096  
  4140.000000   1442053737   1445795080   1449708666   1453767086   1457979756  
  4130.000000   1462315761   1466786653   1471371968   1476097574   1480962950  
  4120.000000   1486009862   1491252777   1496738818   1502483648   1508524558  
  4110.000000   1514862687   1521510082   1528438749   1535624272   1543006468  
  4100.000000   1550534066   1558138384   1565775669   1573407185   1581026606  
  4090.000000   1588636953   1596255021   1603893720   1611553284   1619226872  
  4080.000000   1626885929   1634513245   1642074706   1649566457   1656961544  
  4070.000000   1664264749   1671441122   1678486672   1685351634   1692028192  
  4060.000000   1698467407   1704672321   1710602317   1716268271   1721629964  
  4050.000000   1726701580   1731447633   1735896999   1740030710   1743893407  
  4040.000000   1747471333   1750803770   1753863360   1756676369   1759208735  
  4030.000000   1761490160   1763496645   1765265769   1766783673   1768082911  
  4020.000000   1769138164   1769983264   1770621038   1771086557   1771360090  
  4010.000000   1771483625   1771472829   1771303533   1770856349   1770131383  
  4000.000000   1769266037  
##END= 
