##TITLE= Sample 029 By ssteindl date Dienstag, November 20 2018
##JCAMP-DX= 4.24
##DATA TYPE= INFRARED SPECTRUM
##ORIGIN= Exported PE Spectrum Data File
##OWNER= Sandra Steindl
##DATE= 18/11/20
##TIME= 15:01:04.00
##SPECTROMETER/DATA SYSTEM= PERKIN-ELMER Frontier FT-IR/NIR IR
##INSTRUMENT PARAMETERS=
  APODIZATION=stark
  DETECTOR=INGAAS
##RESOLUTION= 16.000000
##DELTAX= -2.000000
##XUNITS= 1/CM
##YUNITS= A
##XFACTOR= 1.00
##YFACTOR= 0.00000011920928955078
##FIRSTX= 10000.00
##LASTX= 4000.00
##NPOINTS= 3001
##FIRSTY= 0.195297
##MAXY= 0.585211
##MINY= 0.172680
##XYDATA= (X++(Y..Y))
 10000.000000   1638268   1637673   1637890   1639850   1643261  
  9990.000000   1647024   1650194   1652270   1652913   1652014  
  9980.000000   1649913   1647175   1644238   1641247   1638184  
  9970.000000   1634966   1631525   1627953   1624420   1621188  
  9960.000000   1618412   1616230   1614706   1613950   1614107  
  9950.000000   1615250   1617289   1619735   1621794   1622418  
  9940.000000   1620731   1616319   1609526   1601458   1593687  
  9930.000000   1587864   1585180   1586131   1590377   1596951  
  9920.000000   1604529   1611760   1617523   1620993   1621711  
  9910.000000   1619480   1614492   1607262   1598782   1590298  
  9900.000000   1583182   1578518   1576861   1578092   1581473  
  9890.000000   1585970   1590541   1594516   1597664   1600205  
  9880.000000   1602528   1604971   1607595   1610178   1612347  
  9870.000000   1613799   1614515   1614784   1615086   1615844  
  9860.000000   1617141   1618662   1619672   1619364   1617064  
  9850.000000   1612569   1606213   1598796   1591377   1584931  
  9840.000000   1580113   1577048   1575369   1574355   1573204  
  9830.000000   1571303   1568421   1564807   1561111   1558241  
  9820.000000   1557089   1558291   1562018   1567866   1574950  
  9810.000000   1582041   1587937   1591679   1592868   1591651  
  9800.000000   1588695   1584897   1581152   1578073   1575925  
  9790.000000   1574627   1573922   1573568   1573405   1573449  
  9780.000000   1573710   1574195   1574765   1575229   1575423  
  9770.000000   1575296   1574991   1574713   1574641   1574739  
  9760.000000   1574730   1574195   1572784   1570504   1567819  
  9750.000000   1565603   1564801   1566039   1569290   1573777  
  9740.000000   1578239   1581315   1582081   1580298   1576478  
  9730.000000   1571636   1566858   1563006   1560457   1559256  
  9720.000000   1559272   1560471   1562937   1566756   1571723  
  9710.000000   1577155   1581895   1584593   1584188   1580297  
  9700.000000   1573483   1565065   1556777   1550160   1546137  
  9690.000000   1544828   1545653   1547751   1550264   1552682  
  9680.000000   1554763   1556494   1557858   1558765   1559090  
  9670.000000   1558719   1557725   1556251   1554552   1552714  
  9660.000000   1550717   1548375   1545577   1542431   1539360  
  9650.000000   1537054   1536194   1537217   1540065   1544224  
  9640.000000   1548876   1553236   1556787   1559431   1561381  
  9630.000000   1562971   1564418   1565707   1566666   1567089  
  9620.000000   1566948   1566373   1565619   1564819   1563896  
  9610.000000   1562520   1560295   1557011   1552827   1548368  
  9600.000000   1544501   1542124   1541763   1543486   1546853  
  9590.000000   1551201   1555848   1560327   1564384   1567884  
  9580.000000   1570653   1572397   1572753   1571456   1568522  
  9570.000000   1564358   1559674   1555289   1551815   1549496  
  9560.000000   1548117   1547217   1546236   1544787   1542658  
  9550.000000   1539823   1536328   1532225   1527625   1522691  
  9540.000000   1517780   1513328   1509820   1507543   1506500  
  9530.000000   1506333   1506500   1506520   1506261   1506037  
  9520.000000   1506511   1508338   1511839   1516718   1522176  
  9510.000000   1527118   1530650   1532334   1532359   1531382  
  9500.000000   1530201   1529470   1529426   1529973   1530802  
  9490.000000   1531693   1532620   1533741   1535165   1536752  
  9480.000000   1537994   1538143   1536495   1532698   1526997  
  9470.000000   1520192   1513451   1507910   1504319   1502867  
  9460.000000   1503186   1504646   1506584   1508622   1510657  
  9450.000000   1512838   1515330   1518172   1521183   1523970  
  9440.000000   1526101   1527188   1527098   1525888   1523829  
  9430.000000   1521236   1518406   1515565   1512866   1510460  
  9420.000000   1508486   1507098   1506385   1506345   1506810  
  9410.000000   1507497   1508042   1508126   1507580   1506432  
  9400.000000   1504936   1503461   1502384   1501937   1502141  
  9390.000000   1502812   1503663   1504433   1504995   1505389  
  9380.000000   1505776   1506335   1507148   1508107   1508923  
  9370.000000   1509205   1508648   1507145   1504882   1502248  
  9360.000000   1499728   1497730   1496468   1495937   1495930  
  9350.000000   1496197   1496523   1496837   1497173   1497631  
  9340.000000   1498295   1499193   1500279   1501437   1502487  
  9330.000000   1503218   1503428   1502960   1501778   1499979  
  9320.000000   1497849   1495809   1494313   1493674   1493899  
  9310.000000   1494665   1495389   1495474   1494526   1492562  
  9300.000000   1490021   1487643   1486173   1486050   1487214  
  9290.000000   1489118   1490988   1492094   1492054   1490902  
  9280.000000   1489045   1487051   1485402   1484346   1483869  
  9270.000000   1483809   1484044   1484560   1485454   1486774  
  9260.000000   1488407   1490031   1491196   1491511   1490810  
  9250.000000   1489278   1487424   1485920   1485334   1485917  
  9240.000000   1487499   1489601   1491608   1493018   1493542  
  9230.000000   1493181   1492133   1490672   1489008   1487250  
  9220.000000   1485433   1483570   1481704   1479888   1478166  
  9210.000000   1476537   1474948   1473342   1471696   1470103  
  9200.000000   1468751   1467873   1467643   1468078   1469020  
  9190.000000   1470154   1471119   1471623   1471556   1470992  
  9180.000000   1470177   1469398   1468929   1468903   1469318  
  9170.000000   1470014   1470754   1471278   1471385   1470981  
  9160.000000   1470098   1468955   1467887   1467304   1467522  
  9150.000000   1468701   1470758   1473364   1475998   1478091  
  9140.000000   1479198   1479086   1477783   1475522   1472686  
  9130.000000   1469682   1466870   1464497   1462711   1461586  
  9120.000000   1461141   1461336   1462044   1463084   1464235  
  9110.000000   1465290   1466084   1466550   1466738   1466783  
  9100.000000   1466845   1467054   1467473   1468122   1468966  
  9090.000000   1469973   1471094   1472299   1473530   1474679  
  9080.000000   1475568   1475975   1475696   1474560   1472486  
  9070.000000   1469508   1465816   1461721   1457613   1453910  
  9060.000000   1450994   1449163   1448544   1449089   1450553  
  9050.000000   1452572   1454734   1456663   1458118   1458998  
  9040.000000   1459390   1459440   1459349   1459236   1459178  
  9030.000000   1459147   1459095   1458997   1458922   1459038  
  9020.000000   1459570   1460752   1462713   1465430   1468633  
  9010.000000   1471894   1474688   1476561   1477248   1476788  
  9000.000000   1475528   1474027   1472853   1472410   1472786  
  8990.000000   1473735   1474749   1475263   1474849   1473382  
  8980.000000   1471030   1468213   1465419   1463071   1461406  
  8970.000000   1460454   1460102   1460165   1460463   1460840  
  8960.000000   1461149   1461257   1461038   1460434   1459508  
  8950.000000   1458473   1457677   1457451   1458002   1459249  
  8940.000000   1460848   1462249   1462914   1462504   1461037  
  8930.000000   1458892   1456674   1455010   1454323   1454711  
  8920.000000   1455961   1457650   1459343   1460693   1461558  
  8910.000000   1461932   1461908   1461574   1460986   1460199  
  8900.000000   1459325   1458578   1458264   1458722   1460214  
  8890.000000   1462815   1466325   1470314   1474195   1477386  
  8880.000000   1479429   1480109   1479522   1478014   1476113  
  8870.000000   1474351   1473158   1472731   1473006   1473705  
  8860.000000   1474433   1474850   1474768   1474268   1473622  
  8850.000000   1473237   1473441   1474392   1475977   1477869  
  8840.000000   1479655   1480963   1481606   1481593   1481109  
  8830.000000   1480386   1479612   1478872   1478174   1477513  
  8820.000000   1476947   1476601   1476653   1477223   1478307  
  8810.000000   1479730   1481192   1482374   1483069   1483265  
  8800.000000   1483172   1483131   1483504   1484532   1486276  
  8790.000000   1488595   1491223   1493842   1496182   1498072  
  8780.000000   1499466   1500414   1501021   1501418   1501721  
  8770.000000   1502032   1502406   1502863   1503385   1503944  
  8760.000000   1504514   1505098   1505708   1506360   1507025  
  8750.000000   1507628   1508042   1508142   1507870   1507281  
  8740.000000   1506583   1506073   1506070   1506777   1508198  
  8730.000000   1510114   1512160   1513945   1515204   1515885  
  8720.000000   1516168   1516382   1516880   1517900   1519486  
  8710.000000   1521479   1523588   1525496   1526975   1527939  
  8700.000000   1528465   1528736   1528983   1529402   1530122  
  8690.000000   1531157   1532433   1533791   1535063   1536102  
  8680.000000   1536842   1537329   1537710   1538222   1539101  
  8670.000000   1540546   1542621   1545254   1548228   1551245  
  8660.000000   1554001   1556250   1557857   1558786   1559104  
  8650.000000   1558927   1558418   1557734   1557039   1556478  
  8640.000000   1556186   1556267   1556774   1557721   1559063  
  8630.000000   1560730   1562618   1564626   1566663   1568658  
  8620.000000   1570579   1572404   1574155   1575848   1577515  
  8610.000000   1579146   1580716   1582157   1583405   1584426  
  8600.000000   1585250   1585999   1586856   1588024   1589645  
  8590.000000   1591760   1594269   1596960   1599559   1601820  
  8580.000000   1603584   1604817   1605594   1606069   1606425  
  8570.000000   1606833   1607430   1608300   1609475   1610922  
  8560.000000   1612528   1614130   1615520   1616539   1617100  
  8550.000000   1617282   1617296   1617458   1618056   1619250  
  8540.000000   1620998   1623034   1624958   1626349   1626925  
  8530.000000   1626602   1625526   1624007   1622427   1621138  
  8520.000000   1620380   1620269   1620812   1621943   1623540  
  8510.000000   1625447   1627478   1629442   1631161   1632516  
  8500.000000   1633486   1634139   1634634   1635121   1635720  
  8490.000000   1636433   1637184   1637830   1638263   1638461  
  8480.000000   1638528   1638661   1639078   1639955   1641354  
  8470.000000   1643223   1645397   1647675   1649876   1651878  
  8460.000000   1653645   1655190   1656573   1657848   1659060  
  8450.000000   1660229   1661351   1662418   1663419   1664367  
  8440.000000   1665293   1666265   1667356   1668632   1670088  
  8430.000000   1671650   1673148   1674364   1675079   1675173  
  8420.000000   1674680   1673801   1672849   1672153   1671949  
  8410.000000   1672311   1673116   1674124   1675054   1675724  
  8400.000000   1676076   1676218   1676328   1676598   1677121  
  8390.000000   1677883   1678766   1679604   1680236   1680550  
  8380.000000   1680504   1680109   1679398   1678424   1677242  
  8370.000000   1675948   1674659   1673519   1672649   1672122  
  8360.000000   1671919   1671935   1671999   1671941   1671650  
  8350.000000   1671109   1670393   1669629   1668954   1668459  
  8340.000000   1668184   1668103   1668174   1668347   1668595  
  8330.000000   1668900   1669253   1669630   1670004   1670345  
  8320.000000   1670646   1670921   1671201   1671516   1671877  
  8310.000000   1672253   1672597   1672852   1672994   1673039  
  8300.000000   1673039   1673046   1673068   1673068   1672957  
  8290.000000   1672658   1672136   1671466   1670813   1670406  
  8280.000000   1670432   1670962   1671885   1672942   1673781  
  8270.000000   1674090   1673685   1672592   1671031   1669336  
  8260.000000   1667832   1666726   1666041   1665637   1665269  
  8250.000000   1664690   1663744   1662427   1660884   1659356  
  8240.000000   1658081   1657229   1656837   1656816   1656977  
  8230.000000   1657102   1657019   1656662   1656099   1655500  
  8220.000000   1655070   1654975   1655261   1655824   1656417  
  8210.000000   1656714   1656427   1655396   1653665   1651464  
  8200.000000   1649129   1647004   1645305   1644085   1643202  
  8190.000000   1642433   1641560   1640495   1639296   1638147  
  8180.000000   1637234   1636661   1636357   1636104   1635594  
  8170.000000   1634561   1632898   1630701   1628264   1625946  
  8160.000000   1624048   1622691   1621783   1621065   1620219  
  8150.000000   1618998   1617329   1615333   1613285   1611505  
  8140.000000   1610236   1609567   1609412   1609551   1609723  
  8130.000000   1609700   1609365   1608713   1607829   1606842  
  8120.000000   1605857   1604940   1604101   1603318   1602572  
  8110.000000   1601847   1601159   1600506   1599877   1599209  
  8100.000000   1598410   1597370   1596019   1594355   1592485  
  8090.000000   1590609   1588981   1587852   1587382   1587617  
  8080.000000   1588449   1589669   1590997   1592169   1592974  
  8070.000000   1593301   1593125   1592492   1591489   1590213  
  8060.000000   1588757   1587196   1585595   1583988   1582386  
  8050.000000   1580768   1579086   1577298   1575378   1573368  
  8040.000000   1571366   1569533   1568035   1567006   1566484  
  8030.000000   1566401   1566585   1566810   1566867   1566611  
  8020.000000   1566020   1565161   1564188   1563240   1562429  
  8010.000000   1561761   1561176   1560545   1559748   1558712  
  8000.000000   1557461   1556121   1554887   1553985   1553594  
  7990.000000   1553805   1554588   1555790   1557177   1558480  
  7980.000000   1559463   1559965   1559933   1559424   1558586  
  7970.000000   1557617   1556731   1556100   1555837   1555950  
  7960.000000   1556351   1556857   1557230   1557241   1556722  
  7950.000000   1555646   1554131   1552453   1550951   1549967  
  7940.000000   1549718   1550247   1551394   1552844   1554212  
  7930.000000   1555143   1555402   1554904   1553729   1552055  
  7920.000000   1550121   1548158   1546364   1544884   1543819  
  7910.000000   1543222   1543096   1543402   1544039   1544879  
  7900.000000   1545768   1546567   1547174   1547535   1547652  
  7890.000000   1547550   1547280   1546877   1546383   1545827  
  7880.000000   1545251   1544702   1544238   1543913   1543762  
  7870.000000   1543800   1544004   1544335   1544726   1545102  
  7860.000000   1545379   1545473   1545322   1544904   1544259  
  7850.000000   1543492   1542762   1542233   1542026   1542176  
  7840.000000   1542604   1543151   1543619   1543851   1543774  
  7830.000000   1543426   1542921   1542404   1541986   1541704  
  7820.000000   1541517   1541334   1541061   1540645   1540086  
  7810.000000   1539434   1538753   1538096   1537477   1536883  
  7800.000000   1536288   1535672   1535034   1534386   1533747  
  7790.000000   1533118   1532486   1531832   1531143   1530439  
  7780.000000   1529764   1529187   1528772   1528558   1528542  
  7770.000000   1528673   1528869   1529034   1529075   1528920  
  7760.000000   1528529   1527897   1527056   1526080   1525074  
  7750.000000   1524154   1523425   1522944   1522702   1522613  
  7740.000000   1522542   1522338   1521884   1521132   1520122  
  7730.000000   1518965   1517804   1516779   1515980   1515443  
  7720.000000   1515140   1515016   1515004   1515048   1515110  
  7710.000000   1515160   1515175   1515113   1514931   1514570  
  7700.000000   1513988   1513158   1512104   1510890   1509630  
  7690.000000   1508468   1507548   1506990   1506850   1507114  
  7680.000000   1507689   1508430   1509178   1509792   1510185  
  7670.000000   1510318   1510204   1509877   1509386   1508773  
  7660.000000   1508092   1507401   1506776   1506299   1506031  
  7650.000000   1506001   1506176   1506479   1506798   1507038  
  7640.000000   1507139   1507098   1506953   1506763   1506569  
  7630.000000   1506376   1506158   1505867   1505483   1505010  
  7620.000000   1504497   1504003   1503575   1503221   1502911  
  7610.000000   1502594   1502237   1501846   1501486   1501246  
  7600.000000   1501218   1501446   1501917   1502550   1503243  
  7590.000000   1503891   1504441   1504886   1505274   1505677  
  7580.000000   1506159   1506763   1507499   1508356   1509312  
  7570.000000   1510335   1511397   1512444   1513416   1514230  
  7560.000000   1514808   1515088   1515058   1514756   1514284  
  7550.000000   1513789   1513438   1513389   1513754   1514581  
  7540.000000   1515840   1517433   1519208   1520990   1522617  
  7530.000000   1523968   1524999   1525727   1526237   1526623  
  7520.000000   1526985   1527369   1527791   1528221   1528635  
  7510.000000   1529025   1529434   1529945   1530667   1531701  
  7500.000000   1533101   1534855   1536879   1539031   1541158  
  7490.000000   1543117   1544828   1546264   1547473   1548538  
  7480.000000   1549567   1550641   1551813   1553082   1554426  
  7470.000000   1555802   1557184   1558562   1559961   1561414  
  7460.000000   1562955   1564593   1566315   1568078   1569847  
  7450.000000   1571590   1573312   1575034   1576799   1578645  
  7440.000000   1580594   1582656   1584829   1587111   1589511  
  7430.000000   1592036   1594684   1597413   1600150   1602783  
  7420.000000   1605201   1607317   1609108   1610614   1611937  
  7410.000000   1613204   1614527   1615983   1617598   1619366  
  7400.000000   1621263   1623273   1625385   1627599   1629894  
  7390.000000   1632225   1634520   1636699   1638694   1640475  
  7380.000000   1642068   1643535   1644964   1646436   1648003  
  7370.000000   1649680   1651456   1653306   1655203   1657128  
  7360.000000   1659070   1661024   1662983   1664944   1666907  
  7350.000000   1668883   1670883   1672922   1674997   1677090  
  7340.000000   1679168   1681192   1683126   1684952   1686668  
  7330.000000   1688284   1689809   1691248   1692600   1693875  
  7320.000000   1695093   1696306   1697581   1698993   1700588  
  7310.000000   1702377   1704310   1706301   1708237   1710023  
  7300.000000   1711598   1712947   1714089   1715071   1715939  
  7290.000000   1716740   1717508   1718274   1719063   1719893  
  7280.000000   1720768   1721676   1722580   1723442   1724226  
  7270.000000   1724928   1725575   1726223   1726936   1727758  
  7260.000000   1728693   1729696   1730697   1731618   1732421  
  7250.000000   1733116   1733778   1734507   1735417   1736577  
  7240.000000   1738008   1739661   1741459   1743296   1745110  
  7230.000000   1746853   1748545   1750213   1751918   1753700  
  7220.000000   1755606   1757661   1759898   1762332   1764987  
  7210.000000   1767856   1770922   1774124   1777385   1780608  
  7200.000000   1783724   1786685   1789509   1792244   1794988  
  7190.000000   1797824   1800829   1804020   1807386   1810861  
  7180.000000   1814379   1817872   1821313   1824697   1828055  
  7170.000000   1831415   1834814   1838262   1841776   1845354  
  7160.000000   1849020   1852789   1856701   1860775   1865026  
  7150.000000   1869428   1873948   1878524   1883117   1887689  
  7140.000000   1892260   1896852   1901532   1906331   1911285  
  7130.000000   1916378   1921596   1926891   1932257   1937685  
  7120.000000   1943220   1948908   1954813   1960958   1967340  
  7110.000000   1973898   1980553   1987202   1993786   2000271  
  7100.000000   2006703   2013141   2019680   2026364   2033205  
  7090.000000   2040136   2047064   2053886   2060544   2067046  
  7080.000000   2073478   2079971   2086666   2093655   2100959  
  7070.000000   2108503   2116155   2123748   2131140   2138232  
  7060.000000   2145001   2151484   2157768   2163968   2170207  
  7050.000000   2176594   2183209   2190084   2197198   2204482  
  7040.000000   2211823   2219105   2226222   2233121   2239793  
  7030.000000   2246282   2252653   2258977   2265300   2271643  
  7020.000000   2277992   2284317   2290569   2296706   2302671  
  7010.000000   2308431   2313951   2319240   2324326   2329292  
  7000.000000   2334219   2339198   2344260   2349400   2354538  
  6990.000000   2359597   2364488   2369198   2373747   2378219  
  6980.000000   2382677   2387162   2391632   2396004   2400157  
  6970.000000   2404011   2407521   2410726   2413692   2416516  
  6960.000000   2419254   2421954   2424615   2427254   2429878  
  6950.000000   2432523   2435200   2437911   2440599   2443189  
  6940.000000   2445586   2447744   2449659   2451398   2453051  
  6930.000000   2454707   2456405   2458139   2459856   2461509  
  6920.000000   2463068   2464561   2466029   2467531   2469081  
  6910.000000   2470664   2472223   2473710   2475096   2476399  
  6900.000000   2477657   2478908   2480152   2481350   2482425  
  6890.000000   2483311   2483980   2484466   2484854   2485252  
  6880.000000   2485738   2486349   2487063   2487834   2488613  
  6870.000000   2489386   2490165   2490986   2491869   2492803  
  6860.000000   2493744   2494626   2495395   2496020   2496513  
  6850.000000   2496907   2497242   2497551   2497851   2498160  
  6840.000000   2498502   2498925   2499475   2500192   2501072  
  6830.000000   2502063   2503065   2503968   2504676   2505146  
  6820.000000   2505384   2505446   2505402   2505319   2505239  
  6810.000000   2505189   2505179   2505222   2505321   2505469  
  6800.000000   2505626   2505734   2505711   2505495   2505057  
  6790.000000   2504431   2503696   2502959   2502314   2501815  
  6780.000000   2501457   2501194   2500951   2500658   2500267  
  6770.000000   2499755   2499123   2498388   2497570   2496705  
  6760.000000   2495837   2495022   2494312   2493743   2493317  
  6750.000000   2492993   2492703   2492370   2491934   2491369  
  6740.000000   2490687   2489925   2489126   2488324   2487539  
  6730.000000   2486786   2486081   2485455   2484939   2484553  
  6720.000000   2484279   2484061   2483805   2483412   2482805  
  6710.000000   2481963   2480921   2479760   2478573   2477440  
  6700.000000   2476396   2475443   2474552   2473693   2472838  
  6690.000000   2471982   2471124   2470268   2469400   2468503  
  6680.000000   2467547   2466511   2465376   2464139   2462804  
  6670.000000   2461385   2459902   2458386   2456873   2455410  
  6660.000000   2454035   2452776   2451630   2450571   2449546  
  6650.000000   2448498   2447371   2446134   2444772   2443295  
  6640.000000   2441717   2440061   2438350   2436614   2434879  
  6630.000000   2433178   2431530   2429940   2428392   2426855  
  6620.000000   2425295   2423695   2422053   2420393   2418738  
  6610.000000   2417103   2415475   2413821   2412099   2410289  
  6600.000000   2408405   2406501   2404650   2402913   2401309  
  6590.000000   2399805   2398326   2396791   2395145   2393388  
  6580.000000   2391576   2389793   2388119   2386590   2385191  
  6570.000000   2383864   2382533   2381141   2379673   2378153  
  6560.000000   2376634   2375168   2373786   2372486   2371242  
  6550.000000   2370019   2368786   2367529   2366255   2364975  
  6540.000000   2363707   2362463   2361249   2360066   2358916  
  6530.000000   2357793   2356695   2355607   2354512   2353388  
  6520.000000   2352218   2350998   2349735   2348455   2347194  
  6510.000000   2345989   2344876   2343878   2343001   2342231  
  6500.000000   2341536   2340869   2340174   2339400   2338516  
  6490.000000   2337513   2336413   2335255   2334088   2332951  
  6480.000000   2331863   2330821   2329803   2328785   2327748  
  6470.000000   2326687   2325604   2324508   2323404   2322293  
  6460.000000   2321179   2320071   2318987   2317958   2317010  
  6450.000000   2316159   2315398   2314697   2314012   2313296  
  6440.000000   2312521   2311674   2310770   2309830   2308885  
  6430.000000   2307949   2307035   2306144   2305280   2304445  
  6420.000000   2303647   2302895   2302196   2301557   2300986  
  6410.000000   2300493   2300089   2299779   2299553   2299380  
  6400.000000   2299208   2298975   2298631   2298150   2297546  
  6390.000000   2296863   2296165   2295505   2294913   2294386  
  6380.000000   2293891   2293393   2292864   2292303   2291728  
  6370.000000   2291171   2290653   2290180   2289731   2289275  
  6360.000000   2288773   2288203   2287554   2286837   2286069  
  6350.000000   2285275   2284475   2283691   2282937   2282228  
  6340.000000   2281563   2280932   2280305   2279650   2278930  
  6330.000000   2278127   2277235   2276277   2275277   2274269  
  6320.000000   2273266   2272273   2271279   2270276   2269254  
  6310.000000   2268217   2267164   2266100   2265005   2263863  
  6300.000000   2262644   2261339   2259950   2258508   2257047  
  6290.000000   2255606   2254199   2252823   2251449   2250048  
  6280.000000   2248588   2247057   2245453   2243789   2242072  
  6270.000000   2240314   2238513   2236676   2234804   2232912  
  6260.000000   2231008   2229101   2227184   2225249   2223276  
  6250.000000   2221263   2219213   2217151   2215099   2213084  
  6240.000000   2211109   2209163   2207219   2205249   2203228  
  6230.000000   2201146   2199001   2196799   2194547   2192250  
  6220.000000   2189917   2187563   2185214   2182904   2180662  
  6210.000000   2178509   2176444   2174448   2172493   2170554  
  6200.000000   2168617   2166689   2164787   2162931   2161131  
  6190.000000   2159383   2157673   2155977   2154280   2152568  
  6180.000000   2150840   2149093   2147328   2145539   2143725  
  6170.000000   2141890   2140052   2138235   2136470   2134780  
  6160.000000   2133177   2131659   2130208   2128800   2127411  
  6150.000000   2126016   2124592   2123122   2121594   2120006  
  6140.000000   2118373   2116722   2115096   2113530   2112045  
  6130.000000   2110634   2109269   2107907   2106515   2105080  
  6120.000000   2103625   2102190   2100827   2099567   2098423  
  6110.000000   2097372   2096385   2095428   2094491   2093571  
  6100.000000   2092688   2091847   2091051   2090281   2089525  
  6090.000000   2088770   2088035   2087345   2086742   2086245  
  6080.000000   2085859   2085548   2085273   2084984   2084669  
  6070.000000   2084329   2084006   2083735   2083557   2083478  
  6060.000000   2083499   2083593   2083754   2083968   2084253  
  6050.000000   2084617   2085083   2085646   2086311   2087064  
  6040.000000   2087912   2088855   2089912   2091089   2092393  
  6030.000000   2093803   2095301   2096851   2098439   2100049  
  6020.000000   2101693   2103370   2105091   2106841   2108610  
  6010.000000   2110368   2112103   2113798   2115460   2117092  
  6000.000000   2118712   2120325   2121956   2123620   2125352  
  5990.000000   2127179   2129132   2131217   2133429   2135732  
  5980.000000   2138093   2140472   2142859   2145257   2147697  
  5970.000000   2150206   2152812   2155516   2158312   2161172  
  5960.000000   2164082   2167022   2169990   2172974   2175967  
  5950.000000   2178944   2181888   2184775   2187608   2190402  
  5940.000000   2193196   2196030   2198944   2201961   2205089  
  5930.000000   2208321   2211645   2215048   2218513   2222019  
  5920.000000   2225533   2229013   2232411   2235689   2238827  
  5910.000000   2241825   2244708   2247506   2250246   2252947  
  5900.000000   2255614   2258252   2260864   2263474   2266101  
  5890.000000   2268775   2271503   2274281   2277079   2279867  
  5880.000000   2282604   2285267   2287839   2290313   2292685  
  5870.000000   2294947   2297093   2299122   2301052   2302913  
  5860.000000   2304750   2306605   2308513   2310486   2312524  
  5850.000000   2314621   2316773   2318987   2321277   2323658  
  5840.000000   2326132   2328686   2331293   2333924   2336559  
  5830.000000   2339192   2341828   2344472   2347114   2349727  
  5820.000000   2352261   2354668   2356907   2358972   2360878  
  5810.000000   2362673   2364392   2366081   2367740   2369377  
  5800.000000   2370961   2372494   2373951   2375346   2376657  
  5790.000000   2377889   2378998   2379966   2380736   2381276  
  5780.000000   2381528   2381459   2381013   2380161   2378876  
  5770.000000   2377179   2375117   2372794   2370324   2367841  
  5760.000000   2365448   2363228   2361214   2359423   2357847  
  5750.000000   2356482   2355315   2354333   2353505   2352787  
  5740.000000   2352128   2351479   2350823   2350156   2349516  
  5730.000000   2348935   2348450   2348057   2347744   2347467  
  5720.000000   2347197   2346909   2346617   2346342   2346116  
  5710.000000   2345958   2345873   2345844   2345849   2345871  
  5700.000000   2345905   2345957   2346039   2346161   2346321  
  5690.000000   2346515   2346730   2346962   2347204   2347458  
  5680.000000   2347712   2347954   2348146   2348256   2348238  
  5670.000000   2348066   2347713   2347174   2346442   2345523  
  5660.000000   2344420   2343152   2341741   2340234   2338672  
  5650.000000   2337109   2335577   2334105   2332694   2331347  
  5640.000000   2330054   2328817   2327630   2326490   2325385  
  5630.000000   2324299   2323215   2322125   2321040   2319983  
  5620.000000   2318987   2318076   2317256   2316506   2315788  
  5610.000000   2315053   2314270   2313427   2312540   2311639  
  5600.000000   2310758   2309917   2309120   2308355   2307602  
  5590.000000   2306844   2306070   2305274   2304449   2303588  
  5580.000000   2302680   2301720   2300707   2299656   2298584  
  5570.000000   2297511   2296442   2295369   2294270   2293120  
  5560.000000   2291903   2290619   2289286   2287932   2286584  
  5550.000000   2285265   2283983   2282741   2281537   2280377  
  5540.000000   2279263   2278197   2277170   2276167   2275162  
  5530.000000   2274136   2273080   2272002   2270921   2269856  
  5520.000000   2268819   2267804   2266794   2265767   2264709  
  5510.000000   2263621   2262516   2261418   2260339   2259284  
  5500.000000   2258241   2257195   2256129   2255040   2253927  
  5490.000000   2252797   2251645   2250458   2249210   2247880  
  5480.000000   2246454   2244943   2243371   2241777   2240187  
  5470.000000   2238622   2237074   2235529   2233960   2232352  
  5460.000000   2230684   2228949   2227133   2225228   2223227  
  5450.000000   2221137   2218981   2216801   2214643   2212548  
  5440.000000   2210534   2208595   2206706   2204840   2202985  
  5430.000000   2201143   2199337   2197584   2195900   2194274  
  5420.000000   2192699   2191157   2189662   2188234   2186921  
  5410.000000   2185754   2184758   2183912   2183197   2182566  
  5400.000000   2182011   2181519   2181126   2180845   2180708  
  5390.000000   2180700   2180817   2181026   2181331   2181734  
  5380.000000   2182284   2183005   2183940   2185075   2186401  
  5370.000000   2187856   2189420   2191041   2192734   2194481  
  5360.000000   2196331   2198280   2200394   2202683   2205240  
  5350.000000   2208096   2211354   2215024   2219169   2223738  
  5340.000000   2228745   2234117   2239887   2246018   2252585  
  5330.000000   2259562   2267014   2274877   2283189   2291877  
  5320.000000   2301014   2310581   2320714   2331423   2342846  
  5310.000000   2354946   2367798   2381305   2395516   2410354  
  5300.000000   2425912   2442177   2459294   2477274   2496247  
  5290.000000   2516171   2537085   2558846   2581394   2604536  
  5280.000000   2628214   2652317   2676903   2701996   2727738  
  5270.000000   2754168   2781322   2809077   2837261   2865634  
  5260.000000   2893993   2922215   2950268   2978212   3006082  
  5250.000000   3033901   3061543   3088859   3115579   3141549  
  5240.000000   3166597   3190774   3214097   3236757   3258799  
  5230.000000   3280358   3301345   3321754   3341388   3360211  
  5220.000000   3378075   3395051   3411113   3426432   3441024  
  5210.000000   3455041   3468422   3481214   3493258   3504553  
  5200.000000   3514956   3524537   3533253   3541252   3548524  
  5190.000000   3555196   3561210   3566629   3571359   3575461  
  5180.000000   3578874   3581694   3583889   3585550   3586626  
  5170.000000   3587178   3587147   3586607   3585536   3584041  
  5160.000000   3582120   3579857   3577214   3574227   3570831  
  5150.000000   3567057   3562873   3558344   3553471   3548323  
  5140.000000   3542893   3537228   3531315   3525203   3518899  
  5130.000000   3512471   3505939   3499357   3492719   3486044  
  5120.000000   3479306   3472517   3465666   3458778   3451857  
  5110.000000   3444923   3437967   3430991   3423981   3416943  
  5100.000000   3409883   3402826   3395790   3388796   3381844  
  5090.000000   3374936   3368058   3361209   3354389   3347607  
  5080.000000   3340867   3334171   3327501   3320836   3314146  
  5070.000000   3307414   3300629   3293799   3286938   3280067  
  5060.000000   3273195   3266330   3259470   3252616   3245766  
  5050.000000   3238926   3232098   3225283   3218476   3211664  
  5040.000000   3204835   3197981   3191108   3184227   3177366  
  5030.000000   3170544   3163785   3157098   3150492   3143964  
  5020.000000   3137524   3131176   3124942   3118832   3112871  
  5010.000000   3107059   3101411   3095910   3090566   3085358  
  5000.000000   3080302   3075382   3070627   3066027   3061618  
  4990.000000   3057396   3053401   3049628   3046117   3042853  
  4980.000000   3039869   3037140   3034698   3032517   3030639  
  4970.000000   3029048   3027790   3026843   3026246   3025959  
  4960.000000   3026009   3026352   3027027   3028008   3029352  
  4950.000000   3031043   3033133   3035586   3038427   3041599  
  4940.000000   3045118   3048934   3053084   3057543   3062362  
  4930.000000   3067518   3073049   3078915   3085137   3091665  
  4920.000000   3098517   3105651   3113088   3120787   3128762  
  4910.000000   3136972   3145425   3154086   3162962   3172029  
  4900.000000   3181290   3190717   3200294   3209985   3219758  
  4890.000000   3229577   3239403   3249206   3258941   3268579  
  4880.000000   3278068   3287382   3296470   3305317   3313877  
  4870.000000   3322142   3330065   3337638   3344812   3351595  
  4860.000000   3357960   3363946   3369559   3374866   3379880  
  4850.000000   3384663   3389213   3393571   3397721   3401696  
  4840.000000   3405485   3409127   3412618   3415999   3419267  
  4830.000000   3422456   3425562   3428608   3431585   3434505  
  4820.000000   3437351   3440120   3442792   3445365   3447829  
  4810.000000   3450197   3452474   3454678   3456815   3458896  
  4800.000000   3460918   3462890   3464809   3466692   3468546  
  4790.000000   3470391   3472226   3474057   3475865   3477643  
  4780.000000   3479371   3481053   3482686   3484285   3485852  
  4770.000000   3487393   3488884   3490311   3491635   3492840  
  4760.000000   3493903   3494832   3495628   3496314   3496893  
  4750.000000   3497379   3497757   3498028   3498166   3498172  
  4740.000000   3498031   3497753   3497334   3496793   3496130  
  4730.000000   3495363   3494489   3493521   3492458   3491310  
  4720.000000   3490076   3488766   3487385   3485948   3484467  
  4710.000000   3482963   3481458   3479974   3478534   3477158  
  4700.000000   3475864   3474665   3473572   3472587   3471710  
  4690.000000   3470934   3470248   3469633   3469079   3468565  
  4680.000000   3468082   3467614   3467152   3466672   3466162  
  4670.000000   3465593   3464957   3464241   3463462   3462642  
  4660.000000   3461832   3461078   3460441   3459964   3459688  
  4650.000000   3459631   3459805   3460205   3460823   3461638  
  4640.000000   3462629   3463761   3465004   3466320   3467678  
  4630.000000   3469046   3470402   3471728   3473011   3474237  
  4620.000000   3475394   3476465   3477432   3478280   3478990  
  4610.000000   3479558   3479975   3480253   3480402   3480449  
  4600.000000   3480416   3480340   3480240   3480146   3480059  
  4590.000000   3479989   3479917   3479832   3479702   3479510  
  4580.000000   3479226   3478840   3478335   3477711   3476964  
  4570.000000   3476105   3475141   3474091   3472968   3471793  
  4560.000000   3470576   3469334   3468071   3466792   3465495  
  4550.000000   3464179   3462840   3461473   3460079   3458659  
  4540.000000   3457227   3455794   3454389   3453029   3451748  
  4530.000000   3450553   3449469   3448484   3447619   3446855  
  4520.000000   3446225   3445723   3445402   3445266   3445380  
  4510.000000   3445745   3446429   3447427   3448816   3450589  
  4500.000000   3452835   3455545   3458807   3462603   3467013  
  4490.000000   3472009   3477671   3483971   3490987   3498683  
  4480.000000   3507121   3516245   3526089   3536579   3547733  
  4470.000000   3559468   3571790   3584610   3597915   3611605  
  4460.000000   3625650   3639951   3654479   3669155   3683960  
  4450.000000   3698838   3713766   3728700   3743612   3758471  
  4440.000000   3773252   3787952   3802554   3817075   3831488  
  4430.000000   3845804   3859956   3873935   3887638   3901041  
  4420.000000   3914033   3926599   3938632   3950130   3960986  
  4410.000000   3971191   3980632   3989297   3997086   4004023  
  4400.000000   4010062   4015291   4019733   4023523   4026719  
  4390.000000   4029458   4031793   4033836   4035628   4037261  
  4380.000000   4038772   4040243   4041722   4043285   4044990  
  4370.000000   4046910   4049103   4051625   4054516   4057796  
  4360.000000   4061468   4065512   4069897   4074587   4079525  
  4350.000000   4084672   4089960   4095355   4100790   4106255  
  4340.000000   4111697   4117114   4122430   4127561   4132305  
  4330.000000   4136412   4139538   4141365   4141619   4140205  
  4320.000000   4137205   4132939   4127858   4122522   4117420  
  4310.000000   4112962   4109347   4106644   4104746   4103512  
  4300.000000   4102747   4102313   4102089   4102008   4102022  
  4290.000000   4102092   4102199   4102313   4102442   4102586  
  4280.000000   4102770   4103018   4103345   4103771   4104291  
  4270.000000   4104916   4105617   4106374   4107100   4107684  
  4260.000000   4107943   4107682   4106694   4104836   4102042  
  4250.000000   4098370   4093974   4089105   4084026   4079011  
  4240.000000   4074256   4069909   4066013   4062572   4059515  
  4230.000000   4056769   4054230   4051804   4049403   4046952  
  4220.000000   4044411   4041752   4039005   4036199   4033420  
  4210.000000   4030725   4028203   4025895   4023852   4022074  
  4200.000000   4020571   4019312   4018284   4017439   4016764  
  4190.000000   4016210   4015780   4015440   4015219   4015103  
  4180.000000   4015145   4015338   4015746   4016362   4017255  
  4170.000000   4018425   4019955   4021858   4024220   4027048  
  4160.000000   4030411   4034283   4038703   4043618   4049056  
  4150.000000   4054957   4061353   4068190   4075502   4083235  
  4140.000000   4091431   4100044   4109131   4118663   4128701  
  4130.000000   4139211   4150227   4161684   4173585   4185850  
  4120.000000   4198484   4211436   4224749   4238413   4252490  
  4110.000000   4266975   4281901   4297222   4312914   4328889  
  4100.000000   4345095   4361448   4377921   4394484   4411160  
  4090.000000   4427969   4444951   4462132   4479518   4497103  
  4080.000000   4514850   4532732   4550689   4568691   4586662  
  4070.000000   4604566   4622302   4639827   4657039   4673918  
  4060.000000   4690386   4706465   4722090   4737294   4751999  
  4050.000000   4766243   4779950   4793187   4805891   4818135  
  4040.000000   4829822   4840974   4851428   4861166   4870021  
  4030.000000   4878017   4885052   4891206   4896421   4900773  
  4020.000000   4904171   4906688   4908297   4909101   4909068  
  4010.000000   4908363   4907066   4905230   4902666   4899465  
  4000.000000   4895937  
##END= 
