##TITLE= Sample 013 By ssteindl date Montag, November 26 2018
##JCAMP-DX= 4.24
##DATA TYPE= INFRARED SPECTRUM
##ORIGIN= Exported PE Spectrum Data File
##OWNER= Sandra Steindl
##DATE= 18/11/26
##TIME= 13:45:20.00
##SPECTROMETER/DATA SYSTEM= PERKIN-ELMER Frontier FT-IR/NIR IR
##INSTRUMENT PARAMETERS=
  APODIZATION=stark
  DETECTOR=INGAAS
##RESOLUTION= 16.000000
##DELTAX= -2.000000
##XUNITS= 1/CM
##YUNITS= A
##XFACTOR= 1.00
##YFACTOR= 0.00000011920928955078
##FIRSTX= 10000.00
##LASTX= 4000.00
##NPOINTS= 3001
##FIRSTY= 0.242763
##MAXY= 0.600733
##MINY= 0.216119
##XYDATA= (X++(Y..Y))
 10000.000000   2036439   2033929   2032362   2032536   2033667  
  9990.000000   2034282   2033796   2032824   2032480   2033908  
  9980.000000   2038077   2045228   2054422   2063752   2071040  
  9970.000000   2074582   2073676   2068926   2062003   2055067  
  9960.000000   2049995   2047849   2048589   2051279   2054454  
  9950.000000   2056644   2056744   2054243   2049194   2042143  
  9940.000000   2033906   2025477   2017830   2011819   2008009  
  9930.000000   2006569   2007242   2009394   2012197   2014840  
  9920.000000   2016747   2017680   2017767   2017299   2016615  
  9910.000000   2015823   2014886   2013587   2011844   2009748  
  9900.000000   2007713   2006319   2006128   2007516   2010438  
  9890.000000   2014522   2019044   2023274   2026607   2028800  
  9880.000000   2029984   2030527   2030865   2031217   2031504  
  9870.000000   2031280   2029943   2026946   2022100   2015728  
  9860.000000   2008651   2002045   1997071   1994617   1994941  
  9850.000000   1997682   2001903   2006441   2010225   2012574  
  9840.000000   2013325   2012761   2011434   2009894   2008534  
  9830.000000   2007468   2006642   2005885   2005112   2004330  
  9820.000000   2003668   2003266   2003153   2003224   2003204  
  9810.000000   2002804   2001824   2000281   1998454   1996777  
  9800.000000   1995739   1995656   1996593   1998275   2000196  
  9790.000000   2001762   2002502   2002255   2001214   1999918  
  9780.000000   1999017   1999133   2000575   2003326   2006979  
  9770.000000   2010916   2014453   2017012   2018247   2018013  
  9760.000000   2016367   2013412   2009291   2004125   1998088  
  9750.000000   1991451   1984647   1978263   1972974   1969436  
  9740.000000   1968086   1969077   1972119   1976608   1981656  
  9730.000000   1986346   1989919   1991933   1992454   1991897  
  9720.000000   1991019   1990479   1990720   1991657   1992790  
  9710.000000   1993339   1992630   1990434   1987139   1983753  
  9700.000000   1981500   1981494   1984182   1989270   1995690  
  9690.000000   2002038   2007013   2009810   2010337   2009036  
  9680.000000   2006657   2003823   2000892   1997854   1994569  
  9670.000000   1990956   1987167   1983643   1980902   1979472  
  9660.000000   1979572   1981220   1984135   1987993   1992428  
  9650.000000   1997123   2001695   2005616   2008203   2008711  
  9640.000000   2006638   2001927   1995190   1987539   1980341  
  9630.000000   1974722   1971223   1969641   1969154   1968729  
  9620.000000   1967503   1965163   1961976   1958689   1956138  
  9610.000000   1954973   1955363   1957024   1959345   1961650  
  9600.000000   1963458   1964568   1965087   1965235   1965204  
  9590.000000   1965001   1964432   1963163   1960897   1957484  
  9580.000000   1953077   1948068   1943046   1938606   1935186  
  9570.000000   1932965   1931804   1931341   1931135   1930843  
  9560.000000   1930392   1929974   1929985   1930787   1932519  
  9550.000000   1934978   1937670   1940001   1941535   1942168  
  9540.000000   1942202   1942184   1942713   1944137   1946413  
  9530.000000   1949051   1951291   1952347   1951709   1949312  
  9520.000000   1945554   1941174   1937019   1933863   1932205  
  9510.000000   1932237   1933793   1936441   1939563   1942502  
  9500.000000   1944699   1945813   1945789   1944846   1943380  
  9490.000000   1941833   1940549   1939680   1939210   1939011  
  9480.000000   1938980   1939122   1939519   1940311   1941488  
  9470.000000   1942884   1944103   1944707   1944381   1943107  
  9460.000000   1941200   1939151   1937422   1936182   1935263  
  9450.000000   1934184   1932448   1929746   1926209   1922356  
  9440.000000   1918927   1916582   1915599   1915853   1916877  
  9430.000000   1918204   1919573   1921076   1923069   1925944  
  9420.000000   1929869   1934545   1939211   1942804   1944363  
  9410.000000   1943337   1939849   1934625   1928796   1923551  
  9400.000000   1919801   1918018   1918115   1919609   1921740  
  9390.000000   1923768   1925092   1925406   1924657   1923023  
  9380.000000   1920801   1918325   1915911   1913748   1911959  
  9370.000000   1910519   1909401   1908522   1907852   1907367  
  9360.000000   1907069   1906975   1907089   1907439   1908070  
  9350.000000   1909084   1910609   1912774   1915633   1919120  
  9340.000000   1923029   1927030   1930720   1933695   1935615  
  9330.000000   1936276   1935637   1933843   1931184   1928076  
  9320.000000   1924956   1922243   1920179   1918833   1918016  
  9310.000000   1917415   1916654   1915464   1913735   1911552  
  9300.000000   1909122   1906656   1904275   1901950   1899579  
  9290.000000   1897068   1894482   1892050   1890134   1889097  
  9280.000000   1889133   1890203   1892001   1894098   1896099  
  9270.000000   1897756   1899040   1900030   1900856   1901489  
  9260.000000   1901773   1901433   1900270   1898263   1895629  
  9250.000000   1892804   1890292   1888571   1887915   1888390  
  9240.000000   1889831   1891951   1894382   1896709   1898477  
  9230.000000   1899226   1898595   1896432   1892901   1888491  
  9220.000000   1883945   1880099   1877662   1876986   1877941  
  9210.000000   1880002   1882416   1884462   1885579   1885499  
  9200.000000   1884244   1882051   1879303   1876364   1873618  
  9190.000000   1871326   1869705   1868766   1868386   1868286  
  9180.000000   1868182   1867903   1867468   1867189   1867538  
  9170.000000   1869009   1871861   1875994   1880993   1886192  
  9160.000000   1890941   1894708   1897230   1898484   1898577  
  9150.000000   1897669   1895893   1893512   1890963   1888911  
  9140.000000   1888044   1888928   1891676   1895830   1900280  
  9130.000000   1903639   1904648   1902651   1897811   1891040  
  9120.000000   1883710   1877150   1872251   1869222   1867672  
  9110.000000   1866894   1866225   1865326   1864219   1863220  
  9100.000000   1862687   1862865   1863761   1865164   1866778  
  9090.000000   1868287   1869511   1870290   1870566   1870268  
  9080.000000   1869427   1868156   1866720   1865483   1864834  
  9070.000000   1865048   1866163   1867964   1870036   1871953  
  9060.000000   1873411   1874340   1874888   1875310   1875866  
  9050.000000   1876642   1877551   1878348   1878758   1878585  
  9040.000000   1877766   1876452   1874924   1873615   1872925  
  9030.000000   1873236   1874721   1877341   1880737   1884288  
  9020.000000   1887219   1888762   1888383   1885875   1881474  
  9010.000000   1875738   1869444   1863339   1858024   1853872  
  9000.000000   1851057   1849631   1849516   1850609   1852691  
  8990.000000   1855484   1858583   1861591   1864202   1866266  
  8980.000000   1867816   1868946   1869784   1870267   1870233  
  8970.000000   1869407   1867677   1865142   1862181   1859367  
  8960.000000   1857246   1856178   1856131   1856812   1857790  
  8950.000000   1858773   1859691   1860721   1862093   1863882  
  8940.000000   1865843   1867431   1868019   1867160   1864859  
  8930.000000   1861597   1858207   1855517   1854029   1853747  
  8920.000000   1854215   1854790   1854915   1854394   1853406  
  8910.000000   1852389   1851760   1851721   1852170   1852776  
  8900.000000   1853183   1853158   1852731   1852067   1851381  
  8890.000000   1850738   1850065   1849185   1847993   1846576  
  8880.000000   1845263   1844499   1844675   1845932   1848098  
  8870.000000   1850742   1853359   1855564   1857236   1858496  
  8860.000000   1859608   1860797   1862137   1863526   1864764  
  8850.000000   1865691   1866287   1866704   1867180   1867924  
  8840.000000   1868984   1870230   1871383   1872147   1872309  
  8830.000000   1871808   1870743   1869299   1867689   1866086  
  8820.000000   1864597   1863311   1862289   1861633   1861416  
  8810.000000   1861706   1862480   1863675   1865167   1866817  
  8800.000000   1868484   1869999   1871198   1871847   1871736  
  8790.000000   1870659   1868566   1865571   1862031   1858444  
  8780.000000   1855382   1853330   1852601   1853259   1855133  
  8770.000000   1857892   1861134   1864497   1867677   1870498  
  8760.000000   1872873   1874841   1876505   1878034   1879605  
  8750.000000   1881352   1883331   1885439   1887456   1889042  
  8740.000000   1889856   1889609   1888147   1885508   1881915  
  8730.000000   1877772   1873566   1869826   1867026   1865536  
  8720.000000   1865541   1866999   1869622   1872922   1876296  
  8710.000000   1879166   1881103   1881932   1881795   1881068  
  8700.000000   1880306   1880013   1880568   1882057   1884318  
  8690.000000   1886960   1889500   1891491   1892641   1892903  
  8680.000000   1892472   1891734   1891134   1891058   1891705  
  8670.000000   1893037   1894781   1896525   1897839   1898439  
  8660.000000   1898272   1897548   1896661   1896046   1896029  
  8650.000000   1896695   1897879   1899208   1900259   1900702  
  8640.000000   1900429   1899596   1898580   1897867   1897903  
  8630.000000   1898961   1901056   1903953   1907239   1910427  
  8620.000000   1913073   1914875   1915744   1915807   1915362  
  8610.000000   1914790   1914460   1914614   1915326   1916475  
  8600.000000   1917816   1919036   1919877   1920197   1920031  
  8590.000000   1919562   1919059   1918805   1919004   1919748  
  8580.000000   1920993   1922621   1924491   1926501   1928600  
  8570.000000   1930795   1933111   1935548   1938025   1940371  
  8560.000000   1942355   1943724   1944294   1943998   1942949  
  8550.000000   1941407   1939733   1938300   1937408   1937225  
  8540.000000   1937737   1938795   1940147   1941544   1942778  
  8530.000000   1943752   1944464   1945014   1945551   1946227  
  8520.000000   1947163   1948393   1949867   1951438   1952912  
  8510.000000   1954088   1954831   1955100   1954974   1954623  
  8500.000000   1954265   1954088   1954195   1954566   1955093  
  8490.000000   1955627   1956045   1956310   1956464   1956640  
  8480.000000   1956987   1957633   1958631   1959962   1961551  
  8470.000000   1963285   1965041   1966680   1968069   1969071  
  8460.000000   1969569   1969503   1968915   1967959   1966890  
  8450.000000   1965998   1965541   1965654   1966316   1967358  
  8440.000000   1968523   1969560   1970281   1970650   1970757  
  8430.000000   1970807   1971032   1971645   1972775   1974434  
  8420.000000   1976495   1978710   1980761   1982319   1983131  
  8410.000000   1983080   1982246   1980882   1979349   1978003  
  8400.000000   1977085   1976656   1976594   1976679   1976686  
  8390.000000   1976513   1976205   1975963   1976020   1976553  
  8380.000000   1977579   1978940   1980370   1981564   1982294  
  8370.000000   1982456   1982098   1981365   1980446   1979523  
  8360.000000   1978749   1978254   1978142   1978473   1979236  
  8350.000000   1980330   1981551   1982638   1983325   1983444  
  8340.000000   1982973   1982067   1980978   1979988   1979298  
  8330.000000   1978991   1979012   1979220   1979448   1979562  
  8320.000000   1979479   1979159   1978568   1977671   1976440  
  8310.000000   1974889   1973107   1971251   1969529   1968129  
  8300.000000   1967168   1966653   1966491   1966554   1966728  
  8290.000000   1966979   1967331   1967850   1968567   1969452  
  8280.000000   1970399   1971260   1971905   1972257   1972321  
  8270.000000   1972137   1971749   1971150   1970286   1969085  
  8260.000000   1967519   1965649   1963632   1961697   1960053  
  8250.000000   1958853   1958123   1957804   1957773   1957921  
  8240.000000   1958170   1958481   1958813   1959091   1959186  
  8230.000000   1958940   1958226   1957014   1955416   1953654  
  8220.000000   1952000   1950674   1949764   1949199   1948767  
  8210.000000   1948217   1947342   1946082   1944524   1942882  
  8200.000000   1941391   1940245   1939508   1939128   1938943  
  8190.000000   1938761   1938414   1937816   1936970   1935954  
  8180.000000   1934875   1933827   1932857   1931943   1931010  
  8170.000000   1929939   1928612   1926946   1924926   1922634  
  8160.000000   1920233   1917949   1916015   1914626   1913882  
  8150.000000   1913767   1914135   1914740   1915288   1915494  
  8140.000000   1915164   1914220   1912738   1910897   1908950  
  8130.000000   1907136   1905625   1904485   1903670   1903081  
  8120.000000   1902593   1902147   1901741   1901446   1901331  
  8110.000000   1901415   1901605   1901690   1901394   1900441  
  8100.000000   1898671   1896084   1892884   1889421   1886118  
  8090.000000   1883360   1881399   1880312   1879993   1880216  
  8080.000000   1880691   1881153   1881406   1881356   1881015  
  8070.000000   1880466   1879840   1879254   1878797   1878485  
  8060.000000   1878292   1878132   1877926   1877604   1877153  
  8050.000000   1876600   1875999   1875403   1874833   1874273  
  8040.000000   1873683   1873026   1872308   1871587   1870962  
  8030.000000   1870541   1870389   1870500   1870786   1871116  
  8020.000000   1871353   1871414   1871290   1871033   1870726  
  8010.000000   1870428   1870143   1869815   1869358   1868696  
  8000.000000   1867806   1866733   1865574   1864449   1863456  
  7990.000000   1862644   1862005   1861494   1861049   1860620  
  7980.000000   1860175   1859707   1859218   1858720   1858228  
  7970.000000   1857769   1857375   1857077   1856893   1856800  
  7960.000000   1856744   1856635   1856391   1855957   1855342  
  7950.000000   1854611   1853867   1853204   1852678   1852275  
  7940.000000   1851933   1851563   1851109   1850565   1849993  
  7930.000000   1849485   1849134   1848979   1849000   1849118  
  7920.000000   1849240   1849295   1849279   1849244   1849290  
  7910.000000   1849509   1849953   1850605   1851383   1852168  
  7900.000000   1852843   1853331   1853616   1853736   1853766  
  7890.000000   1853781   1853823   1853890   1853933   1853877  
  7880.000000   1853653   1853231   1852637   1851961   1851334  
  7870.000000   1850896   1850742   1850901   1851310   1851836  
  7860.000000   1852309   1852575   1852540   1852198   1851622  
  7850.000000   1850941   1850288   1849772   1849448   1849318  
  7840.000000   1849357   1849510   1849728   1849946   1850097  
  7830.000000   1850097   1849865   1849344   1848540   1847547  
  7820.000000   1846537   1845740   1845364   1845559   1846331  
  7810.000000   1847571   1849047   1850498   1851681   1852437  
  7800.000000   1852704   1852499   1851887   1850928   1849670  
  7790.000000   1848136   1846359   1844400   1842371   1840436  
  7780.000000   1838767   1837531   1836809   1836618   1836855  
  7770.000000   1837369   1837957   1838437   1838675   1838601  
  7760.000000   1838233   1837629   1836888   1836082   1835260  
  7750.000000   1834411   1833497   1832469   1831315   1830084  
  7740.000000   1828891   1827901   1827269   1827101   1827392  
  7730.000000   1828035   1828833   1829561   1830032   1830145  
  7720.000000   1829911   1829419   1828809   1828194   1827641  
  7710.000000   1827145   1826660   1826125   1825511   1824834  
  7700.000000   1824159   1823575   1823161   1822968   1822989  
  7690.000000   1823181   1823468   1823773   1824032   1824211  
  7680.000000   1824304   1824326   1824295   1824223   1824109  
  7670.000000   1823927   1823646   1823227   1822649   1821904  
  7660.000000   1821017   1820035   1819017   1818029   1817124  
  7650.000000   1816353   1815747   1815340   1815155   1815215  
  7640.000000   1815518   1816033   1816690   1817372   1817947  
  7630.000000   1818279   1818284   1817929   1817266   1816398  
  7620.000000   1815466   1814597   1813888   1813385   1813085  
  7610.000000   1812952   1812939   1813010   1813146   1813350  
  7600.000000   1813631   1813995   1814430   1814903   1815360  
  7590.000000   1815735   1815976   1816045   1815950   1815725  
  7580.000000   1815441   1815166   1814958   1814839   1814791  
  7570.000000   1814773   1814737   1814666   1814581   1814549  
  7560.000000   1814650   1814959   1815501   1816245   1817104  
  7550.000000   1817957   1818691   1819219   1819509   1819571  
  7540.000000   1819453   1819211   1818909   1818601   1818346  
  7530.000000   1818200   1818219   1818441   1818884   1819529  
  7520.000000   1820332   1821229   1822160   1823079   1823967  
  7510.000000   1824819   1825637   1826415   1827146   1827818  
  7500.000000   1828440   1829036   1829654   1830332   1831093  
  7490.000000   1831910   1832722   1833437   1833977   1834303  
  7480.000000   1834445   1834495   1834587   1834857   1835409  
  7470.000000   1836289   1837482   1838922   1840518   1842171  
  7460.000000   1843800   1845336   1846742   1847993   1849098  
  7450.000000   1850079   1850981   1851854   1852757   1853736  
  7440.000000   1854832   1856063   1857434   1858940   1860557  
  7430.000000   1862252   1863971   1865651   1867228   1868652  
  7420.000000   1869907   1871012   1872022   1873006   1874030  
  7410.000000   1875131   1876312   1877549   1878802   1880036  
  7400.000000   1881240   1882417   1883581   1884739   1885886  
  7390.000000   1886999   1888055   1889042   1889973   1890895  
  7380.000000   1891878   1892998   1894316   1895860   1897616  
  7370.000000   1899527   1901502   1903428   1905194   1906708  
  7360.000000   1907927   1908862   1909588   1910222   1910894  
  7350.000000   1911716   1912746   1913979   1915349   1916764  
  7340.000000   1918141   1919435   1920646   1921804   1922945  
  7330.000000   1924087   1925224   1926334   1927403   1928441  
  7320.000000   1929486   1930597   1931823   1933188   1934671  
  7310.000000   1936224   1937783   1939300   1940748   1942126  
  7300.000000   1943434   1944658   1945758   1946680   1947386  
  7290.000000   1947874   1948191   1948431   1948698   1949081  
  7280.000000   1949623   1950324   1951151   1952071   1953054  
  7270.000000   1954098   1955198   1956338   1957476   1958538  
  7260.000000   1959454   1960166   1960676   1961024   1961303  
  7250.000000   1961597   1961982   1962488   1963122   1963872  
  7240.000000   1964748   1965778   1967015   1968494   1970227  
  7230.000000   1972159   1974202   1976228   1978142   1979875  
  7220.000000   1981440   1982884   1984314   1985833   1987553  
  7210.000000   1989551   1991881   1994543   1997500   2000662  
  7200.000000   2003915   2007122   2010176   2012996   2015576  
  7190.000000   2017952   2020215   2022455   2024762   2027181  
  7180.000000   2029735   2032408   2035190   2038064   2041029  
  7170.000000   2044079   2047206   2050383   2053582   2056771  
  7160.000000   2059944   2063101   2066272   2069469   2072710  
  7150.000000   2075975   2079250   2082507   2085758   2089027  
  7140.000000   2092384   2095889   2099610   2103563   2107750  
  7130.000000   2112125   2116647   2121255   2125916   2130589  
  7120.000000   2135265   2139931   2144609   2149318   2154106  
  7110.000000   2159002   2164036   2169189   2174430   2179690  
  7100.000000   2184924   2190096   2195233   2200386   2205635  
  7090.000000   2211035   2216603   2222299   2228055   2233787  
  7080.000000   2239450   2245035   2250585   2256162   2261822  
  7070.000000   2267583   2273427   2279299   2285141   2290906  
  7060.000000   2296572   2302138   2307614   2313005   2318312  
  7050.000000   2323535   2328687   2333795   2338905   2344068  
  7040.000000   2349324   2354690   2360153   2365683   2371233  
  7030.000000   2376770   2382264   2387705   2393088   2398416  
  7020.000000   2403692   2408925   2414114   2419266   2424369  
  7010.000000   2429412   2434364   2439207   2443923   2448526  
  7000.000000   2453033   2457481   2461880   2466226   2470472  
  6990.000000   2474572   2478475   2482184   2485733   2489207  
  6980.000000   2492680   2496215   2499803   2503407   2506948  
  6970.000000   2510375   2513659   2516830   2519923   2522978  
  6960.000000   2525981   2528888   2531622   2534135   2536420  
  6950.000000   2538543   2540602   2542708   2544913   2547215  
  6940.000000   2549536   2551783   2553865   2555759   2557482  
  6930.000000   2559102   2560679   2562253   2563818   2565349  
  6920.000000   2566811   2568197   2569520   2570813   2572097  
  6910.000000   2573377   2574625   2575813   2576917   2577954  
  6900.000000   2578963   2580001   2581104   2582272   2583459  
  6890.000000   2584596   2585614   2586481   2587208   2587848  
  6880.000000   2588470   2589136   2589880   2590713   2591629  
  6870.000000   2592622   2593684   2594808   2595970   2597125  
  6860.000000   2598206   2599144   2599888   2600429   2600809  
  6850.000000   2601109   2601420   2601819   2602342   2602986  
  6840.000000   2603705   2604444   2605145   2605775   2606312  
  6830.000000   2606759   2607124   2607423   2607670   2607878  
  6820.000000   2608056   2608205   2608316   2608384   2608401  
  6810.000000   2608381   2608347   2608344   2608412   2608579  
  6800.000000   2608841   2609160   2609473   2609712   2609823  
  6790.000000   2609790   2609630   2609393   2609134   2608907  
  6780.000000   2608744   2608658   2608643   2608676   2608723  
  6770.000000   2608744   2608692   2608529   2608230   2607799  
  6760.000000   2607272   2606715   2606201   2605798   2605545  
  6750.000000   2605443   2605458   2605536   2605616   2605647  
  6740.000000   2605587   2605418   2605128   2604726   2604235  
  6730.000000   2603699   2603177   2602730   2602405   2602214  
  6720.000000   2602125   2602073   2601978   2601777   2601444  
  6710.000000   2601002   2600506   2600025   2599608   2599277  
  6700.000000   2599015   2598791   2598565   2598317   2598031  
  6690.000000   2597706   2597329   2596885   2596342   2595681  
  6680.000000   2594888   2593981   2592988   2591952   2590900  
  6670.000000   2589852   2588803   2587751   2586688   2585627  
  6660.000000   2584575   2583551   2582553   2581570   2580577  
  6650.000000   2579555   2578489   2577384   2576253   2575115  
  6640.000000   2573974   2572826   2571657   2570458   2569226  
  6630.000000   2567975   2566724   2565489   2564272   2563063  
  6620.000000   2561841   2560591   2559308   2558007   2556702  
  6610.000000   2555415   2554146   2552887   2551623   2550347  
  6600.000000   2549062   2547785   2546528   2545289   2544037  
  6590.000000   2542722   2541295   2539726   2538029   2536258  
  6580.000000   2534493   2532811   2531258   2529841   2528528  
  6570.000000   2527271   2526030   2524788   2523551   2522338  
  6560.000000   2521166   2520031   2518917   2517795   2516649  
  6550.000000   2515474   2514282   2513092   2511920   2510773  
  6540.000000   2509652   2508558   2507500   2506493   2505546  
  6530.000000   2504650   2503772   2502858   2501854   2500730  
  6520.000000   2499496   2498210   2496954   2495803   2494798  
  6510.000000   2493927   2493132   2492333   2491459   2490478  
  6500.000000   2489402   2488274   2487143   2486045   2484987  
  6490.000000   2483954   2482920   2481871   2480807   2479748  
  6480.000000   2478722   2477747   2476830   2475963   2475130  
  6470.000000   2474308   2473483   2472637   2471762   2470845  
  6460.000000   2469884   2468886   2467872   2466872   2465921  
  6450.000000   2465037   2464221   2463447   2462679   2461883  
  6440.000000   2461046   2460179   2459316   2458496   2457743  
  6430.000000   2457060   2456429   2455823   2455227   2454643  
  6420.000000   2454097   2453617   2453223   2452905   2452628  
  6410.000000   2452337   2451988   2451558   2451061   2450544  
  6400.000000   2450068   2449693   2449456   2449365   2449401  
  6390.000000   2449522   2449677   2449811   2449877   2449838  
  6380.000000   2449676   2449399   2449034   2448632   2448249  
  6370.000000   2447934   2447715   2447588   2447523   2447475  
  6360.000000   2447391   2447235   2446981   2446627   2446177  
  6350.000000   2445649   2445063   2444445   2443824   2443231  
  6340.000000   2442687   2442201   2441760   2441335   2440882  
  6330.000000   2440371   2439779   2439112   2438388   2437640  
  6320.000000   2436889   2436146   2435403   2434643   2433844  
  6310.000000   2432998   2432101   2431165   2430197   2429211  
  6300.000000   2428210   2427203   2426190   2425178   2424167  
  6290.000000   2423156   2422135   2421091   2420010   2418887  
  6280.000000   2417724   2416536   2415335   2414134   2412933  
  6270.000000   2411730   2410514   2409284   2408042   2406800  
  6260.000000   2405560   2404317   2403045   2401713   2400289  
  6250.000000   2398762   2397148   2395497   2393866   2392316  
  6240.000000   2390877   2389551   2388308   2387107   2385904  
  6230.000000   2384671   2383393   2382069   2380700   2379288  
  6220.000000   2377833   2376336   2374808   2373266   2371732  
  6210.000000   2370226   2368758   2367323   2365913   2364515  
  6200.000000   2363124   2361742   2360376   2359031   2357701  
  6190.000000   2356377   2355049   2353717   2352396   2351114  
  6180.000000   2349905   2348789   2347768   2346812   2345876  
  6170.000000   2344907   2343862   2342718   2341480   2340169  
  6160.000000   2338818   2337463   2336140   2334880   2333712  
  6150.000000   2332652   2331699   2330833   2330010   2329173  
  6140.000000   2328270   2327266   2326158   2324974   2323760  
  6130.000000   2322562   2321413   2320319   2319269   2318237  
  6120.000000   2317210   2316179   2315151   2314136   2313142  
  6110.000000   2312163   2311194   2310225   2309267   2308336  
  6100.000000   2307464   2306672   2305977   2305366   2304821  
  6090.000000   2304310   2303821   2303354   2302933   2302580  
  6080.000000   2302323   2302158   2302077   2302046   2302042  
  6070.000000   2302040   2302042   2302053   2302095   2302177  
  6060.000000   2302316   2302509   2302762   2303072   2303449  
  6050.000000   2303887   2304392   2304947   2305549   2306178  
  6040.000000   2306839   2307529   2308275   2309095   2310022  
  6030.000000   2311073   2312271   2313621   2315135   2316807  
  6020.000000   2318633   2320582   2322622   2324697   2326762  
  6010.000000   2328766   2330693   2332539   2334335   2336112  
  6000.000000   2337918   2339777   2341717   2343738   2345847  
  5990.000000   2348035   2350304   2352643   2355054   2357523  
  5980.000000   2360052   2362637   2365292   2368028   2370865  
  5970.000000   2373807   2376856   2379987   2383185   2386421  
  5960.000000   2389695   2393007   2396384   2399838   2403384  
  5950.000000   2407003   2410671   2414343   2417990   2421592  
  5940.000000   2425166   2428743   2432376   2436113   2439986  
  5930.000000   2444005   2448149   2452373   2456612   2460794  
  5920.000000   2464845   2468707   2472343   2475747   2478935  
  5910.000000   2481952   2484843   2487658   2490426   2493170  
  5900.000000   2495891   2498600   2501298   2504006   2506730  
  5890.000000   2509484   2512254   2515024   2517758   2520432  
  5880.000000   2523024   2525532   2527960   2530317   2532602  
  5870.000000   2534807   2536914   2538918   2540826   2542669  
  5860.000000   2544491   2546341   2548251   2550231   2552269  
  5850.000000   2554344   2556435   2558535   2560654   2562812  
  5840.000000   2565027   2567307   2569645   2572020   2574412  
  5830.000000   2576801   2579177   2581533   2583866   2586169  
  5820.000000   2588436   2590662   2592851   2595019   2597183  
  5810.000000   2599364   2601558   2603763   2605945   2608091  
  5800.000000   2610177   2612223   2614236   2616256   2618278  
  5790.000000   2620300   2622255   2624078   2625656   2626902  
  5780.000000   2627709   2628019   2627774   2626973   2625635  
  5770.000000   2623843   2621699   2619354   2616941   2614596  
  5760.000000   2612390   2610369   2608515   2606810   2605216  
  5750.000000   2603724   2602330   2601044   2599865   2598777  
  5740.000000   2597751   2596748   2595745   2594726   2593707  
  5730.000000   2592698   2591721   2590773   2589848   2588928  
  5720.000000   2588006   2587087   2586195   2585359   2584608  
  5710.000000   2583950   2583384   2582890   2582451   2582052  
  5700.000000   2581690   2581362   2581059   2580768   2580459  
  5690.000000   2580112   2579709   2579264   2578796   2578343  
  5680.000000   2577921   2577533   2577141   2576691   2576109  
  5670.000000   2575334   2574314   2573029   2571479   2569691  
  5660.000000   2567704   2565577   2563370   2561152   2558972  
  5650.000000   2556871   2554857   2552925   2551046   2549201  
  5640.000000   2547377   2545580   2543824   2542128   2540500  
  5630.000000   2538928   2537399   2535890   2534398   2532930  
  5620.000000   2531515   2530179   2528946   2527814   2526773  
  5610.000000   2525791   2524847   2523920   2523009   2522115  
  5600.000000   2521242   2520388   2519549   2518716   2517891  
  5590.000000   2517081   2516299   2515553   2514838   2514134  
  5580.000000   2513405   2512616   2511745   2510790   2509770  
  5570.000000   2508717   2507660   2506615   2505581   2504547  
  5560.000000   2503497   2502421   2501320   2500202   2499074  
  5550.000000   2497942   2496805   2495662   2494511   2493360  
  5540.000000   2492221   2491104   2490011   2488934   2487857  
  5530.000000   2486764   2485647   2484512   2483375   2482254  
  5520.000000   2481161   2480096   2479048   2477999   2476936  
  5510.000000   2475852   2474745   2473620   2472474   2471301  
  5500.000000   2470090   2468841   2467559   2466267   2464990  
  5490.000000   2463748   2462534   2461326   2460077   2458747  
  5480.000000   2457306   2455758   2454130   2452473   2450832  
  5470.000000   2449244   2447717   2446243   2444795   2443345  
  5460.000000   2441863   2440329   2438718   2437015   2435209  
  5450.000000   2433302   2431316   2429290   2427276   2425321  
  5440.000000   2423463   2421717   2420082   2418545   2417093  
  5430.000000   2415709   2414379   2413075   2411769   2410427  
  5420.000000   2409033   2407589   2406145   2404761   2403526  
  5410.000000   2402486   2401665   2401019   2400492   2400008  
  5400.000000   2399532   2399050   2398601   2398220   2397963  
  5390.000000   2397840   2397861   2397998   2398253   2398620  
  5380.000000   2399137   2399824   2400720   2401813   2403098  
  5370.000000   2404519   2406055   2407654   2409327   2411047  
  5360.000000   2412852   2414727   2416723   2418840   2421156  
  5350.000000   2423699   2426571   2429798   2433455   2437522  
  5340.000000   2442032   2446932   2452255   2457961   2464101  
  5330.000000   2470631   2477589   2484901   2492592   2500593  
  5320.000000   2508976   2517728   2526986   2536769   2547220  
  5310.000000   2558324   2570168   2582679   2595905   2609764  
  5300.000000   2624319   2639524   2655483   2672187   2689757  
  5290.000000   2708170   2727498   2747639   2768558   2790077  
  5280.000000   2812130   2834586   2857482   2880824   2904757  
  5270.000000   2929329   2954602   2980477   3006807   3033362  
  5260.000000   3059951   3086454   3112852   3139210   3165587  
  5250.000000   3192014   3218386   3244551   3270245   3295300  
  5240.000000   3319544   3343015   3365740   3387908   3409587  
  5230.000000   3430916   3451827   3472301   3492137   3511258  
  5220.000000   3529492   3546870   3563357   3579117   3594197  
  5210.000000   3608775   3622836   3636440   3649439   3661802  
  5200.000000   3673364   3684155   3694122   3703404   3712014  
  5190.000000   3720088   3727586   3734560   3740908   3746662  
  5180.000000   3751750   3756257   3760164   3763574   3766454  
  5170.000000   3768864   3770740   3772132   3772997   3773417  
  5160.000000   3773380   3772969   3772151   3770969   3769363  
  5150.000000   3767366   3764942   3762156   3759002   3755551  
  5140.000000   3751791   3747768   3743461   3738916   3734138  
  5130.000000   3729194   3724102   3718915   3713622   3708233  
  5120.000000   3702710   3697057   3691263   3685363   3679381  
  5110.000000   3673361   3667321   3661284   3655251   3649240  
  5100.000000   3643264   3637357   3631542   3625844   3620261  
  5090.000000   3614781   3609371   3604007   3598664   3593337  
  5080.000000   3588022   3582718   3577416   3572102   3566753  
  5070.000000   3561361   3555919   3550446   3544954   3539464  
  5060.000000   3533971   3528463   3522904   3517269   3511530  
  5050.000000   3505690   3499755   3493752   3487691   3481583  
  5040.000000   3475413   3469168   3462826   3456385   3449855  
  5030.000000   3443267   3436656   3430061   3423513   3417029  
  5020.000000   3410620   3404287   3398036   3391865   3385787  
  5010.000000   3379803   3373928   3368161   3362516   3356988  
  5000.000000   3351596   3346332   3341223   3336260   3331473  
  4990.000000   3326854   3322436   3318210   3314209   3310417  
  4980.000000   3306862   3303521   3300419   3297534   3294904  
  4970.000000   3292521   3290440   3288661   3287238   3286155  
  4960.000000   3285446   3285069   3285047   3285330   3285948  
  4950.000000   3286863   3288117   3289680   3291598   3293839  
  4940.000000   3296445   3299383   3302696   3306350   3310381  
  4930.000000   3314748   3319478   3324523   3329906   3335588  
  4920.000000   3341599   3347905   3354538   3361459   3368683  
  4910.000000   3376169   3383923   3391913   3400152   3408620  
  4900.000000   3417329   3426257   3435392   3444697   3454133  
  4890.000000   3463648   3473184   3482687   3492085   3501329  
  4880.000000   3510345   3519103   3527547   3535677   3543456  
  4870.000000   3550896   3557955   3564633   3570872   3576669  
  4860.000000   3581972   3586806   3591156   3595082   3598595  
  4850.000000   3601766   3604603   3607167   3609458   3611530  
  4840.000000   3613390   3615093   3616654   3618130   3619531  
  4830.000000   3620900   3622237   3623566   3624879   3626181  
  4820.000000   3627461   3628720   3629953   3631171   3632386  
  4810.000000   3633624   3634908   3636263   3637700   3639219  
  4800.000000   3640811   3642457   3644140   3645848   3647577  
  4790.000000   3649329   3651110   3652924   3654768   3656636  
  4780.000000   3658518   3660404   3662285   3664156   3666004  
  4770.000000   3667819   3669577   3671260   3672840   3674307  
  4760.000000   3675650   3676883   3678018   3679083   3680090  
  4750.000000   3681056   3681975   3682847   3683656   3684405  
  4740.000000   3685086   3685711   3686281   3686803   3687268  
  4730.000000   3687668   3687981   3688193   3688295   3688295  
  4720.000000   3688215   3688088   3687950   3687834   3687761  
  4710.000000   3687736   3687762   3687829   3687940   3688096  
  4700.000000   3688315   3688614   3689020   3689550   3690228  
  4690.000000   3691065   3692076   3693263   3694633   3696170  
  4680.000000   3697854   3699638   3701479   3703311   3705097  
  4670.000000   3706794   3708407   3709942   3711444   3712944  
  4660.000000   3714494   3716120   3717858   3719727   3721753  
  4650.000000   3723954   3726354   3728958   3731768   3734761  
  4640.000000   3737902   3741143   3744434   3747733   3751003  
  4630.000000   3754223   3757382   3760474   3763494   3766438  
  4620.000000   3769288   3772027   3774620   3777037   3779230  
  4610.000000   3781177   3782847   3784254   3785411   3786379  
  4600.000000   3787203   3787958   3788673   3789392   3790096  
  4590.000000   3790783   3791401   3791924   3792299   3792509  
  4580.000000   3792515   3792318   3791900   3791278   3790456  
  4570.000000   3789467   3788331   3787091   3785764   3784381  
  4560.000000   3782944   3781464   3779930   3778345   3776701  
  4550.000000   3775004   3773256   3771469   3769651   3767820  
  4540.000000   3765989   3764178   3762405   3760680   3759017  
  4530.000000   3757409   3755857   3754342   3752867   3751418  
  4520.000000   3750017   3748663   3747398   3746222   3745187  
  4510.000000   3744289   3743592   3743102   3742905   3743021  
  4500.000000   3743556   3744523   3746015   3748024   3750625  
  4490.000000   3753795   3757613   3762060   3767225   3773085  
  4480.000000   3779711   3787051   3795137   3803882   3813293  
  4470.000000   3823271   3833820   3844850   3856365   3868283  
  4460.000000   3880604   3893248   3906210   3919411   3932841  
  4450.000000   3946434   3960177   3974022   3987966   4001987  
  4440.000000   4016083   4030246   4044457   4058698   4072916  
  4430.000000   4087079   4101111   4114986   4128626   4142017  
  4420.000000   4155079   4167801   4180089   4191921   4203194  
  4410.000000   4213887   4223904   4233242   4241835   4249712  
  4400.000000   4256844   4263301   4269098   4274344   4279093  
  4390.000000   4283482   4287584   4291535   4295396   4299269  
  4380.000000   4303180   4307180   4311261   4315439   4319695  
  4370.000000   4324040   4328469   4333000   4337635   4342388  
  4360.000000   4347254   4352237   4357309   4362470   4367663  
  4350.000000   4372887   4378061   4383190   4388195   4393108  
  4340.000000   4397874   4402523   4406961   4411097   4414661  
  4330.000000   4417346   4418713   4418382   4416038   4411607  
  4320.000000   4405243   4397392   4388657   4379743   4371261  
  4310.000000   4363694   4357271   4352048   4347892   4344625  
  4300.000000   4342040   4339985   4338363   4337110   4336205  
  4290.000000   4335600   4335283   4335197   4335348   4335710  
  4280.000000   4336311   4337155   4338254   4339603   4341168  
  4270.000000   4342917   4344775   4346665   4348444   4349937  
  4260.000000   4350900   4351075   4350204   4348113   4344733  
  4250.000000   4340166   4334640   4328514   4322167   4315983  
  4240.000000   4310230   4305095   4300607   4296725   4293311  
  4230.000000   4290229   4287326   4284486   4281627   4278693  
  4220.000000   4275679   4272585   4269471   4266376   4263402  
  4210.000000   4260610   4258099   4255908   4254092   4252639  
  4200.000000   4251543   4250746   4250207   4249847   4249632  
  4190.000000   4249499   4249444   4249433   4249497   4249622  
  4180.000000   4249854   4250180   4250647   4251242   4252024  
  4170.000000   4253002   4254264   4255849   4257858   4260324  
  4160.000000   4263317   4266815   4270832   4275290   4280178  
  4150.000000   4285411   4290999   4296894   4303144   4309734  
  4140.000000   4316738   4324148   4332034   4340369   4349199  
  4130.000000   4358466   4368185   4378278   4388748   4399530  
  4120.000000   4410649   4422078   4433881   4446067   4458710  
  4110.000000   4471816   4485434   4499528   4514093   4529048  
  4100.000000   4544343   4559885   4575621   4591483   4607446  
  4090.000000   4623483   4639586   4655745   4671944   4688174  
  4080.000000   4704410   4720651   4736870   4753075   4769216  
  4070.000000   4785274   4801152   4816803   4832107   4847032  
  4060.000000   4861488   4875488   4888966   4901951   4914368  
  4050.000000   4926248   4937520   4948244   4958378   4968010  
  4040.000000   4977090   4985677   4993675   5001110   5007872  
  4030.000000   5014006   5019434   5024230   5028339   5031820  
  4020.000000   5034587   5036702   5038157   5039038   5039312  
  4010.000000   5039111   5038502   5037470   5035759   5033392  
  4000.000000   5030690  
##END= 
