##TITLE= Sample 040 By ssteindl date Dienstag, November 20 2018
##JCAMP-DX= 4.24
##DATA TYPE= INFRARED SPECTRUM
##ORIGIN= Exported PE Spectrum Data File
##OWNER= Sandra Steindl
##DATE= 18/11/20
##TIME= 12:01:27.00
##SPECTROMETER/DATA SYSTEM= PERKIN-ELMER Frontier FT-IR/NIR IR
##INSTRUMENT PARAMETERS=
  APODIZATION=stark
  DETECTOR=INGAAS
##RESOLUTION= 16.000000
##DELTAX= -2.000000
##XUNITS= 1/CM
##YUNITS= A
##XFACTOR= 1.00
##YFACTOR= 0.00000011920928955078
##FIRSTX= 10000.00
##LASTX= 4000.00
##NPOINTS= 3001
##FIRSTY= 0.208519
##MAXY= 0.608245
##MINY= 0.183727
##XYDATA= (X++(Y..Y))
 10000.000000   1749180   1747001   1746490   1749463   1755302  
  9990.000000   1761742   1767039   1770354   1771148   1769177  
  9980.000000   1765027   1759821   1754591   1750027   1746599  
  9970.000000   1744573   1744035   1744975   1747278   1750649  
  9960.000000   1754525   1758169   1760779   1761786   1761077  
  9950.000000   1759083   1756710   1754977   1754683   1756066  
  9940.000000   1758715   1761757   1764162   1765226   1764759  
  9930.000000   1763248   1761510   1760472   1760628   1761959  
  9920.000000   1763818   1765249   1765324   1763440   1759536  
  9910.000000   1753951   1747284   1740056   1732594   1724955  
  9900.000000   1717130   1709191   1701510   1694733   1689663  
  9890.000000   1687004   1687071   1689695   1694210   1699709  
  9880.000000   1705336   1710508   1715073   1719134   1722914  
  9870.000000   1726457   1729581   1731901   1733051   1732885  
  9860.000000   1731616   1729769   1728005   1726854   1726492  
  9850.000000   1726652   1726705   1725894   1723612   1719605  
  9840.000000   1714064   1707553   1700860   1694824   1690161  
  9830.000000   1687420   1686886   1688613   1692367   1697663  
  9820.000000   1703804   1710007   1715536   1719851   1722691  
  9810.000000   1724058   1724182   1723376   1722007   1720370  
  9800.000000   1718730   1717261   1716056   1715111   1714280  
  9790.000000   1713347   1712026   1710135   1707639   1704755  
  9780.000000   1701860   1699388   1697640   1696653   1696220  
  9770.000000   1695969   1695601   1695017   1694375   1693985  
  9760.000000   1694097   1694772   1695817   1696906   1697779  
  9750.000000   1698407   1699050   1700106   1701847   1704185  
  9740.000000   1706565   1708151   1708144   1706196   1702617  
  9730.000000   1698322   1694477   1692013   1691239   1691711  
  9720.000000   1692476   1692469   1691004   1687996   1683962  
  9710.000000   1679735   1676072   1673416   1671795   1671051  
  9700.000000   1671035   1671835   1673689   1676817   1681115  
  9690.000000   1686035   1690666   1693998   1695345   1694497  
  9680.000000   1691862   1688103   1683925   1679685   1675401  
  9670.000000   1670873   1666000   1661070   1656764   1654067  
  9660.000000   1653777   1656275   1661178   1667547   1674084  
  9650.000000   1679613   1683367   1685103   1685041   1683559  
  9640.000000   1681056   1677733   1673737   1669168   1664294  
  9630.000000   1659478   1655139   1651581   1648862   1646858  
  9620.000000   1645291   1644017   1643048   1642651   1643174  
  9610.000000   1644871   1647734   1651388   1655210   1658454  
  9600.000000   1660519   1661073   1660172   1658163   1655606  
  9590.000000   1653074   1651056   1649854   1649545   1650005  
  9580.000000   1650906   1651830   1652322   1652052   1650876  
  9570.000000   1648927   1646537   1644168   1642214   1640896  
  9560.000000   1640170   1639786   1639410   1638771   1637774  
  9550.000000   1636509   1635179   1633967   1632938   1631981  
  9540.000000   1630884   1629400   1627409   1624943   1622224  
  9530.000000   1619568   1617296   1615652   1614766   1614667  
  9520.000000   1615323   1616663   1618591   1620941   1623462  
  9510.000000   1625821   1627647   1628642   1628663   1627804  
  9500.000000   1626397   1624915   1623863   1623581   1624162  
  9490.000000   1625349   1626635   1627369   1626993   1625208  
  9480.000000   1622093   1618108   1613957   1610449   1608236  
  9470.000000   1607726   1608937   1611610   1615244   1619303  
  9460.000000   1623272   1626747   1629419   1631052   1631499  
  9450.000000   1630656   1628573   1625368   1621329   1616778  
  9440.000000   1612070   1607517   1603351   1599795   1597026  
  9430.000000   1595293   1594797   1595710   1598009   1601445  
  9420.000000   1605506   1609467   1612582   1614196   1614016  
  9410.000000   1612075   1608828   1604916   1601079   1597939  
  9400.000000   1595901   1595143   1595591   1597079   1599351  
  9390.000000   1602203   1605417   1608797   1612093   1615009  
  9380.000000   1617219   1618373   1618215   1616583   1613567  
  9370.000000   1609483   1604911   1600557   1597093   1595016  
  9360.000000   1594478   1595336   1597144   1599389   1601580  
  9350.000000   1603434   1604848   1605865   1606539   1606859  
  9340.000000   1606728   1606007   1604617   1602619   1600246  
  9330.000000   1597852   1595784   1594262   1593293   1592703  
  9320.000000   1592210   1591543   1590502   1588993   1587005  
  9310.000000   1584573   1581771   1578707   1575599   1572770  
  9300.000000   1570650   1569622   1569891   1571337   1573525  
  9290.000000   1575826   1577638   1578584   1578672   1578269  
  9280.000000   1577993   1578398   1579768   1581965   1584507  
  9270.000000   1586781   1588247   1588671   1588150   1587142  
  9260.000000   1586254   1586054   1586839   1588555   1590814  
  9250.000000   1592963   1594246   1593958   1591688   1587443  
  9240.000000   1581697   1575303   1569279   1564615   1562002  
  9230.000000   1561689   1563411   1566512   1570182   1573688  
  9220.000000   1576512   1578396   1579282   1579255   1578474  
  9210.000000   1577126   1575470   1573829   1572645   1572326  
  9200.000000   1573111   1574908   1577242   1579418   1580683  
  9190.000000   1580545   1578883   1576076   1572824   1569894  
  9180.000000   1567813   1566708   1566348   1566239   1565873  
  9170.000000   1564871   1563136   1560798   1558109   1555332  
  9160.000000   1552679   1550362   1548625   1547743   1547968  
  9150.000000   1549427   1552045   1555463   1559090   1562247  
  9140.000000   1564406   1565319   1565095   1564097   1562814  
  9130.000000   1561649   1560803   1560262   1559882   1559545  
  9120.000000   1559245   1559116   1559333   1560031   1561154  
  9110.000000   1562458   1563519   1563892   1563269   1561585  
  9100.000000   1559084   1556197   1553464   1551323   1550021  
  9090.000000   1549539   1549631   1549944   1550136   1550046  
  9080.000000   1549718   1549421   1549509   1550328   1552056  
  9070.000000   1554610   1557628   1560535   1562718   1563648  
  9060.000000   1563047   1560945   1557704   1553900   1550186  
  9050.000000   1547148   1545181   1544410   1544649   1545492  
  9040.000000   1546428   1546987   1546859   1545981   1544570  
  9030.000000   1543025   1541801   1541215   1541383   1542144  
  9020.000000   1543189   1544146   1544794   1545136   1545417  
  9010.000000   1546004   1547181   1549063   1551493   1554146  
  9000.000000   1556625   1558649   1560157   1561274   1562199  
  8990.000000   1563037   1563704   1563915   1563295   1561552  
  8980.000000   1558656   1554908   1550884   1547266   1544610  
  8970.000000   1543198   1542944   1543506   1544412   1545266  
  8960.000000   1545832   1546087   1546148   1546197   1546380  
  8950.000000   1546762   1547336   1548040   1548831   1549635  
  8940.000000   1550395   1550985   1551277   1551110   1550378  
  8930.000000   1549062   1547296   1545333   1543493   1542103  
  8920.000000   1541403   1541525   1542425   1543970   1545949  
  8910.000000   1548156   1550397   1552510   1554370   1555842  
  8900.000000   1556792   1557074   1556604   1555363   1553471  
  8890.000000   1551177   1548859   1546944   1545801   1545647  
  8880.000000   1546478   1548080   1550067   1552001   1553491  
  8870.000000   1554307   1554399   1553912   1553104   1552285  
  8860.000000   1551758   1551746   1552405   1553742   1555652  
  8850.000000   1557856   1559968   1561528   1562130   1561545  
  8840.000000   1559832   1557383   1554843   1552967   1552386  
  8830.000000   1553450   1556095   1559888   1564135   1568105  
  8820.000000   1571218   1573162   1573916   1573662   1572694  
  8810.000000   1571290   1569682   1568012   1566402   1564953  
  8800.000000   1563800   1563078   1562896   1563302   1564235  
  8790.000000   1565569   1567093   1568603   1569914   1570923  
  8780.000000   1571637   1572156   1572677   1573402   1574510  
  8770.000000   1576048   1577931   1579919   1581706   1582988  
  8760.000000   1583589   1583514   1582963   1582269   1581785  
  8750.000000   1581778   1582360   1583475   1584964   1586629  
  8740.000000   1588316   1589942   1591486   1592962   1594364  
  8730.000000   1595677   1596868   1597942   1598956   1600013  
  8720.000000   1601237   1602698   1604386   1606168   1607840  
  8710.000000   1609159   1609932   1610058   1609562   1608593  
  8700.000000   1607394   1606274   1605537   1605463   1606223  
  8690.000000   1607871   1610271   1613143   1616085   1618687  
  8680.000000   1620628   1621744   1622073   1621795   1621193  
  8670.000000   1620507   1619904   1619409   1618981   1618560  
  8660.000000   1618131   1617769   1617604   1617802   1618486  
  8650.000000   1619716   1621462   1623613   1626013   1628456  
  8640.000000   1630741   1632659   1634059   1634863   1635123  
  8630.000000   1635031   1634910   1635135   1636038   1637789  
  8620.000000   1640343   1643429   1646637   1649521   1651729  
  8610.000000   1653074   1653575   1653420   1652902   1652347  
  8600.000000   1652048   1652232   1653038   1654504   1656561  
  8590.000000   1659054   1661757   1664419   1666804   1668757  
  8580.000000   1670225   1671263   1671996   1672565   1673110  
  8570.000000   1673719   1674455   1675347   1676408   1677630  
  8560.000000   1678949   1680277   1681486   1682491   1683259  
  8550.000000   1683896   1684612   1685668   1687264   1689429  
  8540.000000   1691976   1694503   1696516   1697582   1697503  
  8530.000000   1696385   1694611   1692752   1691394   1690984  
  8520.000000   1691708   1693482   1696008   1698874   1701649  
  8510.000000   1703982   1705643   1706561   1706798   1706543  
  8500.000000   1706071   1705690   1705690   1706255   1707456  
  8490.000000   1709183   1711204   1713189   1714813   1715820  
  8480.000000   1716092   1715666   1714735   1713601   1712631  
  8470.000000   1712187   1712570   1713949   1716315   1719489  
  8460.000000   1723136   1726850   1730223   1732968   1734977  
  8450.000000   1736318   1737184   1737798   1738343   1738889  
  8440.000000   1739400   1739777   1739937   1739881   1739700  
  8430.000000   1739567   1739646   1740058   1740802   1741782  
  8420.000000   1742805   1743672   1744226   1744396   1744216  
  8410.000000   1743792   1743289   1742871   1742666   1742740  
  8400.000000   1743080   1743625   1744278   1744959   1745627  
  8390.000000   1746304   1747058   1747964   1749036   1750199  
  8380.000000   1751267   1751999   1752175   1751676   1750567  
  8370.000000   1749073   1747544   1746316   1745607   1745449  
  8360.000000   1745679   1746026   1746201   1746054   1745599  
  8350.000000   1745037   1744645   1744696   1745342   1746564  
  8340.000000   1748160   1749814   1751189   1752002   1752094  
  8330.000000   1751436   1750142   1748426   1746553   1744784  
  8320.000000   1743327   1742305   1741726   1741502   1741461  
  8310.000000   1741421   1741242   1740876   1740366   1739827  
  8300.000000   1739380   1739111   1739011   1738997   1738944  
  8290.000000   1738745   1738377   1737913   1737506   1737317  
  8280.000000   1737435   1737818   1738278   1738534   1738305  
  8270.000000   1737405   1735818   1733731   1731485   1729486  
  8260.000000   1728073   1727431   1727531   1728159   1728977  
  8250.000000   1729617   1729777   1729287   1728131   1726437  
  8240.000000   1724422   1722336   1720415   1718842   1717727  
  8230.000000   1717100   1716903   1717010   1717237   1717395  
  8220.000000   1717302   1716851   1715995   1714785   1713325  
  8210.000000   1711747   1710167   1708648   1707196   1705769  
  8200.000000   1704302   1702742   1701053   1699236   1697317  
  8190.000000   1695342   1693376   1691484   1689736   1688181  
  8180.000000   1686845   1685705   1684695   1683717   1682669  
  8170.000000   1681497   1680227   1678983   1677956   1677341  
  8160.000000   1677257   1677680   1678424   1679169   1679552  
  8150.000000   1679262   1678138   1676218   1673734   1671035  
  8140.000000   1668491   1666381   1664829   1663790   1663079  
  8130.000000   1662452   1661680   1660621   1659249   1657660  
  8120.000000   1656017   1654509   1653280   1652385   1651796  
  8110.000000   1651390   1651030   1650574   1649945   1649123  
  8100.000000   1648154   1647120   1646106   1645194   1644438  
  8090.000000   1643893   1643602   1643611   1643941   1644564  
  8080.000000   1645372   1646182   1646754   1646856   1646328  
  8070.000000   1645132   1643370   1641250   1639030   1636934  
  8060.000000   1635105   1633577   1632286   1631123   1629976  
  8050.000000   1628784   1627536   1626285   1625101   1624067  
  8040.000000   1623238   1622642   1622265   1622054   1621922  
  8030.000000   1621752   1621434   1620873   1620043   1618976  
  8020.000000   1617778   1616576   1615489   1614571   1613807  
  8010.000000   1613109   1612378   1611539   1610594   1609621  
  8000.000000   1608745   1608090   1607721   1607628   1607725  
  7990.000000   1607898   1608051   1608139   1608178   1608207  
  7980.000000   1608256   1608306   1608283   1608082   1607621  
  7970.000000   1606884   1605942   1604934   1604020   1603324  
  7960.000000   1602882   1602642   1602483   1602273   1601912  
  7950.000000   1601378   1600720   1600031   1599410   1598918  
  7940.000000   1598565   1598311   1598099   1597874   1597617  
  7930.000000   1597336   1597072   1596859   1596722   1596652  
  7920.000000   1596628   1596614   1596584   1596530   1596469  
  7910.000000   1596432   1596463   1596600   1596871   1597281  
  7900.000000   1597817   1598441   1599103   1599740   1600293  
  7890.000000   1600715   1600987   1601122   1601170   1601204  
  7880.000000   1601301   1601521   1601883   1602359   1602869  
  7870.000000   1603319   1603610   1603690   1603550   1603250  
  7860.000000   1602881   1602550   1602330   1602251   1602274  
  7850.000000   1602313   1602254   1602000   1601488   1600715  
  7840.000000   1599736   1598638   1597525   1596480   1595554  
  7830.000000   1594762   1594083   1593490   1592961   1592501  
  7820.000000   1592134   1591907   1591858   1592006   1592330  
  7810.000000   1592764   1593213   1593560   1593705   1593570  
  7800.000000   1593128   1592393   1591425   1590313   1589163  
  7790.000000   1588089   1587195   1586562   1586230   1586189  
  7780.000000   1586368   1586652   1586900   1586988   1586837  
  7770.000000   1586440   1585865   1585226   1584652   1584236  
  7760.000000   1584014   1583952   1583967   1583962   1583855  
  7750.000000   1583618   1583265   1582852   1582440   1582080  
  7740.000000   1581785   1581534   1581283   1580972   1580554  
  7730.000000   1579995   1579292   1578468   1577576   1576689  
  7720.000000   1575888   1575248   1574817   1574610   1574598  
  7710.000000   1574723   1574907   1575082   1575196   1575223  
  7700.000000   1575159   1575006   1574770   1574443   1574023  
  7690.000000   1573503   1572899   1572240   1571567   1570919  
  7680.000000   1570325   1569791   1569309   1568865   1568455  
  7670.000000   1568086   1567776   1567547   1567416   1567388  
  7660.000000   1567461   1567632   1567906   1568292   1568795  
  7650.000000   1569400   1570063   1570702   1571224   1571538  
  7640.000000   1571594   1571394   1570998   1570504   1570019  
  7630.000000   1569629   1569372   1569244   1569207   1569216  
  7620.000000   1569235   1569248   1569257   1569269   1569285  
  7610.000000   1569294   1569271   1569194   1569057   1568871  
  7600.000000   1568679   1568531   1568488   1568585   1568834  
  7590.000000   1569203   1569633   1570044   1570370   1570576  
  7580.000000   1570681   1570759   1570922   1571293   1571968  
  7570.000000   1572977   1574268   1575701   1577092   1578249  
  7560.000000   1579032   1579385   1579353   1579065   1578701  
  7550.000000   1578448   1578451   1578783   1579436   1580331  
  7540.000000   1581346   1582355   1583254   1583985   1584540  
  7530.000000   1584953   1585287   1585596   1585923   1586276  
  7520.000000   1586653   1587041   1587452   1587919   1588506  
  7510.000000   1589277   1590280   1591520   1592959   1594513  
  7500.000000   1596094   1597615   1599035   1600339   1601548  
  7490.000000   1602679   1603753   1604779   1605775   1606778  
  7480.000000   1607859   1609107   1610604   1612397   1614466  
  7470.000000   1616715   1618990   1621118   1622964   1624447  
  7460.000000   1625576   1626416   1627082   1627694   1628359  
  7450.000000   1629159   1630156   1631395   1632907   1634699  
  7440.000000   1636742   1638963   1641255   1643491   1645559  
  7430.000000   1647374   1648915   1650206   1651328   1652372  
  7420.000000   1653440   1654611   1655951   1657498   1659267  
  7410.000000   1661251   1663417   1665716   1668085   1670463  
  7400.000000   1672804   1675085   1677303   1679466   1681584  
  7390.000000   1683646   1685629   1687497   1689224   1690800  
  7380.000000   1692252   1693628   1694994   1696404   1697893  
  7370.000000   1699467   1701109   1702797   1704506   1706233  
  7360.000000   1707980   1709765   1711604   1713505   1715461  
  7350.000000   1717450   1719434   1721369   1723207   1724909  
  7340.000000   1726456   1727849   1729112   1730281   1731399  
  7330.000000   1732497   1733595   1734693   1735784   1736868  
  7320.000000   1737957   1739086   1740306   1741677   1743237  
  7310.000000   1744998   1746930   1748968   1751025   1753010  
  7300.000000   1754852   1756506   1757961   1759232   1760363  
  7290.000000   1761409   1762432   1763488   1764618   1765843  
  7280.000000   1767160   1768547   1769971   1771398   1772802  
  7270.000000   1774168   1775491   1776767   1777996   1779169  
  7260.000000   1780292   1781369   1782435   1783525   1784691  
  7250.000000   1785963   1787360   1788856   1790416   1791988  
  7240.000000   1793544   1795082   1796647   1798301   1800127  
  7230.000000   1802175   1804475   1807001   1809712   1812533  
  7220.000000   1815405   1818270   1821109   1823910   1826700  
  7210.000000   1829501   1832359   1835302   1838360   1841532  
  7200.000000   1844812   1848169   1851582   1855022   1858488  
  7190.000000   1861976   1865500   1869056   1872640   1876224  
  7180.000000   1879789   1883314   1886812   1890309   1893861  
  7170.000000   1897505   1901277   1905160   1909122   1913089  
  7160.000000   1917012   1920842   1924583   1928262   1931951  
  7150.000000   1935726   1939685   1943902   1948449   1953342  
  7140.000000   1958574   1964067   1969728   1975429   1981077  
  7130.000000   1986598   1992000   1997321   2002666   2008117  
  7120.000000   2013759   2019599   2025618   2031741   2037902  
  7110.000000   2044045   2050167   2056290   2062475   2068769  
  7100.000000   2075215   2081819   2088572   2095431   2102354  
  7090.000000   2109283   2116169   2122956   2129607   2136093  
  7080.000000   2142421   2148621   2154757   2160900   2167129  
  7070.000000   2173495   2180028   2186717   2193529   2200408  
  7060.000000   2207295   2214135   2220885   2227523   2234049  
  7050.000000   2240490   2246889   2253294   2259739   2266233  
  7040.000000   2272752   2279251   2285675   2291988   2298173  
  7030.000000   2304256   2310270   2316261   2322246   2328226  
  7020.000000   2334165   2340024   2345754   2351326   2356715  
  7010.000000   2361919   2366930   2371765   2376441   2381010  
  7000.000000   2385524   2390058   2394658   2399352   2404110  
  6990.000000   2408886   2413599   2418200   2422656   2426989  
  6980.000000   2431228   2435418   2439562   2443649   2447625  
  6970.000000   2451451   2455089   2458547   2461838   2465004  
  6960.000000   2468055   2471007   2473838   2476555   2479157  
  6950.000000   2481685   2484169   2486644   2489100   2491508  
  6940.000000   2493805   2495946   2497904   2499705   2501392  
  6930.000000   2503028   2504644   2506254   2507836   2509374  
  6920.000000   2510865   2512345   2513869   2515498   2517259  
  6910.000000   2519135   2521059   2522953   2524738   2526383  
  6900.000000   2527893   2529316   2530703   2532097   2533509  
  6890.000000   2534929   2536328   2537674   2538936   2540085  
  6880.000000   2541086   2541912   2542540   2542978   2543269  
  6870.000000   2543501   2543779   2544205   2544836   2545679  
  6860.000000   2546679   2547756   2548821   2549809   2550685  
  6850.000000   2551446   2552101   2552663   2553147   2553575  
  6840.000000   2553988   2554445   2555007   2555725   2556600  
  6830.000000   2557593   2558615   2559574   2560385   2561021  
  6820.000000   2561494   2561852   2562144   2562398   2562605  
  6810.000000   2562738   2562764   2562676   2562493   2562263  
  6800.000000   2562027   2561817   2561627   2561436   2561210  
  6790.000000   2560941   2560638   2560340   2560083   2559892  
  6780.000000   2559756   2559636   2559469   2559197   2558780  
  6770.000000   2558209   2557506   2556718   2555904   2555126  
  6760.000000   2554436   2553878   2553470   2553209   2553060  
  6750.000000   2552976   2552899   2552789   2552629   2552430  
  6740.000000   2552217   2552007   2551800   2551559   2551230  
  6730.000000   2550761   2550129   2549360   2548523   2547720  
  6720.000000   2547037   2546533   2546203   2546001   2545847  
  6710.000000   2545663   2545390   2544998   2544479   2543840  
  6700.000000   2543083   2542213   2541231   2540153   2539009  
  6690.000000   2537847   2536721   2535683   2534758   2533955  
  6680.000000   2533247   2532595   2531944   2531242   2530442  
  6670.000000   2529518   2528460   2527281   2526013   2524704  
  6660.000000   2523398   2522137   2520941   2519819   2518756  
  6650.000000   2517737   2516736   2515733   2514701   2513616  
  6640.000000   2512448   2511173   2509779   2508275   2506692  
  6630.000000   2505079   2503483   2501941   2500461   2499028  
  6620.000000   2497610   2496179   2494718   2493233   2491735  
  6610.000000   2490242   2488753   2487252   2485711   2484108  
  6600.000000   2482436   2480711   2478966   2477236   2475538  
  6590.000000   2473873   2472219   2470551   2468850   2467117  
  6580.000000   2465367   2463624   2461909   2460227   2458569  
  6570.000000   2456921   2455270   2453612   2451953   2450304  
  6560.000000   2448675   2447070   2445492   2443941   2442427  
  6550.000000   2440960   2439547   2438181   2436839   2435481  
  6540.000000   2434069   2432582   2431033   2429469   2427960  
  6530.000000   2426569   2425333   2424241   2423243   2422258  
  6520.000000   2421207   2420035   2418727   2417306   2415825  
  6510.000000   2414349   2412940   2411642   2410480   2409451  
  6500.000000   2408529   2407668   2406807   2405889   2404870  
  6490.000000   2403736   2402506   2401226   2399951   2398727  
  6480.000000   2397573   2396479   2395411   2394333   2393218  
  6470.000000   2392063   2390880   2389692   2388512   2387336  
  6460.000000   2386148   2384923   2383641   2382295   2380893  
  6450.000000   2379450   2377986   2376517   2375062   2373640  
  6440.000000   2372282   2371020   2369887   2368897   2368048  
  6430.000000   2367306   2366634   2365987   2365340   2364683  
  6420.000000   2364023   2363368   2362723   2362079   2361432  
  6410.000000   2360779   2360143   2359557   2359066   2358692  
  6400.000000   2358432   2358244   2358065   2357828   2357493  
  6390.000000   2357060   2356566   2356075   2355644   2355311  
  6380.000000   2355079   2354926   2354815   2354710   2354589  
  6370.000000   2354439   2354254   2354023   2353725   2353340  
  6360.000000   2352848   2352251   2351566   2350830   2350085  
  6350.000000   2349368   2348698   2348077   2347489   2346908  
  6340.000000   2346302   2345643   2344906   2344085   2343182  
  6330.000000   2342222   2341240   2340278   2339371   2338539  
  6320.000000   2337777   2337066   2336368   2335657   2334908  
  6310.000000   2334117   2333280   2332397   2331452   2330427  
  6300.000000   2329299   2328064   2326741   2325376   2324018  
  6290.000000   2322719   2321494   2320336   2319202   2318047  
  6280.000000   2316829   2315536   2314175   2312774   2311355  
  6270.000000   2309931   2308494   2307027   2305507   2303927  
  6260.000000   2302289   2300612   2298912   2297204   2295491  
  6250.000000   2293770   2292034   2290284   2288522   2286761  
  6240.000000   2285009   2283277   2281570   2279896   2278260  
  6230.000000   2276671   2275132   2273641   2272181   2270727  
  6220.000000   2269252   2267731   2266156   2264537   2262894  
  6210.000000   2261256   2259645   2258072   2256541   2255047  
  6200.000000   2253587   2252155   2250748   2249354   2247953  
  6190.000000   2246519   2245034   2243491   2241908   2240325  
  6180.000000   2238797   2237374   2236086   2234935   2233895  
  6170.000000   2232923   2231971   2231002   2229991   2228929  
  6160.000000   2227812   2226641   2225420   2224153   2222850  
  6150.000000   2221526   2220195   2218870   2217551   2216230  
  6140.000000   2214893   2213531   2212147   2210760   2209396  
  6130.000000   2208081   2206831   2205643   2204503   2203387  
  6120.000000   2202280   2201177   2200091   2199038   2198036  
  6110.000000   2197089   2196194   2195337   2194509   2193704  
  6100.000000   2192932   2192206   2191545   2190955   2190442  
  6090.000000   2189991   2189590   2189217   2188862   2188513  
  6080.000000   2188173   2187843   2187542   2187284   2187097  
  6070.000000   2186999   2187007   2187117   2187320   2187585  
  6060.000000   2187888   2188200   2188517   2188838   2189190  
  6050.000000   2189588   2190058   2190602   2191229   2191925  
  6040.000000   2192700   2193549   2194493   2195545   2196728  
  6030.000000   2198048   2199516   2201119   2202850   2204679  
  6020.000000   2206582   2208516   2210452   2212352   2214209  
  6010.000000   2216023   2217828   2219660   2221574   2223597  
  6000.000000   2225752   2228019   2230377   2232780   2235209  
  5990.000000   2237645   2240102   2242598   2245175   2247855  
  5980.000000   2250672   2253634   2256755   2260022   2263428  
  5970.000000   2266940   2270534   2274168   2277823   2281476  
  5960.000000   2285136   2288808   2292517   2296261   2300038  
  5950.000000   2303818   2307579   2311293   2314968   2318632  
  5940.000000   2322339   2326152   2330121   2334278   2338616  
  5930.000000   2343104   2347685   2352302   2356889   2361392  
  5920.000000   2365759   2369947   2373921   2377658   2381152  
  5910.000000   2384417   2387480   2390380   2393153   2395840  
  5900.000000   2398464   2401062   2403657   2406290   2408980  
  5890.000000   2411753   2414601   2417509   2420433   2423336  
  5880.000000   2426179   2428941   2431614   2434200   2436706  
  5870.000000   2439129   2441467   2443717   2445888   2448001  
  5860.000000   2450095   2452211   2454385   2456643   2458991  
  5850.000000   2461426   2463938   2466520   2469171   2471888  
  5840.000000   2474668   2477496   2480355   2483216   2486064  
  5830.000000   2488885   2491682   2494461   2497232   2499999  
  5820.000000   2502763   2505521   2508272   2511014   2513745  
  5810.000000   2516461   2519140   2521765   2524298   2526734  
  5800.000000   2529062   2531329   2533568   2535854   2538205  
  5790.000000   2540648   2543118   2545550   2547797   2549729  
  5780.000000   2551178   2552022   2552143   2551497   2550077  
  5770.000000   2547967   2545290   2542239   2538999   2535765  
  5760.000000   2532666   2529798   2527178   2524812   2522664  
  5750.000000   2520722   2518961   2517380   2515961   2514686  
  5740.000000   2513523   2512434   2511395   2510381   2509396  
  5730.000000   2508435   2507510   2506610   2505733   2504859  
  5720.000000   2503987   2503117   2502268   2501456   2500702  
  5710.000000   2500007   2499371   2498779   2498220   2497684  
  5700.000000   2497171   2496678   2496203   2495739   2495276  
  5690.000000   2494815   2494359   2493934   2493562   2493271  
  5680.000000   2493058   2492908   2492762   2492559   2492213  
  5670.000000   2491658   2490828   2489688   2488213   2486405  
  5660.000000   2484285   2481904   2479328   2476650   2473957  
  5650.000000   2471338   2468844   2466508   2464327   2462288  
  5640.000000   2460366   2458542   2456803   2455137   2453536  
  5630.000000   2451985   2450477   2448999   2447556   2446148  
  5620.000000   2444791   2443482   2442224   2441002   2439807  
  5610.000000   2438631   2437482   2436376   2435333   2434365  
  5600.000000   2433469   2432626   2431806   2430984   2430145  
  5590.000000   2429293   2428441   2427604   2426787   2425981  
  5580.000000   2425169   2424331   2423456   2422547   2421610  
  5570.000000   2420657   2419688   2418695   2417666   2416594  
  5560.000000   2415486   2414362   2413249   2412168   2411123  
  5550.000000   2410099   2409066   2407995   2406872   2405702  
  5540.000000   2404509   2403321   2402157   2401017   2399889  
  5530.000000   2398755   2397604   2396445   2395298   2394191  
  5520.000000   2393141   2392154   2391212   2390291   2389360  
  5510.000000   2388397   2387388   2386326   2385201   2384012  
  5500.000000   2382752   2381431   2380066   2378690   2377330  
  5490.000000   2376004   2374699   2373386   2372016   2370552  
  5480.000000   2368975   2367302   2365570   2363829   2362114  
  5470.000000   2360441   2358792   2357145   2355471   2353761  
  5460.000000   2352014   2350247   2348467   2346676   2344864  
  5450.000000   2343019   2341139   2339231   2337322   2335433  
  5440.000000   2333586   2331785   2330029   2328309   2326631  
  5430.000000   2325003   2323446   2321966   2320564   2319215  
  5420.000000   2317904   2316613   2315359   2314171   2313107  
  5410.000000   2312196   2311462   2310872   2310395   2309976  
  5400.000000   2309603   2309270   2309025   2308897   2308934  
  5390.000000   2309131   2309488   2309964   2310558   2311254  
  5380.000000   2312094   2313092   2314292   2315679   2317258  
  5370.000000   2318982   2320854   2322843   2324994   2327307  
  5360.000000   2329846   2332605   2335642   2338940   2342564  
  5350.000000   2346510   2350859   2355598   2360783   2366356  
  5340.000000   2372337   2378648   2385333   2392352   2399796  
  5330.000000   2407649   2416001   2424810   2434139   2443928  
  5320.000000   2454258   2465103   2476594   2488727   2501635  
  5310.000000   2515281   2529748   2544949   2560938   2577633  
  5300.000000   2595118   2613350   2632450   2652398   2673305  
  5290.000000   2695114   2717865   2741423   2765739   2790637  
  5280.000000   2816073   2841949   2868330   2895245   2922833  
  5270.000000   2951128   2980154   3009783   3039835   3070069  
  5260.000000   3100287   3130377   3160314   3190164   3219967  
  5250.000000   3249748   3279385   3308737   3337545   3365671  
  5240.000000   3392952   3419446   3445168   3470302   3494882  
  5230.000000   3519028   3542640   3565698   3587998   3609494  
  5220.000000   3630036   3649697   3668460   3686510   3703884  
  5210.000000   3720747   3737042   3752802   3767842   3782127  
  5200.000000   3795488   3807985   3819585   3830463   3840640  
  5190.000000   3850266   3859280   3867724   3875467   3882529  
  5180.000000   3888821   3894436   3899355   3903698   3907441  
  5170.000000   3910666   3913315   3915453   3917042   3918171  
  5160.000000   3918826   3919089   3918917   3918347   3917303  
  5150.000000   3915817   3913841   3911441   3908615   3905441  
  5140.000000   3901916   3898101   3893979   3889609   3884987  
  5130.000000   3880181   3875194   3870073   3864796   3859377  
  5120.000000   3853780   3848025   3842107   3836078   3829960  
  5110.000000   3823800   3817603   3811380   3805114   3798806  
  5100.000000   3792450   3786069   3779680   3773313   3766979  
  5090.000000   3760692   3754449   3748258   3742113   3736024  
  5080.000000   3729980   3723972   3717971   3711948   3705869  
  5070.000000   3699717   3693483   3687181   3680821   3674422  
  5060.000000   3667980   3661491   3654932   3648296   3641567  
  5050.000000   3634753   3627855   3620890   3613856   3606761  
  5040.000000   3599596   3592366   3585069   3577720   3570328  
  5030.000000   3562915   3555487   3548059   3540634   3533223  
  5020.000000   3525833   3518473   3511153   3503873   3496637  
  5010.000000   3489438   3482285   3475183   3468164   3461252  
  5000.000000   3454497   3447920   3441558   3435406   3429473  
  4990.000000   3423731   3418183   3412799   3407597   3402557  
  4980.000000   3397708   3393035   3388577   3384321   3380314  
  4970.000000   3376550   3373079   3369887   3367016   3364438  
  4960.000000   3362181   3360210   3358562   3357214   3356216  
  4950.000000   3355553   3355272   3355342   3355791   3356571  
  4940.000000   3357706   3359156   3360966   3363116   3365661  
  4930.000000   3368578   3371903   3375591   3379655   3384041  
  4920.000000   3388765   3393787   3399141   3404803   3410806  
  4910.000000   3417122   3423768   3430702   3437921   3445378  
  4900.000000   3453063   3460934   3468978   3477160   3485460  
  4890.000000   3493846   3502280   3510721   3519110   3527395  
  4880.000000   3535506   3543400   3551010   3558317   3565265  
  4870.000000   3571848   3578013   3583758   3589030   3593839  
  4860.000000   3598146   3601983   3605337   3608261   3610757  
  4850.000000   3612885   3614655   3616137   3617351   3618372  
  4840.000000   3619230   3619996   3620691   3621365   3622020  
  4830.000000   3622680   3623338   3624005   3624672   3625346  
  4820.000000   3626024   3626710   3627407   3628121   3628862  
  4810.000000   3629640   3630466   3631345   3632279   3633257  
  4800.000000   3634274   3635315   3636380   3637471   3638605  
  4790.000000   3639800   3641072   3642430   3643872   3645383  
  4780.000000   3646941   3648520   3650099   3651661   3653193  
  4770.000000   3654689   3656139   3657534   3658861   3660111  
  4760.000000   3661273   3662348   3663336   3664254   3665111  
  4750.000000   3665925   3666699   3667441   3668143   3668799  
  4740.000000   3669394   3669920   3670364   3670724   3670994  
  4730.000000   3671177   3671273   3671289   3671233   3671116  
  4720.000000   3670955   3670768   3670578   3670405   3670271  
  4710.000000   3670190   3670179   3670248   3670416   3670693  
  4700.000000   3671103   3671658   3672378   3673266   3674332  
  4690.000000   3675564   3676956   3678484   3680138   3681889  
  4680.000000   3683722   3685606   3687522   3689433   3691323  
  4670.000000   3693158   3694938   3696651   3698321   3699961  
  4660.000000   3701615   3703311   3705096   3707000   3709058  
  4650.000000   3711290   3713714   3716333   3719144   3722132  
  4640.000000   3725275   3728543   3731906   3735329   3738781  
  4630.000000   3742232   3745652   3749013   3752284   3755438  
  4620.000000   3758439   3761265   3763882   3766279   3768436  
  4610.000000   3770361   3772053   3773541   3774838   3775986  
  4600.000000   3776997   3777911   3778725   3779464   3780109  
  4590.000000   3780670   3781114   3781440   3781606   3781606  
  4580.000000   3781399   3780981   3780326   3779444   3778336  
  4570.000000   3777037   3775571   3773990   3772327   3770630  
  4560.000000   3768920   3767223   3765537   3763867   3762197  
  4550.000000   3760521   3758828   3757116   3755387   3753649  
  4540.000000   3751913   3750189   3748490   3746822   3745199  
  4530.000000   3743620   3742101   3740635   3739240   3737906  
  4520.000000   3736655   3735474   3734396   3733414   3732581  
  4510.000000   3731902   3731454   3731257   3731403   3731909  
  4500.000000   3732867   3734277   3736214   3738656   3741666  
  4490.000000   3745211   3749356   3754068   3759419   3765376  
  4480.000000   3772008   3779278   3787244   3795857   3805162  
  4470.000000   3815093   3825666   3836791   3848450   3860531  
  4460.000000   3872996   3885735   3898718   3911860   3925150  
  4450.000000   3938532   3952008   3965545   3979152   3992824  
  4440.000000   4006575   4020416   4034351   4048384   4062478  
  4430.000000   4076606   4090683   4104657   4118422   4131930  
  4420.000000   4145083   4157856   4170166   4182003   4193286  
  4410.000000   4204007   4214085   4223518   4232247   4240298  
  4400.000000   4247654   4254386   4260522   4266168   4271383  
  4390.000000   4276290   4280965   4285534   4290071   4294680  
  4380.000000   4299403   4304300   4309375   4314653   4320126  
  4370.000000   4325812   4331711   4337835   4344170   4350695  
  4360.000000   4357359   4364109   4370869   4377597   4384208  
  4350.000000   4390691   4396956   4403018   4408799   4414366  
  4340.000000   4419698   4424908   4429968   4434869   4439358  
  4330.000000   4443093   4445502   4446023   4444114   4439520  
  4320.000000   4432285   4422872   4412007   4400611   4389535  
  4310.000000   4379484   4370845   4363760   4358110   4353690  
  4300.000000   4350248   4347588   4345579   4344132   4343212  
  4290.000000   4342743   4342700   4342998   4343639   4344576  
  4280.000000   4345845   4347435   4349359   4351596   4354116  
  4270.000000   4356893   4359879   4363023   4366205   4369242  
  4260.000000   4371841   4373656   4374311   4373519   4371126  
  4250.000000   4367204   4362009   4355978   4349586   4343315  
  4240.000000   4337501   4332366   4327941   4324172   4320900  
  4230.000000   4317976   4315240   4312583   4309925   4307221  
  4220.000000   4304469   4301676   4298911   4296229   4293743  
  4210.000000   4291522   4289666   4288200   4287156   4286493  
  4200.000000   4286176   4286120   4286272   4286545   4286912  
  4190.000000   4287314   4287766   4288248   4288814   4289469  
  4180.000000   4290282   4291259   4292461   4293877   4295560  
  4170.000000   4297499   4299753   4302326   4305291   4308653  
  4160.000000   4312477   4316742   4321481   4326644   4332244  
  4150.000000   4338219   4344587   4351297   4358386   4365817  
  4140.000000   4373639   4381818   4390401   4399343   4408682  
  4130.000000   4418369   4428442   4438867   4449701   4460937  
  4120.000000   4472644   4484818   4497507   4510679   4524343  
  4110.000000   4538443   4552966   4567853   4583089   4598613  
  4100.000000   4614398   4630372   4646489   4662683   4678918  
  4090.000000   4695162   4711406   4727653   4743903   4760169  
  4080.000000   4776439   4792723   4808985   4825228   4841385  
  4070.000000   4857431   4873258   4888821   4904000   4918769  
  4060.000000   4933032   4946807   4960022   4972710   4984797  
  4050.000000   4996325   5007232   5017590   5027357   5036616  
  4040.000000   5045305   5053465   5060986   5067885   5074064  
  4030.000000   5079587   5084417   5088662   5092305   5095419  
  4020.000000   5097927   5099873   5101224   5102050   5102328  
  4010.000000   5102194   5101725   5100946   5099673   5097929  
  4000.000000   5095939  
##END= 
