##TITLE= Sample 030 By ssteindl date Dienstag, November 20 2018
##JCAMP-DX= 4.24
##DATA TYPE= INFRARED SPECTRUM
##ORIGIN= Exported PE Spectrum Data File
##OWNER= Sandra Steindl
##DATE= 18/11/20
##TIME= 11:48:54.00
##SPECTROMETER/DATA SYSTEM= PERKIN-ELMER Frontier FT-IR/NIR IR
##INSTRUMENT PARAMETERS=
  APODIZATION=stark
  DETECTOR=INGAAS
##RESOLUTION= 16.000000
##DELTAX= -2.000000
##XUNITS= 1/CM
##YUNITS= A
##XFACTOR= 1.00
##YFACTOR= 0.00000011920928955078
##FIRSTX= 10000.00
##LASTX= 4000.00
##NPOINTS= 3001
##FIRSTY= 0.231311
##MAXY= 0.609325
##MINY= 0.195241
##XYDATA= (X++(Y..Y))
 10000.000000   1940373   1936206   1931346   1925260   1918624  
  9990.000000   1912511   1907327   1902851   1899093   1896229  
  9980.000000   1894211   1892529   1890507   1887412   1882701  
  9970.000000   1876326   1868977   1861966   1856809   1854738  
  9960.000000   1856229   1860773   1867053   1873321   1878027  
  9950.000000   1880140   1879448   1876299   1871460   1865666  
  9940.000000   1859564   1853568   1848073   1843445   1840146  
  9930.000000   1838581   1839016   1841415   1845375   1850247  
  9920.000000   1855241   1859721   1863314   1866013   1868094  
  9910.000000   1869982   1872102   1874734   1877953   1881609  
  9900.000000   1885354   1888710   1891161   1892267   1891756  
  9890.000000   1889605   1886017   1881400   1876229   1870990  
  9880.000000   1866044   1861635   1857838   1854672   1852098  
  9870.000000   1850134   1848798   1848140   1848124   1848646  
  9860.000000   1849473   1850302   1850819   1850747   1849988  
  9850.000000   1848572   1846762   1844869   1843265   1842139  
  9840.000000   1841510   1841125   1840618   1839628   1838012  
  9830.000000   1835971   1834004   1832818   1832996   1834854  
  9820.000000   1838230   1842615   1847291   1851609   1855131  
  9810.000000   1857673   1859189   1859630   1858862   1856691  
  9800.000000   1853050   1848126   1842464   1836832   1832002  
  9790.000000   1828425   1826066   1824415   1822751   1820510  
  9780.000000   1817586   1814429   1811798   1810421   1810597  
  9770.000000   1812098   1814349   1816751   1819078   1821510  
  9760.000000   1824530   1828468   1833179   1837881   1841384  
  9750.000000   1842607   1841109   1837438   1832973   1829456  
  9740.000000   1828217   1829667   1833075   1836927   1839557  
  9730.000000   1839803   1837415   1832971   1827476   1821827  
  9720.000000   1816439   1811257   1806039   1800799   1796053  
  9710.000000   1792767   1791936   1794107   1798939   1805285  
  9700.000000   1811478   1816019   1818077   1817740   1815869  
  9690.000000   1813562   1811690   1810471   1809570   1808301  
  9680.000000   1806134   1802911   1798976   1794920   1791298  
  9670.000000   1788392   1786111   1784195   1782381   1780664  
  9660.000000   1779311   1778749   1779372   1781304   1784340  
  9650.000000   1787975   1791578   1794571   1796606   1797565  
  9640.000000   1797603   1796981   1796068   1795208   1794700  
  9630.000000   1794716   1795241   1796079   1796880   1797314  
  9620.000000   1797188   1796610   1795925   1795644   1796130  
  9610.000000   1797467   1799298   1800977   1801753   1801118  
  9600.000000   1798987   1795800   1792299   1789265   1787146  
  9590.000000   1785915   1785100   1784017   1782109   1779111  
  9580.000000   1775174   1770660   1766016   1761536   1757341  
  9570.000000   1753429   1749805   1746632   1744253   1743150  
  9560.000000   1743771   1746378   1750892   1756880   1763599  
  9550.000000   1770152   1775679   1779474   1781165   1780680  
  9540.000000   1778346   1774734   1770611   1766719   1763618  
  9530.000000   1761552   1760409   1759843   1759423   1758880  
  9520.000000   1758158   1757460   1757036   1757069   1757485  
  9510.000000   1758008   1758272   1758014   1757258   1756312  
  9500.000000   1755697   1755868   1757023   1758942   1761060  
  9490.000000   1762669   1763210   1762502   1760781   1758603  
  9480.000000   1756573   1755164   1754550   1754656   1755239  
  9470.000000   1756050   1756915   1757734   1758394   1758688  
  9460.000000   1758295   1756875   1754251   1750534   1746203  
  9450.000000   1741962   1738554   1736486   1735857   1736352  
  9440.000000   1737358   1738263   1738673   1738589   1738327  
  9430.000000   1738350   1739009   1740371   1742188   1743960  
  9420.000000   1745162   1745378   1744495   1742657   1740234  
  9410.000000   1737636   1735216   1733188   1731645   1730607  
  9400.000000   1730066   1730033   1730468   1731304   1732348  
  9390.000000   1733408   1734283   1734930   1735440   1736027  
  9380.000000   1736910   1738161   1739647   1740940   1741470  
  9370.000000   1740641   1738094   1733831   1728272   1722160  
  9360.000000   1716353   1711644   1708551   1707274   1707670  
  9350.000000   1709356   1711802   1714442   1716756   1718330  
  9340.000000   1718918   1718467   1717136   1715269   1713327  
  9330.000000   1711776   1710980   1711097   1712058   1713597  
  9320.000000   1715338   1716897   1717950   1718265   1717695  
  9310.000000   1716156   1713643   1710241   1706184   1701843  
  9300.000000   1697702   1694273   1691954   1690953   1691195  
  9290.000000   1692406   1694171   1696103   1697908   1699435  
  9280.000000   1700636   1701469   1701871   1701707   1700886  
  9270.000000   1699397   1697405   1695222   1693226   1691760  
  9260.000000   1690983   1690873   1691212   1691728   1692184  
  9250.000000   1692450   1692519   1692393   1692033   1691286  
  9240.000000   1689935   1687782   1684778   1681121   1677297  
  9230.000000   1673993   1671917   1671572   1673079   1676145  
  9220.000000   1680096   1684040   1687069   1688511   1688157  
  9210.000000   1686252   1683465   1680606   1678457   1677458  
  9200.000000   1677616   1678501   1679468   1679924   1679574  
  9190.000000   1678585   1677490   1677045   1677838   1680101  
  9180.000000   1683531   1687441   1690994   1693492   1694603  
  9170.000000   1694400   1693269   1691678   1689960   1688221  
  9160.000000   1686392   1684367   1682158   1679919   1677922  
  9150.000000   1676396   1675398   1674758   1674128   1673198  
  9140.000000   1671853   1670283   1668907   1668235   1668650  
  9130.000000   1670248   1672779   1675764   1678682   1681149  
  9120.000000   1682990   1684221   1684956   1685282   1685205  
  9110.000000   1684661   1683598   1682049   1680156   1678122  
  9100.000000   1676134   1674279   1672536   1670803   1668990  
  9090.000000   1667104   1665270   1663691   1662530   1661864  
  9080.000000   1661629   1661712   1661995   1662487   1663308  
  9070.000000   1664648   1666609   1669105   1671821   1674257  
  9060.000000   1675897   1676320   1675385   1673192   1670099  
  9050.000000   1666500   1662756   1659094   1655652   1652529  
  9040.000000   1649835   1647770   1646571   1646471   1647552  
  9030.000000   1649749   1652800   1656318   1659843   1662938  
  9020.000000   1665316   1666813   1667467   1667379   1666782  
  9010.000000   1665874   1664838   1663756   1662644   1661509  
  9000.000000   1660400   1659489   1659010   1659301   1660603  
  8990.000000   1663028   1666363   1670168   1673818   1676692  
  8980.000000   1678312   1678475   1677317   1675185   1672524  
  8970.000000   1669694   1666934   1664313   1661806   1659374  
  8960.000000   1657042   1654925   1653155   1651872   1651125  
  8950.000000   1650929   1651228   1651987   1653169   1654746  
  8940.000000   1656639   1658674   1660597   1662088   1662882  
  8930.000000   1662816   1661920   1660369   1658452   1656456  
  8920.000000   1654611   1653034   1651735   1650661   1649726  
  8910.000000   1648874   1648069   1647301   1646582   1645926  
  8900.000000   1645375   1644955   1644685   1644535   1644434  
  8890.000000   1644283   1643998   1643599   1643235   1643209  
  8880.000000   1643868   1645497   1648166   1651621   1655315  
  8870.000000   1658493   1660473   1660760   1659263   1656235  
  8860.000000   1652253   1647986   1644055   1640901   1638775  
  8850.000000   1637800   1638012   1639435   1642014   1645624  
  8840.000000   1649960   1654593   1658999   1662715   1665465  
  8830.000000   1667200   1668117   1668515   1668711   1668869  
  8820.000000   1668986   1668912   1668488   1667655   1666518  
  8810.000000   1665333   1664400   1663957   1664044   1664513  
  8800.000000   1665054   1665346   1665175   1664552   1663725  
  8790.000000   1663101   1663109   1664042   1665960   1668653  
  8780.000000   1671704   1674595   1676874   1678266   1678751  
  8770.000000   1678538   1677980   1677457   1677267   1677552  
  8760.000000   1678282   1679291   1680365   1681300   1681975  
  8750.000000   1682349   1682458   1682375   1682178   1681930  
  8740.000000   1681679   1681475   1681381   1681489   1681891  
  8730.000000   1682693   1683949   1685680   1687824   1690259  
  8720.000000   1692803   1695228   1697295   1698758   1699427  
  8710.000000   1699190   1698066   1696214   1693930   1691605  
  8700.000000   1689663   1688468   1688246   1689025   1690627  
  8690.000000   1692708   1694828   1696560   1697591   1697807  
  8680.000000   1697328   1696467   1695662   1695340   1695829  
  8670.000000   1697255   1699539   1702402   1705466   1708349  
  8660.000000   1710766   1712586   1713829   1714616   1715117  
  8650.000000   1715476   1715811   1716167   1716570   1717017  
  8640.000000   1717520   1718096   1718761   1719543   1720462  
  8630.000000   1721562   1722886   1724491   1726409   1728615  
  8620.000000   1731006   1733386   1735515   1737162   1738191  
  8610.000000   1738610   1738595   1738443   1738486   1738994  
  8600.000000   1740081   1741686   1743592   1745510   1747163  
  8590.000000   1748371   1749090   1749397   1749449   1749413  
  8580.000000   1749422   1749531   1749744   1750015   1750318  
  8570.000000   1750652   1751070   1751661   1752528   1753757  
  8560.000000   1755372   1757352   1759613   1762050   1764542  
  8550.000000   1766991   1769329   1771509   1773490   1775222  
  8540.000000   1776646   1777695   1778319   1778506   1778310  
  8530.000000   1777841   1777250   1776692   1776291   1776116  
  8520.000000   1776173   1776424   1776802   1777246   1777711  
  8510.000000   1778178   1778661   1779200   1779872   1780768  
  8500.000000   1781991   1783617   1785667   1788073   1790680  
  8490.000000   1793258   1795580   1797468   1798887   1799927  
  8480.000000   1800800   1801735   1802897   1804306   1805822  
  8470.000000   1807223   1808293   1808956   1809309   1809644  
  8460.000000   1810317   1811633   1813674   1816261   1818973  
  8450.000000   1821280   1822707   1822990   1822173   1820572  
  8440.000000   1818680   1817003   1815921   1815603   1815987  
  8430.000000   1816866   1817977   1819121   1820188   1821192  
  8420.000000   1822181   1823230   1824339   1825462   1826494  
  8410.000000   1827337   1827934   1828285   1828433   1828435  
  8400.000000   1828317   1828060   1827592   1826826   1825702  
  8390.000000   1824233   1822510   1820684   1818925   1817363  
  8380.000000   1816051   1814962   1814018   1813138   1812298  
  8370.000000   1811546   1811011   1810837   1811136   1811917  
  8360.000000   1813079   1814434   1815768   1816920   1817840  
  8350.000000   1818592   1819326   1820199   1821299   1822593  
  8340.000000   1823905   1824985   1825580   1825528   1824796  
  8330.000000   1823507   1821886   1820203   1818672   1817412  
  8320.000000   1816416   1815591   1814797   1813900   1812811  
  8310.000000   1811513   1810053   1808531   1807061   1805761  
  8300.000000   1804731   1804056   1803784   1803926   1804439  
  8290.000000   1805233   1806174   1807104   1807870   1808341  
  8280.000000   1808449   1808164   1807523   1806583   1805422  
  8270.000000   1804117   1802738   1801364   1800080   1798994  
  8260.000000   1798204   1797799   1797796   1798148   1798706  
  8250.000000   1799263   1799581   1799471   1798838   1797725  
  8240.000000   1796292   1794778   1793415   1792369   1791681  
  8230.000000   1791269   1790955   1790546   1789889   1788920  
  8220.000000   1787661   1786191   1784588   1782895   1781098  
  8210.000000   1779156   1777043   1774801   1772558   1770508  
  8200.000000   1768846   1767709   1767105   1766915   1766905  
  8190.000000   1766821   1766448   1765682   1764546   1763158  
  8180.000000   1761684   1760264   1758983   1757838   1756773  
  8170.000000   1755690   1754492   1753106   1751497   1749683  
  8160.000000   1747727   1745741   1743852   1742195   1740863  
  8150.000000   1739887   1739208   1738685   1738135   1737380  
  8140.000000   1736325   1734968   1733418   1731831   1730371  
  8130.000000   1729133   1728134   1727308   1726559   1725809  
  8120.000000   1725034   1724282   1723643   1723208   1723026  
  8110.000000   1723078   1723287   1723529   1723682   1723636  
  8100.000000   1723321   1722700   1721775   1720583   1719200  
  8090.000000   1717749   1716379   1715247   1714474   1714102  
  8080.000000   1714074   1714234   1714368   1714267   1713781  
  8070.000000   1712873   1711617   1710178   1708755   1707536  
  8060.000000   1706643   1706127   1705953   1706032   1706233  
  8050.000000   1706417   1706446   1706210   1705634   1704687  
  8040.000000   1703389   1701803   1700034   1698193   1696398  
  8030.000000   1694739   1693279   1692041   1691011   1690153  
  8020.000000   1689406   1688719   1688059   1687427   1686864  
  8010.000000   1686429   1686178   1686117   1686189   1686264  
  8000.000000   1686186   1685819   1685121   1684168   1683154  
  7990.000000   1682325   1681888   1681935   1682386   1683013  
  7980.000000   1683519   1683638   1683245   1682386   1681261  
  7970.000000   1680125   1679192   1678543   1678113   1677733  
  7960.000000   1677222   1676478   1675532   1674539   1673715  
  7950.000000   1673252   1673235   1673614   1674223   1674839  
  7940.000000   1675264   1675370   1675141   1674641   1673992  
  7930.000000   1673309   1672691   1672187   1671818   1671581  
  7920.000000   1671463   1671447   1671509   1671632   1671791  
  7910.000000   1671980   1672201   1672476   1672834   1673286  
  7900.000000   1673827   1674396   1674911   1675252   1675318  
  7890.000000   1675037   1674407   1673504   1672469   1671492  
  7880.000000   1670761   1670429   1670565   1671151   1672069  
  7870.000000   1673147   1674188   1675026   1675551   1675734  
  7860.000000   1675615   1675281   1674837   1674372   1673949  
  7850.000000   1673590   1673299   1673055   1672837   1672607  
  7840.000000   1672327   1671944   1671414   1670706   1669833  
  7830.000000   1668864   1667925   1667190   1666830   1666983  
  7820.000000   1667696   1668918   1670484   1672166   1673713  
  7810.000000   1674915   1675650   1675894   1675721   1675248  
  7800.000000   1674598   1673845   1673002   1672032   1670887  
  7790.000000   1669565   1668125   1666714   1665503   1664658  
  7780.000000   1664245   1664225   1664433   1664644   1664636  
  7770.000000   1664259   1663491   1662408   1661170   1659940  
  7760.000000   1658841   1657925   1657185   1656587   1656109  
  7750.000000   1655762   1655587   1655628   1655898   1656355  
  7740.000000   1656904   1657413   1657764   1657866   1657696  
  7730.000000   1657271   1656659   1655936   1655184   1654482  
  7720.000000   1653897   1653495   1653311   1653367   1653631  
  7710.000000   1654046   1654522   1654965   1655295   1655448  
  7700.000000   1655385   1655067   1654457   1653512   1652214  
  7690.000000   1650590   1648749   1646884   1645246   1644092  
  7680.000000   1643603   1643837   1644689   1645927   1647241  
  7670.000000   1648324   1648950   1648998   1648482   1647502  
  7660.000000   1646227   1644833   1643496   1642351   1641510  
  7650.000000   1641043   1640979   1641302   1641939   1642783  
  7640.000000   1643691   1644524   1645171   1645572   1645730  
  7630.000000   1645697   1645563   1645413   1645320   1645310  
  7620.000000   1645380   1645496   1645617   1645707   1645753  
  7610.000000   1645758   1645742   1645722   1645702   1645671  
  7600.000000   1645608   1645498   1645355   1645224   1645187  
  7590.000000   1645337   1645741   1646422   1647323   1648335  
  7580.000000   1649314   1650139   1650744   1651142   1651411  
  7570.000000   1651657   1651965   1652352   1652762   1653078  
  7560.000000   1653179   1652982   1652493   1651798   1651055  
  7550.000000   1650444   1650114   1650155   1650576   1651323  
  7540.000000   1652305   1653423   1654593   1655749   1656851  
  7530.000000   1657863   1658770   1659552   1660216   1660768  
  7520.000000   1661242   1661672   1662111   1662606   1663207  
  7510.000000   1663955   1664886   1666023   1667369   1668893  
  7500.000000   1670528   1672168   1673689   1674975   1675951  
  7490.000000   1676606   1677003   1677265   1677555   1678032  
  7480.000000   1678807   1679922   1681341   1682965   1684661  
  7470.000000   1686295   1687759   1688989   1689974   1690741  
  7460.000000   1691351   1691872   1692388   1692969   1693684  
  7450.000000   1694574   1695664   1696952   1698412   1700004  
  7440.000000   1701681   1703409   1705174   1706979   1708842  
  7430.000000   1710774   1712777   1714820   1716860   1718836  
  7420.000000   1720706   1722439   1724044   1725553   1727016  
  7410.000000   1728481   1729988   1731551   1733166   1734817  
  7400.000000   1736474   1738116   1739723   1741291   1742830  
  7390.000000   1744361   1745911   1747503   1749145   1750825  
  7380.000000   1752502   1754122   1755631   1757001   1758242  
  7370.000000   1759407   1760581   1761851   1763276   1764867  
  7360.000000   1766582   1768334   1770023   1771572   1772945  
  7350.000000   1774164   1775292   1776419   1777627   1778969  
  7340.000000   1780465   1782095   1783818   1785582   1787339  
  7330.000000   1789048   1790679   1792223   1793686   1795101  
  7320.000000   1796513   1797976   1799539   1801223   1803021  
  7310.000000   1804881   1806724   1808458   1810002   1811306  
  7300.000000   1812364   1813224   1813971   1814721   1815582  
  7290.000000   1816648   1817959   1819499   1821192   1822922  
  7280.000000   1824558   1825990   1827145   1828007   1828622  
  7270.000000   1829074   1829471   1829908   1830467   1831194  
  7260.000000   1832115   1833224   1834507   1835929   1837454  
  7250.000000   1839029   1840612   1842162   1843672   1845146  
  7240.000000   1846632   1848169   1849816   1851594   1853523  
  7230.000000   1855586   1857774   1860060   1862441   1864906  
  7220.000000   1867457   1870085   1872792   1875567   1878418  
  7210.000000   1881339   1884333   1887373   1890427   1893432  
  7200.000000   1896340   1899110   1901761   1904348   1906976  
  7190.000000   1909744   1912733   1915960   1919389   1922927  
  7180.000000   1926482   1929982   1933408   1936781   1940157  
  7170.000000   1943572   1947048   1950561   1954088   1957598  
  7160.000000   1961106   1964636   1968242   1971953   1975783  
  7150.000000   1979699   1983664   1987631   1991598   1995580  
  7140.000000   1999642   2003835   2008215   2012789   2017555  
  7130.000000   2022483   2027569   2032803   2038208   2043782  
  7120.000000   2049527   2055398   2061349   2067308   2073235  
  7110.000000   2079096   2084903   2090670   2096436   2102226  
  7100.000000   2108079   2114015   2120063   2126229   2132509  
  7090.000000   2138863   2145232   2151542   2157739   2163798  
  7080.000000   2169746   2175640   2181551   2187527   2193570  
  7070.000000   2199633   2205648   2211550   2217318   2222980  
  7060.000000   2228606   2234272   2240032   2245891   2251812  
  7050.000000   2257733   2263599   2269386   2275109   2280808  
  7040.000000   2286525   2292289   2298095   2303923   2309737  
  7030.000000   2315511   2321230   2326892   2332495   2338041  
  7020.000000   2343516   2348919   2354237   2359476   2364631  
  7010.000000   2369698   2374657   2379488   2384164   2388686  
  7000.000000   2393066   2397353   2401590   2405823   2410056  
  6990.000000   2414281   2418452   2422541   2426518   2430391  
  6980.000000   2434165   2437862   2441474   2444995   2448397  
  6970.000000   2451676   2454840   2457925   2460965   2463987  
  6960.000000   2466975   2469893   2472676   2475285   2477705  
  6950.000000   2479978   2482171   2484368   2486623   2488964  
  6940.000000   2491370   2493815   2496254   2498669   2501042  
  6930.000000   2503373   2505643   2507838   2509932   2511918  
  6920.000000   2513803   2515616   2517381   2519111   2520779  
  6910.000000   2522341   2523738   2524944   2525972   2526895  
  6900.000000   2527804   2528793   2529905   2531134   2532414  
  6890.000000   2533666   2534818   2535845   2536758   2537599  
  6880.000000   2538407   2539208   2540008   2540809   2541617  
  6870.000000   2542462   2543377   2544390   2545495   2546653  
  6860.000000   2547786   2548821   2549705   2550432   2551036  
  6850.000000   2551574   2552096   2552623   2553146   2553639  
  6840.000000   2554080   2554479   2554866   2555293   2555802  
  6830.000000   2556411   2557103   2557838   2558570   2559265  
  6820.000000   2559900   2560467   2560957   2561359   2561655  
  6810.000000   2561839   2561923   2561951   2561980   2562071  
  6800.000000   2562257   2562542   2562888   2563247   2563567  
  6790.000000   2563821   2563994   2564087   2564092   2563990  
  6780.000000   2563754   2563361   2562815   2562152   2561434  
  6770.000000   2560732   2560098   2559554   2559091   2558688  
  6760.000000   2558328   2558015   2557770   2557615   2557545  
  6750.000000   2557523   2557481   2557340   2557049   2556604  
  6740.000000   2556054   2555481   2554975   2554594   2554356  
  6730.000000   2554232   2554174   2554130   2554070   2553985  
  6720.000000   2553881   2553768   2553649   2553525   2553396  
  6710.000000   2553275   2553177   2553123   2553114   2553134  
  6700.000000   2553142   2553091   2552940   2552675   2552306  
  6690.000000   2551867   2551384   2550871   2550314   2549687  
  6680.000000   2548957   2548118   2547181   2546191   2545191  
  6670.000000   2544221   2543292   2542396   2541498   2540571  
  6660.000000   2539588   2538544   2537440   2536289   2535101  
  6650.000000   2533893   2532677   2531477   2530313   2529204  
  6640.000000   2528154   2527154   2526176   2525188   2524156  
  6630.000000   2523063   2521905   2520692   2519431   2518130  
  6620.000000   2516785   2515394   2513960   2512502   2511052  
  6610.000000   2509651   2508331   2507106   2505960   2504858  
  6600.000000   2503743   2502572   2501307   2499947   2498504  
  6590.000000   2497016   2495522   2494061   2492651   2491293  
  6580.000000   2489959   2488605   2487175   2485620   2483910  
  6570.000000   2482050   2480077   2478056   2476063   2474166  
  6560.000000   2472405   2470788   2469293   2467877   2466491  
  6550.000000   2465092   2463650   2462150   2460596   2459007  
  6540.000000   2457419   2455877   2454435   2453135   2451997  
  6530.000000   2451004   2450104   2449216   2448260   2447176  
  6520.000000   2445944   2444590   2443173   2441759   2440404  
  6510.000000   2439131   2437935   2436785   2435645   2434488  
  6500.000000   2433300   2432082   2430839   2429579   2428303  
  6490.000000   2427010   2425699   2424377   2423053   2421742  
  6480.000000   2420457   2419210   2418010   2416864   2415775  
  6470.000000   2414741   2413752   2412780   2411792   2410747  
  6460.000000   2409617   2408390   2407085   2405738   2404398  
  6450.000000   2403107   2401888   2400742   2399652   2398595  
  6440.000000   2397554   2396520   2395499   2394494   2393513  
  6430.000000   2392552   2391610   2390682   2389775   2388895  
  6420.000000   2388058   2387266   2386522   2385818   2385152  
  6410.000000   2384525   2383954   2383455   2383043   2382713  
  6400.000000   2382446   2382207   2381963   2381693   2381403  
  6390.000000   2381115   2380857   2380645   2380472   2380306  
  6380.000000   2380108   2379838   2379484   2379057   2378593  
  6370.000000   2378129   2377693   2377297   2376936   2376602  
  6360.000000   2376289   2376003   2375750   2375534   2375333  
  6350.000000   2375119   2374848   2374492   2374036   2373500  
  6340.000000   2372910   2372301   2371679   2371037   2370340  
  6330.000000   2369560   2368677   2367704   2366672   2365631  
  6320.000000   2364613   2363638   2362691   2361747   2360773  
  6310.000000   2359757   2358696   2357610   2356521   2355451  
  6300.000000   2354408   2353393   2352399   2351415   2350426  
  6290.000000   2349415   2348359   2347237   2346033   2344751  
  6280.000000   2343411   2342057   2340731   2339468   2338270  
  6270.000000   2337110   2335929   2334666   2333268   2331714  
  6260.000000   2330015   2328214   2326363   2324516   2322713  
  6250.000000   2320983   2319338   2317787   2316331   2314965  
  6240.000000   2313671   2312419   2311172   2309891   2308544  
  6230.000000   2307113   2305599   2304011   2302372   2300704  
  6220.000000   2299032   2297379   2295766   2294213   2292731  
  6210.000000   2291320   2289968   2288651   2287343   2286020  
  6200.000000   2284675   2283311   2281947   2280598   2279283  
  6190.000000   2278007   2276773   2275579   2274431   2273332  
  6180.000000   2272287   2271292   2270333   2269385   2268421  
  6170.000000   2267420   2266374   2265288   2264179   2263060  
  6160.000000   2261938   2260807   2259653   2258466   2257241  
  6150.000000   2255993   2254743   2253520   2252342   2251216  
  6140.000000   2250131   2249068   2248004   2246921   2245810  
  6130.000000   2244673   2243520   2242362   2241219   2240108  
  6120.000000   2239046   2238045   2237107   2236220   2235367  
  6110.000000   2234519   2233659   2232782   2231904   2231052  
  6100.000000   2230269   2229582   2229015   2228561   2228207  
  6090.000000   2227917   2227667   2227421   2227162   2226870  
  6080.000000   2226543   2226180   2225804   2225442   2225144  
  6070.000000   2224945   2224885   2224963   2225171   2225463  
  6060.000000   2225805   2226152   2226500   2226851   2227240  
  6050.000000   2227694   2228253   2228929   2229744   2230694  
  6040.000000   2231791   2233026   2234403   2235897   2237490  
  6030.000000   2239140   2240830   2242536   2244275   2246063  
  6020.000000   2247937   2249907   2251979   2254118   2256290  
  6010.000000   2258447   2260575   2262670   2264769   2266903  
  6000.000000   2269119   2271433   2273860   2276381   2278993  
  5990.000000   2281675   2284433   2287260   2290168   2293151  
  5980.000000   2296216   2299356   2302581   2305892   2309312  
  5970.000000   2312844   2316498   2320255   2324104   2328007  
  5960.000000   2331948   2335897   2339853   2343802   2347756  
  5950.000000   2351711   2355681   2359674   2363713   2367817  
  5940.000000   2372009   2376301   2380693   2385172   2389715  
  5930.000000   2394299   2398898   2403495   2408066   2412586  
  5920.000000   2417011   2421294   2425381   2429234   2432835  
  5910.000000   2436198   2439355   2442355   2445240   2448050  
  5900.000000   2450797   2453501   2456163   2458806   2461439  
  5890.000000   2464089   2466760   2469458   2472168   2474879  
  5880.000000   2477567   2480218   2482810   2485320   2487722  
  5870.000000   2489985   2492089   2494032   2495842   2497577  
  5860.000000   2499315   2501135   2503102   2505247   2507570  
  5850.000000   2510043   2512621   2515256   2517905   2520533  
  5840.000000   2523117   2525646   2528127   2530580   2533045  
  5830.000000   2535563   2538177   2540900   2543723   2546598  
  5820.000000   2549469   2552276   2554982   2557580   2560086  
  5810.000000   2562538   2564963   2567391   2569821   2572267  
  5800.000000   2574717   2577201   2579714   2582286   2584879  
  5790.000000   2587474   2589977   2592314   2594363   2596041  
  5780.000000   2597236   2597882   2597894   2597244   2595912  
  5770.000000   2593958   2591475   2588634   2585601   2582563  
  5760.000000   2579637   2576910   2574385   2572058   2569889  
  5750.000000   2567877   2566017   2564331   2562818   2561462  
  5740.000000   2560219   2559022   2557818   2556563   2555259  
  5730.000000   2553915   2552574   2551260   2550002   2548800  
  5720.000000   2547659   2546574   2545550   2544588   2543691  
  5710.000000   2542850   2542057   2541297   2540568   2539875  
  5700.000000   2539231   2538648   2538124   2537645   2537177  
  5690.000000   2536696   2536179   2535639   2535097   2534594  
  5680.000000   2534145   2533755   2533377   2532956   2532407  
  5670.000000   2531664   2530666   2529384   2527799   2525919  
  5660.000000   2523752   2521335   2518709   2515949   2513129  
  5650.000000   2510341   2507651   2505116   2502755   2500573  
  5640.000000   2498550   2496665   2494889   2493197   2491560  
  5630.000000   2489947   2488338   2486711   2485076   2483443  
  5620.000000   2481849   2480320   2478884   2477542   2476290  
  5610.000000   2475109   2473989   2472921   2471914   2470971  
  5600.000000   2470096   2469277   2468494   2467717   2466929  
  5590.000000   2466117   2465288   2464452   2463622   2462801  
  5580.000000   2461982   2461156   2460313   2459455   2458590  
  5570.000000   2457731   2456883   2456043   2455192   2454306  
  5560.000000   2453361   2452342   2451248   2450091   2448885  
  5550.000000   2447653   2446409   2445175   2443966   2442804  
  5540.000000   2441702   2440669   2439696   2438762   2437836  
  5530.000000   2436890   2435904   2434879   2433826   2432770  
  5520.000000   2431732   2430726   2429751   2428799   2427854  
  5510.000000   2426903   2425926   2424913   2423844   2422710  
  5500.000000   2421503   2420233   2418915   2417584   2416263  
  5490.000000   2414968   2413682   2412374   2410996   2409514  
  5480.000000   2407910   2406201   2404423   2402629   2400857  
  5470.000000   2399134   2397458   2395817   2394194   2392579  
  5460.000000   2390965   2389351   2387727   2386076   2384374  
  5450.000000   2382601   2380753   2378843   2376907   2374987  
  5440.000000   2373124   2371342   2369654   2368053   2366533  
  5430.000000   2365077   2363675   2362301   2360941   2359569  
  5420.000000   2358188   2356808   2355480   2354259   2353214  
  5410.000000   2352374   2351742   2351267   2350896   2350559  
  5400.000000   2350237   2349924   2349664   2349488   2349446  
  5390.000000   2349539   2349777   2350132   2350618   2351234  
  5380.000000   2352028   2353013   2354222   2355627   2357219  
  5370.000000   2358938   2360779   2362712   2364779   2366983  
  5360.000000   2369384   2371978   2374818   2377891   2381264  
  5350.000000   2384944   2389019   2393493   2398428   2403775  
  5340.000000   2409552   2415680   2422191   2429038   2436298  
  5330.000000   2443948   2452072   2460623   2469664   2479140  
  5320.000000   2489136   2499633   2510767   2522540   2535087  
  5310.000000   2548371   2562471   2577295   2592893   2609178  
  5300.000000   2626233   2644022   2662674   2682182   2702665  
  5290.000000   2724072   2746438   2769617   2793539   2818009  
  5280.000000   2842964   2868299   2894078   2920340   2947238  
  5270.000000   2974819   3003121   3032017   3061328   3090807  
  5260.000000   3120252   3149548   3178678   3207716   3236722  
  5250.000000   3265734   3294646   3323319   3351489   3378997  
  5240.000000   3405664   3431528   3456596   3481059   3504972  
  5230.000000   3528483   3551529   3574113   3596040   3617247  
  5220.000000   3637556   3656997   3675517   3693276   3710309  
  5210.000000   3726795   3742712   3758125   3772881   3786952  
  5200.000000   3800163   3812549   3824044   3834796   3844811  
  5190.000000   3854238   3863037   3871279   3878867   3885844  
  5180.000000   3892132   3897812   3902837   3907290   3911105  
  5170.000000   3914327   3916874   3918807   3920093   3920844  
  5160.000000   3921071   3920886   3920269   3919277   3917850  
  5150.000000   3916027   3913770   3911149   3908160   3904880  
  5140.000000   3901295   3897453   3893326   3888954   3884329  
  5130.000000   3879511   3874507   3869366   3864075   3858651  
  5120.000000   3853069   3847352   3841500   3835562   3829560  
  5110.000000   3823533   3817483   3811418   3805326   3799220  
  5100.000000   3793116   3787054   3781066   3775178   3769385  
  5090.000000   3763662   3757966   3752260   3746519   3740747  
  5080.000000   3734959   3729186   3723440   3717732   3712044  
  5070.000000   3706359   3700645   3694889   3689068   3683179  
  5060.000000   3677204   3671141   3664972   3658699   3652313  
  5050.000000   3645826   3639238   3632561   3625788   3618922  
  5040.000000   3611952   3604889   3597738   3590527   3583278  
  5030.000000   3576023   3568780   3561563   3554376   3547220  
  5020.000000   3540097   3533008   3525962   3518962   3512020  
  5010.000000   3505139   3498335   3491613   3485000   3478505  
  5000.000000   3472157   3465953   3459913   3454021   3448291  
  4990.000000   3442708   3437301   3432066   3427042   3422221  
  4980.000000   3417634   3413258   3409120   3405198   3401537  
  4970.000000   3398133   3395045   3392267   3389839   3387726  
  4960.000000   3385943   3384436   3383228   3382286   3381665  
  4950.000000   3381356   3381426   3381854   3382685   3383874  
  4940.000000   3385447   3387357   3389643   3392273   3395296  
  4930.000000   3398680   3402465   3406608   3411138   3416012  
  4920.000000   3421263   3426858   3432832   3439151   3445838  
  4910.000000   3452851   3460203   3467856   3475820   3484063  
  4900.000000   3492588   3501356   3510344   3519504   3528794  
  4890.000000   3538168   3547574   3556972   3566297   3575499  
  4880.000000   3584488   3593205   3601552   3609489   3616938  
  4870.000000   3623893   3630302   3636184   3641497   3646269  
  4860.000000   3650461   3654110   3657187   3659743   3661765  
  4850.000000   3663321   3664415   3665130   3665492   3665591  
  4840.000000   3665458   3665174   3664761   3664274   3663720  
  4830.000000   3663139   3662542   3661972   3661451   3661022  
  4820.000000   3660704   3660512   3660443   3660481   3660607  
  4810.000000   3660795   3661039   3661327   3661675   3662084  
  4800.000000   3662575   3663149   3663818   3664577   3665431  
  4790.000000   3666375   3667414   3668541   3669760   3671061  
  4780.000000   3672439   3673880   3675372   3676896   3678438  
  4770.000000   3679978   3681504   3683003   3684469   3685900  
  4760.000000   3687294   3688656   3689980   3691264   3692493  
  4750.000000   3693656   3694735   3695718   3696594   3697363  
  4740.000000   3698022   3698585   3699062   3699475   3699846  
  4730.000000   3700202   3700567   3700959   3701389   3701853  
  4720.000000   3702345   3702850   3703363   3703875   3704405  
  4710.000000   3704966   3705595   3706316   3707164   3708154  
  4700.000000   3709311   3710638   3712153   3713858   3715770  
  4690.000000   3717888   3720218   3722741   3725446   3728289  
  4680.000000   3731236   3734229   3737228   3740175   3743048  
  4670.000000   3745810   3748472   3751036   3753547   3756039  
  4660.000000   3758573   3761193   3763956   3766892   3770034  
  4650.000000   3773392   3776967   3780744   3784698   3788793  
  4640.000000   3792988   3797243   3801517   3805782   3810013  
  4630.000000   3814197   3818314   3822352   3826278   3830069  
  4620.000000   3833674   3837063   3840187   3843030   3845565  
  4610.000000   3847808   3849759   3851463   3852935   3854229  
  4600.000000   3855357   3856364   3857249   3858045   3858737  
  4590.000000   3859343   3859835   3860210   3860420   3860447  
  4580.000000   3860236   3859774   3859034   3858040   3856814  
  4570.000000   3855423   3853917   3852368   3850806   3849264  
  4560.000000   3847731   3846196   3844622   3842990   3841271  
  4550.000000   3839466   3837571   3835603   3833575   3831512  
  4540.000000   3829429   3827347   3825281   3823237   3821224  
  4530.000000   3819233   3817265   3815304   3813356   3811413  
  4520.000000   3809502   3807631   3805850   3804168   3802643  
  4510.000000   3801278   3800135   3799216   3798600   3798296  
  4500.000000   3798401   3798927   3799970   3801528   3803686  
  4490.000000   3806423   3809816   3813835   3818557   3823943  
  4480.000000   3830064   3836873   3844427   3852672   3861653  
  4470.000000   3871306   3881656   3892617   3904182   3916239  
  4460.000000   3928757   3941619   3954799   3968204   3981824  
  4450.000000   3995596   4009520   4023555   4037701   4051936  
  4440.000000   4066257   4080657   4095119   4109629   4124140  
  4430.000000   4138618   4152982   4167193   4181165   4194874  
  4420.000000   4208243   4221262   4233855   4246006   4257627  
  4410.000000   4268695   4279125   4288915   4298011   4306459  
  4400.000000   4314251   4321472   4328147   4334374   4340190  
  4390.000000   4345701   4350956   4356069   4361100   4366154  
  4380.000000   4371269   4376510   4381875   4387382   4393006  
  4370.000000   4398750   4404589   4410522   4416527   4422589  
  4360.000000   4428672   4434755   4440793   4446782   4452668  
  4350.000000   4458467   4464103   4469605   4474897   4480050  
  4340.000000   4485038   4489967   4494795   4499499   4503808  
  4330.000000   4507366   4509598   4509941   4507867   4503132  
  4320.000000   4495797   4486325   4475446   4464067   4453031  
  4310.000000   4443034   4434455   4427432   4421848   4417491  
  4300.000000   4414100   4411468   4409453   4407954   4406930  
  4290.000000   4406305   4406063   4406128   4406513   4407185  
  4280.000000   4408186   4409512   4411176   4413153   4415404  
  4270.000000   4417887   4420537   4423294   4426029   4428573  
  4260.000000   4430648   4431935   4432079   4430806   4427956  
  4250.000000   4423581   4417910   4411353   4404369   4397441  
  4240.000000   4390918   4385050   4379891   4375411   4371458  
  4230.000000   4367887   4364536   4361291   4358069   4354819  
  4220.000000   4351536   4348212   4344903   4341640   4338529  
  4210.000000   4335631   4333058   4330851   4329074   4327708  
  4200.000000   4326744   4326111   4325763   4325616   4325637  
  4190.000000   4325762   4325994   4326300   4326715   4327230  
  4180.000000   4327900   4328726   4329771   4331031   4332565  
  4170.000000   4334361   4336465   4338860   4341592   4344646  
  4160.000000   4348078   4351875   4356098   4360727   4365807  
  4150.000000   4371298   4377225   4383530   4390235   4397290  
  4140.000000   4404739   4412551   4420784   4429403   4438449  
  4130.000000   4447862   4457657   4467764   4478209   4488955  
  4120.000000   4500064   4511542   4523471   4535864   4548783  
  4110.000000   4562218   4576192   4590659   4605602   4620938  
  4100.000000   4636610   4652512   4668569   4684694   4700845  
  4090.000000   4716990   4733130   4749274   4765427   4781599  
  4080.000000   4797764   4813919   4830011   4846031   4861905  
  4070.000000   4877616   4893063   4908217   4922968   4937304  
  4060.000000   4951138   4964492   4977295   4989580   5001267  
  4050.000000   5012387   5022865   5032759   5042021   5050734  
  4040.000000   5058846   5066416   5073357   5079708   5085385  
  4030.000000   5090457   5094886   5098775   5102104   5104950  
  4020.000000   5107245   5109039   5110306   5111104   5111389  
  4010.000000   5111267   5110792   5109960   5108574   5106659  
  4000.000000   5104475  
##END= 
