##TITLE= Sample 004 By ssteindl date Dienstag, November 20 2018
##JCAMP-DX= 4.24
##DATA TYPE= INFRARED SPECTRUM
##ORIGIN= Exported PE Spectrum Data File
##OWNER= Sandra Steindl
##DATE= 18/11/20
##TIME= 13:20:56.00
##SPECTROMETER/DATA SYSTEM= PERKIN-ELMER Frontier FT-IR/NIR IR
##INSTRUMENT PARAMETERS=
  APODIZATION=stark
  DETECTOR=INGAAS
##RESOLUTION= 16.000000
##DELTAX= -2.000000
##XUNITS= 1/CM
##YUNITS= A
##XFACTOR= 1.00
##YFACTOR= 0.00000011920928955078
##FIRSTX= 10000.00
##LASTX= 4000.00
##NPOINTS= 3001
##FIRSTY= 0.225380
##MAXY= 0.615794
##MINY= 0.191152
##XYDATA= (X++(Y..Y))
 10000.000000   1890625   1892751   1895213   1898210   1901107  
  9990.000000   1902978   1903289   1902182   1900110   1897684  
  9980.000000   1895508   1893924   1892805   1891609   1889715  
  9970.000000   1886661   1882338   1877020   1871265   1865732  
  9960.000000   1861008   1857544   1855619   1855413   1856959  
  9950.000000   1860164   1864689   1869990   1875326   1879979  
  9940.000000   1883420   1885480   1886373   1886520   1886370  
  9930.000000   1886096   1885600   1884487   1882340   1878887  
  9920.000000   1874164   1868561   1862658   1857133   1852499  
  9910.000000   1849118   1847127   1846534   1847247   1849037  
  9900.000000   1851548   1854211   1856357   1857327   1856667  
  9890.000000   1854326   1850683   1846545   1842930   1840849  
  9880.000000   1841056   1843846   1848969   1855607   1862489  
  9870.000000   1868074   1870892   1869850   1864642   1855837  
  9860.000000   1844926   1833883   1824741   1818959   1817085  
  9850.000000   1818656   1822423   1826921   1830882   1833765  
  9840.000000   1835678   1837348   1839569   1842924   1847463  
  9830.000000   1852718   1857897   1862079   1864530   1864721  
  9820.000000   1862513   1858024   1851707   1844207   1836309  
  9810.000000   1828791   1822232   1816940   1812838   1809655  
  9800.000000   1807042   1804911   1803488   1803339   1805067  
  9790.000000   1808978   1814782   1821492   1827704   1831974  
  9780.000000   1833407   1831897   1828241   1823770   1819939  
  9770.000000   1817797   1817754   1819522   1822364   1825347  
  9760.000000   1827659   1828707   1828212   1826144   1822711  
  9750.000000   1818358   1813714   1809597   1806800   1805987  
  9740.000000   1807425   1810999   1816182   1822319   1828706  
  9730.000000   1834818   1840215   1844512   1847274   1847985  
  9720.000000   1846241   1841842   1835093   1826728   1817861  
  9710.000000   1809613   1802797   1797726   1794163   1791660  
  9700.000000   1789747   1788326   1787567   1787877   1789505  
  9690.000000   1792377   1795996   1799560   1802309   1803672  
  9680.000000   1803550   1802103   1799743   1796795   1793503  
  9670.000000   1789995   1786408   1783036   1780285   1778660  
  9660.000000   1778504   1779906   1782589   1786005   1789493  
  9650.000000   1792420   1794324   1794862   1793840   1791134  
  9640.000000   1786816   1781220   1775050   1769335   1765205  
  9630.000000   1763602   1764922   1768895   1774570   1780650  
  9620.000000   1785811   1789124   1790228   1789325   1786999  
  9610.000000   1783905   1780616   1777494   1774769   1772586  
  9600.000000   1771027   1770116   1769727   1769652   1769607  
  9590.000000   1769407   1769026   1768618   1768407   1768462  
  9580.000000   1768590   1768246   1766793   1763750   1759165  
  9570.000000   1753714   1748582   1745105   1744265   1746379  
  9560.000000   1750944   1756867   1762838   1767762   1771040  
  9550.000000   1772587   1772694   1771723   1769991   1767650  
  9540.000000   1764865   1761853   1758989   1756689   1755268  
  9530.000000   1754818   1755107   1755786   1756452   1756976  
  9520.000000   1757452   1758209   1759550   1761548   1763932  
  9510.000000   1766100   1767347   1767099   1765122   1761593  
  9500.000000   1757004   1752032   1747338   1743512   1740953  
  9490.000000   1739884   1740242   1741687   1743563   1745042  
  9480.000000   1745299   1743768   1740342   1735425   1729848  
  9470.000000   1724558   1720352   1717558   1716066   1715388  
  9460.000000   1714994   1714513   1713870   1713236   1712854  
  9450.000000   1712897   1713376   1714199   1715270   1716581  
  9440.000000   1718228   1720293   1722748   1725313   1727561  
  9430.000000   1729004   1729365   1728660   1727221   1725514  
  9420.000000   1723907   1722515   1721166   1719625   1717788  
  9410.000000   1715934   1714600   1714439   1715798   1718527  
  9400.000000   1721910   1724876   1726422   1725924   1723419  
  9390.000000   1719444   1714822   1710261   1706156   1702592  
  9380.000000   1699521   1697038   1695486   1695452   1697429  
  9370.000000   1701546   1707267   1713520   1718955   1722429  
  9360.000000   1723354   1721851   1718647   1714718   1710930  
  9350.000000   1707748   1705205   1703040   1700953   1698770  
  9340.000000   1696507   1694269   1692118   1689980   1687638  
  9330.000000   1684889   1681665   1678180   1674880   1672328  
  9320.000000   1671012   1671199   1672871   1675753   1679397  
  9310.000000   1683281   1686921   1689873   1691821   1692523  
  9300.000000   1691913   1690073   1687277   1683953   1680596  
  9290.000000   1677686   1675568   1674449   1674378   1675315  
  9280.000000   1677091   1679419   1681823   1683707   1684441  
  9270.000000   1683514   1680747   1676360   1671072   1665843  
  9260.000000   1661676   1659215   1658603   1659455   1661040  
  9250.000000   1662604   1663612   1664015   1664176   1664732  
  9240.000000   1666223   1668902   1672608   1676812   1680797  
  9230.000000   1683802   1685300   1685044   1683150   1679973  
  9220.000000   1675994   1671744   1667701   1664287   1661778  
  9210.000000   1660311   1659868   1660315   1661408   1662801  
  9200.000000   1664076   1664810   1664692   1663563   1661529  
  9190.000000   1658909   1656278   1654275   1653485   1654221  
  9180.000000   1656437   1659776   1663662   1667552   1671041  
  9170.000000   1674041   1676671   1679180   1681722   1684251  
  9160.000000   1686515   1688094   1688598   1687758   1685557  
  9150.000000   1682170   1677876   1673014   1667905   1662936  
  9140.000000   1658500   1655075   1653076   1652788   1654152  
  9130.000000   1656736   1659773   1662377   1663824   1663729  
  9120.000000   1662180   1659637   1656798   1654275   1652448  
  9110.000000   1651391   1651008   1651165   1651789   1652907  
  9100.000000   1654555   1656718   1659181   1661594   1663513  
  9090.000000   1664603   1664727   1663980   1662619   1660910  
  9080.000000   1659044   1657051   1654866   1652410   1649698  
  9070.000000   1646869   1644141   1641725   1639740   1638172  
  9060.000000   1636903   1635796   1634785   1633918   1633319  
  9050.000000   1633128   1633423   1634200   1635384   1636889  
  9040.000000   1638658   1640669   1642878   1645155   1647223  
  9030.000000   1648712   1649254   1648636   1646917   1644419  
  9020.000000   1641672   1639183   1637278   1635949   1634875  
  9010.000000   1633569   1631565   1628653   1624948   1620952  
  9000.000000   1617372   1614947   1614194   1615273   1617947  
  8990.000000   1621601   1625408   1628483   1630151   1630048  
  8980.000000   1628251   1625217   1621715   1618594   1616583  
  8970.000000   1616078   1617077   1619197   1621834   1624351  
  8960.000000   1626278   1627417   1627848   1627838   1627680  
  8950.000000   1627592   1627643   1627784   1627914   1627981  
  8940.000000   1628050   1628296   1628917   1630072   1631741  
  8930.000000   1633721   1635589   1636852   1637086   1636061  
  8920.000000   1633864   1630842   1627579   1624657   1622518  
  8910.000000   1621297   1620818   1620683   1620448   1619856  
  8900.000000   1618957   1618143   1617972   1618991   1621455  
  8890.000000   1625215   1629703   1634099   1637634   1639774  
  8880.000000   1640412   1639773   1638330   1636550   1634755  
  8870.000000   1633051   1631399   1629756   1628187   1626907  
  8860.000000   1626208   1626345   1627384   1629160   1631276  
  8850.000000   1633244   1634642   1635251   1635128   1634543  
  8840.000000   1633894   1633562   1633824   1634793   1636419  
  8830.000000   1638524   1640858   1643144   1645126   1646589  
  8820.000000   1647399   1647516   1647005   1646005   1644696  
  8810.000000   1643249   1641813   1640496   1639390   1638583  
  8800.000000   1638170   1638233   1638801   1639810   1641090  
  8790.000000   1642394   1643477   1644169   1644446   1644433  
  8780.000000   1644364   1644502   1645044   1646079   1647578  
  8770.000000   1649430   1651503   1653667   1655798   1657752  
  8760.000000   1659333   1660315   1660489   1659752   1658188  
  8750.000000   1656082   1653895   1652127   1651174   1651195  
  8740.000000   1652041   1653334   1654577   1655360   1655505  
  8730.000000   1655115   1654541   1654216   1654505   1655531  
  8720.000000   1657148   1658963   1660517   1661437   1661631  
  8710.000000   1661308   1660934   1661061   1662109   1664226  
  8700.000000   1667206   1670580   1673783   1676349   1678077  
  8690.000000   1679052   1679579   1680021   1680598   1681336  
  8680.000000   1682040   1682466   1682450   1682051   1681552  
  8670.000000   1681352   1681769   1682881   1684442   1685938  
  8660.000000   1686776   1686491   1684972   1682472   1679565  
  8650.000000   1676916   1675105   1674451   1674988   1676529  
  8640.000000   1678794   1681530   1684568   1687806   1691167  
  8630.000000   1694537   1697772   1700701   1703211   1705250  
  8620.000000   1706872   1708167   1709245   1710178   1711022  
  8610.000000   1711842   1712740   1713876   1715389   1717356  
  8600.000000   1719669   1722069   1724164   1725599   1726186  
  8590.000000   1726011   1725425   1724916   1724941   1725716  
  8580.000000   1727148   1728854   1730335   1731176   1731227  
  8570.000000   1730670   1729941   1729589   1730060   1731571  
  8560.000000   1734039   1737144   1740448   1743529   1746089  
  8550.000000   1747987   1749241   1749970   1750350   1750570  
  8540.000000   1750802   1751192   1751838   1752771   1753941  
  8530.000000   1755233   1756484   1757548   1758313   1758762  
  8520.000000   1758949   1758986   1759004   1759101   1759344  
  8510.000000   1759736   1760257   1760844   1761429   1761943  
  8500.000000   1762344   1762637   1762905   1763305   1764050  
  8490.000000   1765342   1767297   1769876   1772866   1775916  
  8480.000000   1778645   1780763   1782190   1783071   1783717  
  8470.000000   1784488   1785634   1787208   1789043   1790838  
  8460.000000   1792305   1793274   1793771   1793968   1794097  
  8450.000000   1794317   1794619   1794857   1794822   1794396  
  8440.000000   1793634   1792824   1792390   1792766   1794189  
  8430.000000   1796630   1799749   1803023   1805889   1807911  
  8420.000000   1808906   1808945   1808291   1807269   1806162  
  8410.000000   1805142   1804272   1803542   1802927   1802436  
  8400.000000   1802119   1802050   1802257   1802725   1803355  
  8390.000000   1804023   1804576   1804907   1804966   1804790  
  8380.000000   1804480   1804172   1804002   1804059   1804366  
  8370.000000   1804851   1805358   1805688   1805648   1805120  
  8360.000000   1804090   1802679   1801112   1799665   1798572  
  8350.000000   1797969   1797855   1798104   1798513   1798863  
  8340.000000   1798992   1798824   1798379   1797740   1797014  
  8330.000000   1796295   1795645   1795101   1794679   1794394  
  8320.000000   1794259   1794297   1794514   1794898   1795385  
  8310.000000   1795870   1796212   1796249   1795841   1794885  
  8300.000000   1793371   1791363   1789033   1786598   1784294  
  8290.000000   1782329   1780823   1779828   1779304   1779203  
  8280.000000   1779471   1780099   1781075   1782368   1783873  
  8270.000000   1785388   1786630   1787290   1787135   1786079  
  8260.000000   1784252   1781946   1779555   1777443   1775857  
  8250.000000   1774862   1774331   1774034   1773696   1773138  
  8240.000000   1772278   1771176   1769954   1768776   1767769  
  8230.000000   1767007   1766483   1766111   1765744   1765204  
  8220.000000   1764325   1762995   1761198   1759036   1756729  
  8210.000000   1754561   1752797   1751574   1750847   1750377  
  8200.000000   1749809   1748799   1747130   1744822   1742131  
  8190.000000   1739498   1737388   1736156   1735915   1736518  
  8180.000000   1737597   1738696   1739392   1739408   1738648  
  8170.000000   1737199   1735260   1733074   1730850   1728719  
  8160.000000   1726725   1724828   1722951   1721003   1718918  
  8150.000000   1716677   1714315   1711926   1709619   1707509  
  8140.000000   1705666   1704112   1702831   1701772   1700894  
  8130.000000   1700159   1699552   1699042   1698587   1698105  
  8120.000000   1697510   1696729   1695767   1694699   1693688  
  8110.000000   1692897   1692439   1692303   1692347   1692335  
  8100.000000   1692022   1691256   1690030   1688514   1686975  
  8090.000000   1685701   1684876   1684543   1684586   1684799  
  8080.000000   1684958   1684879   1684457   1683640   1682418  
  8070.000000   1680791   1678775   1676428   1673876   1671329  
  8060.000000   1669047   1667289   1666226   1665893   1666169  
  8050.000000   1666818   1667563   1668162   1668464   1668406  
  8040.000000   1668003   1667291   1666324   1665149   1663844  
  8030.000000   1662526   1661358   1660515   1660120   1660210  
  8020.000000   1660691   1661379   1662037   1662464   1662534  
  8010.000000   1662217   1661552   1660598   1659399   1657975  
  8000.000000   1656349   1654587   1652828   1651280   1650155  
  7990.000000   1649611   1649667   1650198   1650946   1651614  
  7980.000000   1651945   1651800   1651174   1650170   1648936  
  7970.000000   1647598   1646244   1644903   1643604   1642375  
  7960.000000   1641281   1640385   1639724   1639275   1638949  
  7950.000000   1638621   1638181   1637578   1636851   1636105  
  7940.000000   1635483   1635090   1634970   1635079   1635325  
  7930.000000   1635600   1635839   1636023   1636194   1636399  
  7920.000000   1636678   1637017   1637366   1637634   1637744  
  7910.000000   1637641   1637328   1636853   1636310   1635812  
  7900.000000   1635475   1635392   1635619   1636163   1636971  
  7890.000000   1637944   1638948   1639848   1640529   1640932  
  7880.000000   1641060   1640971   1640766   1640550   1640417  
  7870.000000   1640418   1640567   1640833   1641149   1641441  
  7860.000000   1641623   1641650   1641510   1641262   1641013  
  7850.000000   1640909   1641072   1641564   1642333   1643215  
  7840.000000   1643964   1644328   1644123   1643312   1642013  
  7830.000000   1640474   1638991   1637816   1637080   1636768  
  7820.000000   1636738   1636788   1636725   1636444   1635930  
  7810.000000   1635273   1634601   1634051   1633711   1633609  
  7800.000000   1633710   1633925   1634146   1634255   1634158  
  7790.000000   1633792   1633145   1632253   1631199   1630100  
  7780.000000   1629078   1628245   1627669   1627374   1627333  
  7770.000000   1627483   1627736   1627999   1628179   1628196  
  7760.000000   1627996   1627557   1626903   1626104   1625267  
  7750.000000   1624512   1623938   1623597   1623474   1623494  
  7740.000000   1623551   1623545   1623410   1623135   1622754  
  7730.000000   1622320   1621875   1621433   1620974   1620467  
  7720.000000   1619891   1619254   1618594   1617967   1617417  
  7710.000000   1616950   1616530   1616081   1615524   1614796  
  7700.000000   1613886   1612832   1611715   1610635   1609683  
  7690.000000   1608921   1608377   1608050   1607917   1607947  
  7680.000000   1608106   1608350   1608633   1608893   1609070  
  7670.000000   1609106   1608975   1608676   1608261   1607804  
  7660.000000   1607399   1607122   1607017   1607076   1607253  
  7650.000000   1607476   1607680   1607826   1607913   1607980  
  7640.000000   1608077   1608249   1608512   1608849   1609213  
  7630.000000   1609548   1609806   1609963   1610014   1609969  
  7620.000000   1609837   1609621   1609322   1608942   1608506  
  7610.000000   1608047   1607614   1607235   1606911   1606609  
  7600.000000   1606269   1605839   1605302   1604695   1604113  
  7590.000000   1603675   1603496   1603626   1604048   1604663  
  7580.000000   1605338   1605938   1606377   1606632   1606749  
  7570.000000   1606813   1606932   1607195   1607661   1608343  
  7560.000000   1609216   1610209   1611229   1612156   1612879  
  7550.000000   1613305   1613405   1613208   1612824   1612392  
  7540.000000   1612062   1611943   1612083   1612465   1613035  
  7530.000000   1613723   1614487   1615316   1616229   1617243  
  7520.000000   1618351   1619504   1620623   1621627   1622475  
  7510.000000   1623182   1623830   1624534   1625411   1626525  
  7500.000000   1627868   1629345   1630808   1632088   1633059  
  7490.000000   1633658   1633912   1633922   1633847   1633856  
  7480.000000   1634097   1634658   1635559   1636759   1638176  
  7470.000000   1639716   1641306   1642904   1644508   1646132  
  7460.000000   1647799   1649500   1651211   1652866   1654412  
  7450.000000   1655797   1657017   1658092   1659087   1660082  
  7440.000000   1661169   1662431   1663939   1665741   1667856  
  7430.000000   1670267   1672903   1675651   1678362   1680892  
  7420.000000   1683139   1685064   1686718   1688206   1689667  
  7410.000000   1691211   1692892   1694683   1696505   1698250  
  7400.000000   1699842   1701256   1702526   1703736   1704985  
  7390.000000   1706359   1707903   1709628   1711515   1713537  
  7380.000000   1715665   1717870   1720123   1722388   1724621  
  7370.000000   1726773   1728798   1730668   1732377   1733940  
  7360.000000   1735392   1736777   1738139   1739517   1740938  
  7350.000000   1742415   1743942   1745502   1747064   1748601  
  7340.000000   1750095   1751550   1752984   1754426   1755894  
  7330.000000   1757391   1758893   1760363   1761765   1763089  
  7320.000000   1764363   1765651   1767033   1768572   1770290  
  7310.000000   1772151   1774066   1775922   1777616   1779088  
  7300.000000   1780333   1781400   1782367   1783318   1784317  
  7290.000000   1785400   1786572   1787820   1789117   1790442  
  7280.000000   1791772   1793093   1794394   1795670   1796923  
  7270.000000   1798157   1799376   1800576   1801751   1802879  
  7260.000000   1803947   1804944   1805887   1806808   1807762  
  7250.000000   1808798   1809961   1811260   1812689   1814211  
  7240.000000   1815804   1817444   1819144   1820924   1822819  
  7230.000000   1824835   1826970   1829175   1831409   1833620  
  7220.000000   1835805   1837982   1840221   1842596   1845184  
  7210.000000   1848015   1851077   1854289   1857549   1860740  
  7200.000000   1863790   1866675   1869448   1872197   1875039  
  7190.000000   1878053   1881276   1884666   1888136   1891558  
  7180.000000   1894827   1897873   1900702   1903373   1905998  
  7170.000000   1908693   1911575   1914719   1918175   1921932  
  7160.000000   1925952   1930146   1934420   1938655   1942768  
  7150.000000   1946695   1950441   1954054   1957649   1961339  
  7140.000000   1965241   1969403   1973837   1978488   1983304  
  7130.000000   1988229   1993252   1998374   2003619   2008979  
  7120.000000   2014438   2019929   2025405   2030812   2036157  
  7110.000000   2041464   2046798   2052205   2057727   2063365  
  7100.000000   2069121   2074986   2080978   2087115   2093417  
  7090.000000   2099861   2106392   2112909   2119314   2125531  
  7080.000000   2131559   2137452   2143328   2149297   2155439  
  7070.000000   2161760   2168208   2174690   2181118   2187440  
  7060.000000   2193651   2199784   2205883   2211986   2218109  
  7050.000000   2224256   2230423   2236614   2242831   2249066  
  7040.000000   2255283   2261424   2267414   2273195   2278748  
  7030.000000   2284114   2289375   2294637   2299980   2305445  
  7020.000000   2311005   2316602   2322161   2327638   2333015  
  7010.000000   2338317   2343564   2348778   2353941   2359027  
  7000.000000   2363992   2368819   2373503   2378067   2382530  
  6990.000000   2386914   2391208   2395409   2399494   2403481  
  6980.000000   2407382   2411245   2415092   2418942   2422766  
  6970.000000   2426528   2430168   2433649   2436940   2440043  
  6960.000000   2442960   2445711   2448303   2450758   2453102  
  6950.000000   2455392   2457687   2460065   2462572   2465233  
  6940.000000   2468011   2470846   2473640   2476313   2478790  
  6930.000000   2481041   2483057   2484865   2486501   2488018  
  6920.000000   2489464   2490893   2492342   2493838   2495377  
  6910.000000   2496939   2498481   2499964   2501355   2502651  
  6900.000000   2503869   2505054   2506253   2507515   2508864  
  6890.000000   2510312   2511841   2513421   2514999   2516519  
  6880.000000   2517917   2519148   2520186   2521041   2521756  
  6870.000000   2522403   2523056   2523777   2524589   2525479  
  6860.000000   2526402   2527305   2528143   2528903   2529597  
  6850.000000   2530262   2530930   2531628   2532355   2533098  
  6840.000000   2533828   2534520   2535159   2535749   2536304  
  6830.000000   2536858   2537441   2538087   2538809   2539604  
  6820.000000   2540434   2541243   2541956   2542513   2542876  
  6810.000000   2543051   2543081   2543032   2542966   2542919  
  6800.000000   2542886   2542834   2542718   2542516   2542239  
  6790.000000   2541941   2541688   2541546   2541537   2541645  
  6780.000000   2541810   2541961   2542037   2542005   2541870  
  6770.000000   2541662   2541424   2541198   2541017   2540908  
  6760.000000   2540891   2540976   2541158   2541407   2541669  
  6750.000000   2541877   2541970   2541916   2541729   2541467  
  6740.000000   2541214   2541050   2541022   2541130   2541330  
  6730.000000   2541559   2541753   2541883   2541944   2541964  
  6720.000000   2541976   2542011   2542084   2542198   2542346  
  6710.000000   2542518   2542696   2542854   2542950   2542938  
  6700.000000   2542777   2542452   2541977   2541409   2540814  
  6690.000000   2540261   2539785   2539388   2539031   2538668  
  6680.000000   2538255   2537782   2537255   2536705   2536147  
  6670.000000   2535586   2534999   2534355   2533623   2532798  
  6660.000000   2531895   2530948   2529991   2529048   2528120  
  6650.000000   2527196   2526252   2525276   2524263   2523224  
  6640.000000   2522170   2521118   2520071   2519039   2518022  
  6630.000000   2517028   2516058   2515115   2514189   2513265  
  6620.000000   2512312   2511307   2510223   2509047   2507772  
  6610.000000   2506403   2504945   2503415   2501831   2500223  
  6600.000000   2498621   2497053   2495530   2494048   2492578  
  6590.000000   2491092   2489563   2487994   2486413   2484866  
  6580.000000   2483398   2482032   2480756   2479527   2478290  
  6570.000000   2476996   2475630   2474205   2472761   2471341  
  6560.000000   2469971   2468652   2467363   2466076   2464770  
  6550.000000   2463438   2462090   2460740   2459398   2458068  
  6540.000000   2456751   2455449   2454176   2452947   2451769  
  6530.000000   2450624   2449471   2448247   2446892   2445378  
  6520.000000   2443724   2441999   2440297   2438712   2437299  
  6510.000000   2436058   2434944   2433881   2432798   2431652  
  6500.000000   2430432   2429155   2427851   2426543   2425245  
  6490.000000   2423964   2422713   2421512   2420389   2419368  
  6480.000000   2418454   2417619   2416812   2415963   2415011  
  6470.000000   2413913   2412666   2411293   2409846   2408383  
  6460.000000   2406965   2405640   2404447   2403403   2402503  
  6450.000000   2401715   2400989   2400256   2399459   2398554  
  6440.000000   2397535   2396427   2395282   2394153   2393086  
  6430.000000   2392105   2391222   2390435   2389747   2389159  
  6420.000000   2388675   2388280   2387947   2387623   2387261  
  6410.000000   2386821   2386300   2385724   2385145   2384611  
  6400.000000   2384154   2383770   2383437   2383117   2382791  
  6390.000000   2382461   2382156   2381913   2381757   2381691  
  6380.000000   2381690   2381712   2381719   2381689   2381626  
  6370.000000   2381550   2381486   2381448   2381428   2381408  
  6360.000000   2381357   2381247   2381060   2380786   2380421  
  6350.000000   2379970   2379441   2378861   2378264   2377701  
  6340.000000   2377211   2376823   2376521   2376263   2375974  
  6330.000000   2375586   2375048   2374352   2373526   2372628  
  6320.000000   2371717   2370838   2370001   2369200   2368408  
  6310.000000   2367602   2366767   2365901   2365001   2364070  
  6300.000000   2363098   2362079   2361007   2359891   2358743  
  6290.000000   2357584   2356421   2355257   2354077   2352868  
  6280.000000   2351619   2350336   2349032   2347727   2346433  
  6270.000000   2345148   2343857   2342541   2341184   2339791  
  6260.000000   2338382   2336991   2335647   2334372   2333161  
  6250.000000   2331994   2330842   2329672   2328459   2327188  
  6240.000000   2325847   2324431   2322937   2321373   2319757  
  6230.000000   2318120   2316499   2314934   2313446   2312039  
  6220.000000   2310691   2309367   2308025   2306631   2305169  
  6210.000000   2303637   2302054   2300443   2298832   2297248  
  6200.000000   2295713   2294241   2292841   2291508   2290230  
  6190.000000   2288990   2287774   2286574   2285398   2284265  
  6180.000000   2283193   2282197   2281273   2280398   2279541  
  6170.000000   2278666   2277753   2276793   2275799   2274787  
  6160.000000   2273768   2272744   2271701   2270621   2269491  
  6150.000000   2268310   2267095   2265872   2264667   2263502  
  6140.000000   2262380   2261295   2260231   2259170   2258101  
  6130.000000   2257018   2255923   2254817   2253707   2252598  
  6120.000000   2251500   2250421   2249372   2248357   2247383  
  6110.000000   2246448   2245555   2244708   2243920   2243203  
  6100.000000   2242576   2242045   2241609   2241245   2240933  
  6090.000000   2240637   2240341   2240028   2239705   2239380  
  6080.000000   2239075   2238801   2238585   2238435   2238373  
  6070.000000   2238403   2238533   2238748   2239033   2239352  
  6060.000000   2239689   2240023   2240370   2240748   2241208  
  6050.000000   2241783   2242513   2243403   2244459   2245656  
  6040.000000   2246983   2248412   2249940   2251549   2253237  
  6030.000000   2254985   2256790   2258634   2260526   2262467  
  6020.000000   2264481   2266574   2268765   2271043   2273406  
  6010.000000   2275828   2278301   2280806   2283346   2285913  
  6000.000000   2288516   2291145   2293808   2296501   2299241  
  5990.000000   2302037   2304916   2307884   2310959   2314129  
  5980.000000   2317394   2320737   2324164   2327677   2331297  
  5970.000000   2335032   2338893   2342863   2346929   2351055  
  5960.000000   2355228   2359425   2363655   2367912   2372208  
  5950.000000   2376530   2380874   2385225   2389584   2393958  
  5940.000000   2398375   2402866   2407459   2412170   2416989  
  5930.000000   2421893   2426837   2431778   2436667   2441465  
  5920.000000   2446127   2450621   2454912   2458983   2462823  
  5910.000000   2466452   2469894   2473190   2476371   2479469  
  5900.000000   2482488   2485445   2488334   2491177   2493986  
  5890.000000   2496797   2499621   2502477   2505350   2508225  
  5880.000000   2511062   2513833   2516505   2519058   2521477  
  5870.000000   2523754   2525891   2527896   2529794   2531619  
  5860.000000   2533418   2535238   2537119   2539090   2541167  
  5850.000000   2543354   2545652   2548060   2550576   2553191  
  5840.000000   2555893   2558651   2561432   2564200   2566933  
  5830.000000   2569621   2572280   2574931   2577605   2580317  
  5820.000000   2583080   2585887   2588731   2591601   2594490  
  5810.000000   2597393   2600296   2603188   2606038   2608838  
  5800.000000   2611555   2614210   2616796   2619361   2621904  
  5790.000000   2624451   2626955   2629379   2631604   2633524  
  5780.000000   2634976   2635836   2635970   2635323   2633872  
  5770.000000   2631703   2628941   2625792   2622451   2619123  
  5760.000000   2615932   2612975   2610256   2607770   2605468  
  5750.000000   2603329   2601322   2599443   2597677   2596011  
  5740.000000   2594423   2592885   2591383   2589896   2588431  
  5730.000000   2586982   2585560   2584159   2582786   2581436  
  5720.000000   2580128   2578875   2577703   2576622   2575634  
  5710.000000   2574718   2573851   2573000   2572154   2571314  
  5700.000000   2570496   2569718   2568989   2568303   2567638  
  5690.000000   2566977   2566303   2565628   2564964   2564343  
  5680.000000   2563765   2563222   2562660   2562016   2561203  
  5670.000000   2560155   2558814   2557157   2555182   2552916  
  5660.000000   2550400   2547699   2544881   2542024   2539192  
  5650.000000   2536443   2533799   2531274   2528854   2526529  
  5640.000000   2524286   2522121   2520029   2518007   2516045  
  5630.000000   2514124   2512235   2510371   2508550   2506795  
  5620.000000   2505139   2503595   2502165   2500820   2499530  
  5610.000000   2498257   2496989   2495726   2494491   2493303  
  5600.000000   2492175   2491098   2490056   2489026   2488004  
  5590.000000   2486997   2486032   2485128   2484294   2483513  
  5580.000000   2482751   2481967   2481135   2480246   2479317  
  5570.000000   2478374   2477437   2476508   2475568   2474588  
  5560.000000   2473540   2472413   2471219   2469987   2468754  
  5550.000000   2467548   2466385   2465263   2464173   2463101  
  5540.000000   2462035   2460968   2459889   2458792   2457667  
  5530.000000   2456517   2455352   2454199   2453091   2452056  
  5520.000000   2451106   2450232   2449400   2448568   2447690  
  5510.000000   2446739   2445701   2444581   2443391   2442149  
  5500.000000   2440864   2439550   2438214   2436870   2435524  
  5490.000000   2434180   2432825   2431439   2429992   2428467  
  5480.000000   2426854   2425169   2423437   2421695   2419964  
  5470.000000   2418258   2416570   2414891   2413206   2411509  
  5460.000000   2409794   2408056   2406284   2404460   2402568  
  5450.000000   2400602   2398575   2396523   2394492   2392526  
  5440.000000   2390651   2388869   2387162   2385505   2383882  
  5430.000000   2382284   2380717   2379182   2377679   2376190  
  5420.000000   2374706   2373220   2371761   2370368   2369104  
  5410.000000   2368009   2367104   2366360   2365737   2365176  
  5400.000000   2364659   2364178   2363776   2363489   2363367  
  5390.000000   2363415   2363634   2363985   2364457   2365028  
  5380.000000   2365722   2366542   2367522   2368644   2369913  
  5370.000000   2371285   2372766   2374327   2376009   2377807  
  5360.000000   2379773   2381896   2384217   2386715   2389449  
  5350.000000   2392422   2395725   2399377   2403467   2407981  
  5340.000000   2412971   2418388   2424278   2430593   2437393  
  5330.000000   2444628   2452348   2460479   2469058   2478014  
  5320.000000   2487420   2497256   2507653   2518619   2530292  
  5310.000000   2542643   2555759   2569562   2584109   2599327  
  5300.000000   2615301   2632000   2649548   2667935   2687276  
  5290.000000   2707521   2728708   2750699   2773439   2796742  
  5280.000000   2820555   2844767   2869438   2894591   2920367  
  5270.000000   2946806   2973948   3001675   3029827   3058171  
  5260.000000   3086519   3114752   3142850   3170876   3198886  
  5250.000000   3226922   3254896   3282687   3310058   3336863  
  5240.000000   3362928   3388270   3412875   3436892   3460349  
  5230.000000   3483363   3505866   3527862   3549185   3569806  
  5220.000000   3589583   3608571   3626737   3644232   3661075  
  5210.000000   3677415   3693201   3708473   3723072   3736976  
  5200.000000   3750036   3762312   3773768   3784562   3794699  
  5190.000000   3804302   3813298   3821708   3829396   3836380  
  5180.000000   3842580   3848097   3852928   3857207   3860921  
  5170.000000   3864152   3866840   3869038   3870693   3871880  
  5160.000000   3872577   3872866   3872714   3872176   3871198  
  5150.000000   3869827   3868031   3865876   3863353   3860523  
  5140.000000   3857362   3853908   3850128   3846068   3841726  
  5130.000000   3837172   3832427   3827553   3822549   3817440  
  5120.000000   3812209   3806875   3801438   3795940   3790395  
  5110.000000   3784835   3779255   3773658   3768026   3762366  
  5100.000000   3756686   3751023   3745409   3739880   3734447  
  5090.000000   3729112   3723855   3718658   3713502   3708378  
  5080.000000   3703277   3698194   3693112   3688014   3682879  
  5070.000000   3677696   3672458   3667174   3661846   3656484  
  5060.000000   3651072   3645606   3640059   3634427   3628695  
  5050.000000   3622878   3616972   3610990   3604921   3598762  
  5040.000000   3592496   3586127   3579654   3573102   3566488  
  5030.000000   3559836   3553155   3546454   3539729   3532988  
  5020.000000   3526239   3519501   3512796   3506141   3499551  
  5010.000000   3493029   3486585   3480223   3473972   3467847  
  5000.000000   3461890   3456108   3450521   3445103   3439850  
  4990.000000   3434724   3429738   3424884   3420216   3415754  
  4980.000000   3411566   3407662   3404087   3400819   3397881  
  4970.000000   3395237   3392907   3390852   3389095   3387595  
  4960.000000   3386380   3385418   3384757   3384383   3384366  
  4950.000000   3384697   3385439   3386556   3388079   3389946  
  4940.000000   3392176   3394717   3397615   3400850   3404490  
  4930.000000   3408521   3413000   3417892   3423230   3428961  
  4920.000000   3435110   3441624   3448526   3455769   3463369  
  4910.000000   3471280   3479516   3488041   3496868   3505971  
  4900.000000   3515352   3524976   3534819   3544829   3554953  
  4890.000000   3565135   3575309   3585426   3595415   3605235  
  4880.000000   3614810   3624107   3633050   3641618   3649732  
  4870.000000   3657379   3664475   3671012   3676913   3682191  
  4860.000000   3686804   3690805   3694188   3697035   3699354  
  4850.000000   3701225   3702655   3703718   3704426   3704862  
  4840.000000   3705056   3705099   3705030   3704926   3704812  
  4830.000000   3704737   3704708   3704748   3704853   3705031  
  4820.000000   3705276   3705587   3705967   3706417   3706949  
  4810.000000   3707571   3708302   3709143   3710105   3711175  
  4800.000000   3712352   3713618   3714974   3716411   3717938  
  4790.000000   3719549   3721243   3723001   3724805   3726624  
  4780.000000   3728438   3730228   3731995   3733744   3735487  
  4770.000000   3737236   3738992   3740752   3742503   3744230  
  4760.000000   3745915   3747547   3749114   3750615   3752045  
  4750.000000   3753410   3754712   3755960   3757158   3758312  
  4740.000000   3759421   3760483   3761491   3762441   3763331  
  4730.000000   3764166   3764954   3765707   3766439   3767158  
  4720.000000   3767872   3768583   3769303   3770038   3770814  
  4710.000000   3771647   3772574   3773611   3774787   3776109  
  4700.000000   3777593   3779236   3781050   3783031   3785189  
  4690.000000   3787518   3790025   3792693   3795520   3798477  
  4680.000000   3801549   3804695   3807889   3811082   3814249  
  4670.000000   3817347   3820368   3823298   3826161   3828977  
  4660.000000   3831797   3834662   3837631   3840745   3844049  
  4650.000000   3847565   3851309   3855272   3859430   3863743  
  4640.000000   3868158   3872627   3877101   3881557   3885975  
  4630.000000   3890362   3894717   3899043   3903315   3907503  
  4620.000000   3911535   3915351   3918865   3922031   3924799  
  4610.000000   3927179   3929179   3930868   3932289   3933528  
  4600.000000   3934620   3935626   3936547   3937407   3938175  
  4590.000000   3938854   3939398   3939804   3940023   3940048  
  4580.000000   3939840   3939396   3938694   3937751   3936574  
  4570.000000   3935203   3933667   3932018   3930283   3928505  
  4560.000000   3926692   3924866   3923017   3921152   3919257  
  4550.000000   3917337   3915388   3913423   3911447   3909476  
  4540.000000   3907519   3905583   3903672   3901779   3899900  
  4530.000000   3898018   3896131   3894227   3892323   3890423  
  4520.000000   3888570   3886779   3885107   3883557   3882179  
  4510.000000   3880955   3879931   3879088   3878496   3878166  
  4500.000000   3878206   3878651   3879625   3881150   3883330  
  4490.000000   3886148   3889680   3893880   3898815   3904437  
  4480.000000   3910812   3917896   3925749   3934314   3943634  
  4470.000000   3953629   3964317   3975598   3987466   3999812  
  4460.000000   4012621   4025793   4039317   4053110   4067168  
  4450.000000   4081426   4095875   4110465   4125180   4139985  
  4440.000000   4154863   4169792   4184752   4199726   4214671  
  4430.000000   4229559   4244315   4258902   4273225   4287254  
  4420.000000   4300902   4314162   4326961   4339308   4351132  
  4410.000000   4362434   4373135   4383227   4392642   4401399  
  4400.000000   4409473   4416935   4423813   4430217   4436206  
  4390.000000   4441903   4447375   4452750   4458090   4463503  
  4380.000000   4469024   4474707   4480535   4486505   4492565  
  4370.000000   4498699   4504865   4511061   4517271   4523499  
  4360.000000   4529724   4535943   4542111   4548226   4554217  
  4350.000000   4560088   4565744   4571202   4576374   4581328  
  4340.000000   4586034   4590607   4595014   4599247   4603043  
  4330.000000   4606057   4607710   4607437   4604702   4599266  
  4320.000000   4591204   4581009   4569444   4557452   4545894  
  4310.000000   4535464   4526524   4519178   4513277   4508590  
  4300.000000   4504856   4501882   4499553   4497789   4496560  
  4290.000000   4495786   4495431   4495396   4495675   4496230  
  4280.000000   4497108   4498322   4499898   4501825   4504061  
  4270.000000   4506556   4509229   4512000   4514723   4517209  
  4260.000000   4519165   4520257   4520118   4518461   4515130  
  4250.000000   4510185   4503873   4496637   4488969   4481386  
  4240.000000   4474266   4467882   4462296   4457474   4453253  
  4230.000000   4449464   4445918   4442474   4439031   4435527  
  4220.000000   4431962   4428346   4424760   4421266   4417992  
  4210.000000   4415012   4412437   4410293   4408614   4407346  
  4200.000000   4406442   4405794   4405331   4404955   4404639  
  4190.000000   4404335   4404077   4403860   4403750   4403748  
  4180.000000   4403913   4404234   4404760   4405482   4406464  
  4170.000000   4407720   4409330   4411312   4413733   4416577  
  4160.000000   4419869   4423550   4427624   4432024   4436770  
  4150.000000   4441823   4447235   4452988   4459148   4465699  
  4140.000000   4472702   4480130   4488032   4496362   4505147  
  4130.000000   4514320   4523890   4533780   4544008   4554531  
  4120.000000   4565405   4576635   4588313   4600470   4613187  
  4110.000000   4626470   4640350   4654771   4669697   4685016  
  4100.000000   4700647   4716464   4732389   4748340   4764291  
  4090.000000   4780227   4796167   4812137   4828155   4844244  
  4080.000000   4860392   4876607   4892842   4909087   4925254  
  4070.000000   4941296   4957075   4972518   4987476   5001902  
  4060.000000   5015689   5028853   5041326   5053158   5064291  
  4050.000000   5074789   5084608   5093841   5102468   5110595  
  4040.000000   5118179   5125283   5131812   5137793   5143128  
  4030.000000   5147875   5151985   5155549   5158542   5161031  
  4020.000000   5162949   5164350   5165226   5165655   5165609  
  4010.000000   5165210   5164520   5163520   5161967   5159860  
  4000.000000   5157464  
##END= 
