##TITLE= Sample 027 By ssteindl date Dienstag, November 20 2018
##JCAMP-DX= 4.24
##DATA TYPE= INFRARED SPECTRUM
##ORIGIN= Exported PE Spectrum Data File
##OWNER= Sandra Steindl
##DATE= 18/11/20
##TIME= 11:45:05.00
##SPECTROMETER/DATA SYSTEM= PERKIN-ELMER Frontier FT-IR/NIR IR
##INSTRUMENT PARAMETERS=
  APODIZATION=stark
  DETECTOR=INGAAS
##RESOLUTION= 16.000000
##DELTAX= -2.000000
##XUNITS= 1/CM
##YUNITS= A
##XFACTOR= 1.00
##YFACTOR= 0.00000011920928955078
##FIRSTX= 10000.00
##LASTX= 4000.00
##NPOINTS= 3001
##FIRSTY= 0.198015
##MAXY= 0.565893
##MINY= 0.175025
##XYDATA= (X++(Y..Y))
 10000.000000   1661069   1665304   1670337   1677007   1684725  
  9990.000000   1692157   1698267   1702611   1704816   1704703  
  9980.000000   1702489   1698735   1693904   1688330   1682282  
  9970.000000   1676082   1670094   1664763   1660473   1657411  
  9960.000000   1655402   1653999   1652599   1650757   1648383  
  9950.000000   1645822   1643766   1642943   1643866   1646577  
  9940.000000   1650651   1655335   1659832   1663574   1666390  
  9930.000000   1668490   1670315   1672277   1674600   1677171  
  9920.000000   1679642   1681479   1682185   1681388   1678950  
  9910.000000   1675029   1670006   1664556   1659431   1655471  
  9900.000000   1653332   1653418   1655725   1659805   1664806  
  9890.000000   1669584   1672916   1673768   1671586   1666468  
  9880.000000   1659245   1651291   1644261   1639655   1638448  
  9870.000000   1640817   1646040   1652736   1659196   1663947  
  9860.000000   1666102   1665615   1663156   1659812   1656662  
  9850.000000   1654382   1653135   1652566   1652107   1651210  
  9840.000000   1649589   1647293   1644605   1641950   1639677  
  9830.000000   1638030   1637066   1636712   1636802   1637078  
  9820.000000   1637269   1637077   1636275   1634776   1632674  
  9810.000000   1630291   1628075   1626505   1625960   1626583  
  9800.000000   1628302   1630783   1633569   1636082   1637736  
  9790.000000   1637990   1636470   1633124   1628324   1622937  
  9780.000000   1618148   1615246   1615162   1618221   1623876  
  9770.000000   1630883   1637586   1642442   1644457   1643410  
  9760.000000   1639827   1634611   1628722   1622777   1617077  
  9750.000000   1611626   1606467   1601788   1597981   1595521  
  9740.000000   1594673   1595454   1597483   1600290   1603405  
  9730.000000   1606622   1609962   1613509   1617281   1620951  
  9720.000000   1623996   1625704   1625574   1623407   1619494  
  9710.000000   1614470   1609157   1604340   1600607   1598372  
  9700.000000   1597812   1599026   1601834   1605883   1610453  
  9690.000000   1614679   1617700   1618973   1618504   1616773  
  9680.000000   1614581   1612557   1610917   1609235   1606721  
  9670.000000   1602598   1596634   1589424   1582313   1576984  
  9660.000000   1574779   1576219   1580735   1586935   1593093  
  9650.000000   1597788   1600323   1600815   1599985   1598712  
  9640.000000   1597710   1597290   1597480   1598131   1599159  
  9630.000000   1600494   1602060   1603586   1604605   1604602  
  9620.000000   1603218   1600568   1597219   1594137   1592260  
  9610.000000   1592206   1593988   1597064   1600559   1603613  
  9600.000000   1605668   1606567   1606450   1605521   1603862  
  9590.000000   1601382   1597973   1593711   1589023   1584637  
  9580.000000   1581359   1579779   1579985   1581568   1583715  
  9570.000000   1585591   1586580   1586510   1585604   1584285  
  9560.000000   1582956   1581793   1580751   1579622   1578232  
  9550.000000   1576517   1574595   1572665   1570932   1569519  
  9540.000000   1568445   1567695   1567221   1567007   1566997  
  9530.000000   1567091   1567134   1566966   1566523   1565881  
  9520.000000   1565237   1564810   1564663   1564643   1564372  
  9510.000000   1563440   1561608   1558998   1556101   1553600  
  9500.000000   1552071   1551665   1552004   1552228   1551390  
  9490.000000   1548792   1544365   1538678   1532760   1527713  
  9480.000000   1524333   1522946   1523393   1525257   1528078  
  9470.000000   1531537   1535471   1539741   1544101   1548067  
  9460.000000   1551046   1552462   1552065   1549979   1546749  
  9450.000000   1543095   1539730   1537156   1535590   1535063  
  9440.000000   1535458   1536693   1538639   1541150   1543912  
  9430.000000   1546470   1548288   1548905   1548122   1546054  
  9420.000000   1543114   1539820   1536630   1533810   1531438  
  9410.000000   1529530   1528134   1527451   1527716   1529127  
  9400.000000   1531599   1534724   1537767   1539885   1540433  
  9390.000000   1539164   1536395   1532785   1529156   1526134  
  9380.000000   1523995   1522639   1521682   1520754   1519658  
  9370.000000   1518567   1517911   1518199   1519741   1522460  
  9360.000000   1525891   1529229   1531600   1532212   1530654  
  9350.000000   1526977   1521750   1515936   1510660   1506995  
  9340.000000   1505683   1507050   1510881   1516509   1522887  
  9330.000000   1528832   1533235   1535310   1534741   1531697  
  9320.000000   1526816   1520988   1515222   1510346   1506889  
  9310.000000   1504951   1504282   1504414   1504828   1505156  
  9300.000000   1505225   1505146   1505162   1505566   1506508  
  9290.000000   1507930   1509616   1511240   1512563   1513436  
  9280.000000   1513869   1513934   1513712   1513249   1512530  
  9270.000000   1511565   1510438   1509385   1508734   1508790  
  9260.000000   1509645   1511081   1512585   1513500   1513266  
  9250.000000   1511613   1508693   1505036   1501372   1498369  
  9240.000000   1496409   1495517   1495445   1495850   1496463  
  9230.000000   1497189   1498083   1499230   1500608   1502005  
  9220.000000   1503097   1503538   1503179   1502107   1500696  
  9210.000000   1499402   1498627   1498558   1499138   1500156  
  9200.000000   1501342   1502553   1503785   1505179   1506837  
  9190.000000   1508757   1510735   1512453   1513565   1513854  
  9180.000000   1513309   1512100   1510503   1508738   1506905  
  9170.000000   1504936   1502691   1500065   1497094   1493993  
  9160.000000   1491082   1488706   1487082   1486280   1486185  
  9150.000000   1486617   1487395   1488415   1489641   1491048  
  9140.000000   1492565   1494009   1495127   1495627   1495330  
  9130.000000   1494202   1492444   1490374   1488385   1486771  
  9120.000000   1485697   1485138   1484939   1484906   1484866  
  9110.000000   1484756   1484571   1484439   1484514   1484992  
  9100.000000   1486012   1487668   1489969   1492772   1495773  
  9090.000000   1498491   1500398   1500969   1499849   1496985  
  9080.000000   1492713   1487706   1482788   1478779   1476291  
  9070.000000   1475599   1476572   1478747   1481475   1484076  
  9060.000000   1485967   1486761   1486314   1484727   1482307  
  9050.000000   1479510   1476874   1474934   1474118   1474658  
  9040.000000   1476516   1479398   1482801   1486125   1488786  
  9030.000000   1490345   1490588   1489504   1487266   1484153  
  9020.000000   1480553   1476863   1473478   1470749   1468949  
  9010.000000   1468219   1468490   1469542   1471033   1472623  
  9000.000000   1474015   1475051   1475718   1476091   1476272  
  8990.000000   1476291   1476154   1475805   1475241   1474512  
  8980.000000   1473770   1473203   1472957   1473087   1473531  
  8970.000000   1474172   1474879   1475592   1476327   1477149  
  8960.000000   1478082   1479056   1479885   1480329   1480203  
  8950.000000   1479488   1478391   1477271   1476507   1476336  
  8940.000000   1476738   1477445   1478024   1478081   1477416  
  8930.000000   1476119   1474530   1473098   1472211   1472039  
  8920.000000   1472497   1473273   1473992   1474319   1474097  
  8910.000000   1473353   1472295   1471220   1470437   1470211  
  8900.000000   1470706   1471972   1473916   1476318   1478880  
  8890.000000   1481270   1483216   1484556   1485289   1485543  
  8880.000000   1485511   1485369   1485198   1485001   1484723  
  8870.000000   1484365   1484007   1483845   1484083   1484859  
  8860.000000   1486111   1487556   1488745   1489197   1488572  
  8850.000000   1486763   1483952   1480532   1477022   1473901  
  8840.000000   1471532   1470117   1469730   1470326   1471774  
  8830.000000   1473854   1476288   1478757   1480958   1482679  
  8820.000000   1483874   1484673   1485350   1486203   1487473  
  8810.000000   1489225   1491372   1493689   1495941   1497935  
  8800.000000   1499561   1500777   1501549   1501840   1501596  
  8790.000000   1500816   1499609   1498225   1497027   1496371  
  8780.000000   1496479   1497338   1498679   1500086   1501136  
  8770.000000   1501589   1501482   1501118   1500951   1501387  
  8760.000000   1502640   1504631   1507036   1509392   1511275  
  8750.000000   1512422   1512813   1512649   1512281   1512094  
  8740.000000   1512400   1513367   1514985   1517069   1519314  
  8730.000000   1521358   1522890   1523727   1523880   1523553  
  8720.000000   1523074   1522803   1522998   1523759   1524997  
  8710.000000   1526512   1528081   1529570   1530963   1532347  
  8700.000000   1533809   1535354   1536853   1538066   1538743  
  8690.000000   1538730   1538070   1536991   1535841   1534950  
  8680.000000   1534523   1534590   1535033   1535678   1536397  
  8670.000000   1537166   1538057   1539165   1540520   1542030  
  8660.000000   1543514   1544767   1545689   1546318   1546861  
  8650.000000   1547575   1548672   1550202   1552043   1553945  
  8640.000000   1555655   1557028   1558098   1559047   1560119  
  8630.000000   1561487   1563176   1565043   1566846   1568350  
  8620.000000   1569443   1570171   1570722   1571347   1572248  
  8610.000000   1573519   1575114   1576899   1578708   1580414  
  8600.000000   1581959   1583344   1584587   1585699   1586644  
  8590.000000   1587382   1587877   1588168   1588354   1588601  
  8580.000000   1589073   1589881   1591030   1592401   1593779  
  8570.000000   1594891   1595492   1595410   1594625   1593255  
  8560.000000   1591568   1589905   1588628   1588037   1588309  
  8550.000000   1589470   1591390   1593840   1596539   1599248  
  8540.000000   1601814   1604188   1606404   1608507   1610524  
  8530.000000   1612393   1614011   1615217   1615903   1616024  
  8520.000000   1615660   1614993   1614249   1613675   1613456  
  8510.000000   1613725   1614526   1615861   1617675   1619873  
  8500.000000   1622294   1624719   1626883   1628519   1629437  
  8490.000000   1629576   1629090   1628298   1627650   1627565  
  8480.000000   1628334   1629998   1632345   1634970   1637409  
  8470.000000   1639297   1640489   1641103   1641470   1642016  
  8460.000000   1643111   1644948   1647482   1650450   1653478  
  8450.000000   1656183   1658301   1659740   1660586   1661056  
  8440.000000   1661399   1661842   1662516   1663480   1664693  
  8430.000000   1666095   1667595   1669136   1670642   1672069  
  8420.000000   1673327   1674345   1675030   1675331   1675231  
  8410.000000   1674753   1673964   1672928   1671705   1670320  
  8400.000000   1668770   1667054   1665196   1663298   1661521  
  8390.000000   1660097   1659238   1659130   1659832   1661287  
  8380.000000   1663288   1665548   1667744   1669589   1670879  
  8370.000000   1671515   1671512   1670950   1669963   1668667  
  8360.000000   1667181   1665581   1663930   1662268   1660632  
  8350.000000   1659067   1657617   1656340   1655282   1654502  
  8340.000000   1654040   1653929   1654167   1654717   1655502  
  8330.000000   1656405   1657295   1658036   1658535   1658740  
  8320.000000   1658675   1658404   1658026   1657636   1657300  
  8310.000000   1657049   1656871   1656740   1656624   1656515  
  8300.000000   1656414   1656329   1656237   1656091   1655798  
  8290.000000   1655267   1654427   1653274   1651884   1650402  
  8280.000000   1649004   1647848   1647009   1646478   1646151  
  8270.000000   1645889   1645555   1645075   1644451   1643749  
  8260.000000   1643061   1642451   1641930   1641444   1640907  
  8250.000000   1640233   1639377   1638364   1637271   1636230  
  8240.000000   1635354   1634747   1634439   1634421   1634621  
  8230.000000   1634935   1635224   1635333   1635106   1634405  
  8220.000000   1633150   1631327   1629013   1626359   1623573  
  8210.000000   1620879   1618464   1616461   1614910   1613797  
  8200.000000   1613038   1612546   1612206   1611936   1611649  
  8190.000000   1611285   1610786   1610099   1609183   1607992  
  8180.000000   1606503   1604690   1602565   1600147   1597503  
  8170.000000   1594724   1591939   1589289   1586905   1584892  
  8160.000000   1583294   1582108   1581282   1580741   1580405  
  8150.000000   1580202   1580075   1579965   1579826   1579594  
  8140.000000   1579228   1578688   1577983   1577149   1576261  
  8130.000000   1575405   1574659   1574075   1573666   1573417  
  8120.000000   1573282   1573211   1573136   1572987   1572690  
  8110.000000   1572179   1571415   1570389   1569153   1567787  
  8100.000000   1566402   1565095   1563924   1562901   1561995  
  8090.000000   1561169   1560404   1559734   1559226   1558961  
  8080.000000   1558978   1559248   1559654   1560025   1560182  
  8070.000000   1559998   1559434   1558551   1557477   1556356  
  8060.000000   1555293   1554327   1553421   1552493   1551454  
  8050.000000   1550245   1548859   1547337   1545748   1544169  
  8040.000000   1542660   1541269   1540025   1538956   1538084  
  8030.000000   1537420   1536953   1536640   1536406   1536152  
  8020.000000   1535787   1535245   1534507   1533599   1532587  
  8010.000000   1531542   1530534   1529608   1528787   1528078  
  8000.000000   1527488   1527016   1526662   1526403   1526192  
  7990.000000   1525956   1525606   1525066   1524306   1523355  
  7980.000000   1522314   1521323   1520537   1520061   1519932  
  7970.000000   1520092   1520417   1520737   1520907   1520824  
  7960.000000   1520471   1519898   1519219   1518565   1518062  
  7950.000000   1517802   1517828   1518146   1518718   1519493  
  7940.000000   1520403   1521387   1522383   1523333   1524179  
  7930.000000   1524856   1525296   1525430   1525211   1524622  
  7920.000000   1523708   1522560   1521326   1520159   1519189  
  7910.000000   1518487   1518039   1517777   1517600   1517439  
  7900.000000   1517275   1517163   1517190   1517438   1517924  
  7890.000000   1518584   1519281   1519845   1520149   1520131  
  7880.000000   1519834   1519354   1518817   1518303   1517836  
  7870.000000   1517379   1516881   1516314   1515715   1515179  
  7860.000000   1514822   1514747   1514982   1515495   1516188  
  7850.000000   1516965   1517752   1518532   1519329   1520168  
  7840.000000   1521048   1521900   1522609   1523033   1523058  
  7830.000000   1522635   1521800   1520678   1519445   1518297  
  7820.000000   1517410   1516907   1516833   1517156   1517752  
  7810.000000   1518443   1519016   1519287   1519150   1518613  
  7800.000000   1517806   1516943   1516259   1515931   1516019  
  7790.000000   1516451   1517049   1517594   1517901   1517876  
  7780.000000   1517524   1516939   1516241   1515544   1514910  
  7770.000000   1514362   1513891   1513484   1513141   1512864  
  7760.000000   1512647   1512460   1512244   1511926   1511446  
  7750.000000   1510783   1509973   1509096   1508262   1507571  
  7740.000000   1507092   1506850   1506818   1506946   1507155  
  7730.000000   1507374   1507532   1507577   1507480   1507231  
  7720.000000   1506848   1506355   1505787   1505155   1504464  
  7710.000000   1503687   1502812   1501837   1500801   1499778  
  7700.000000   1498864   1498150   1497694   1497510   1497567  
  7690.000000   1497817   1498214   1498734   1499367   1500106  
  7680.000000   1500916   1501723   1502421   1502897   1503075  
  7670.000000   1502935   1502532   1501962   1501340   1500748  
  7660.000000   1500217   1499728   1499224   1498659   1498011  
  7650.000000   1497311   1496621   1496025   1495595   1495379  
  7640.000000   1495385   1495587   1495925   1496312   1496658  
  7630.000000   1496870   1496891   1496703   1496349   1495917  
  7620.000000   1495520   1495259   1495185   1495289   1495506  
  7610.000000   1495745   1495932   1496029   1496053   1496043  
  7600.000000   1496035   1496025   1495969   1495789   1495432  
  7590.000000   1494891   1494241   1493618   1493189   1493087  
  7580.000000   1493375   1494028   1494950   1496011   1497094  
  7570.000000   1498116   1499039   1499854   1500566   1501177  
  7560.000000   1501692   1502124   1502509   1502893   1503334  
  7550.000000   1503857   1504456   1505079   1505657   1506132  
  7540.000000   1506488   1506761   1507027   1507370   1507851  
  7530.000000   1508480   1509218   1510000   1510768   1511496  
  7520.000000   1512200   1512915   1513672   1514465   1515251  
  7510.000000   1515956   1516516   1516900   1517137   1517304  
  7500.000000   1517508   1517845   1518378   1519109   1520005  
  7490.000000   1521006   1522057   1523115   1524166   1525203  
  7480.000000   1526237   1527270   1528313   1529376   1530486  
  7470.000000   1531671   1532968   1534395   1535950   1537603  
  7460.000000   1539306   1541005   1542658   1544240   1545754  
  7450.000000   1547214   1548640   1550036   1551401   1552720  
  7440.000000   1553981   1555181   1556332   1557460   1558598  
  7430.000000   1559783   1561039   1562384   1563825   1565356  
  7420.000000   1566970   1568646   1570360   1572071   1573738  
  7410.000000   1575311   1576758   1578059   1579227   1580304  
  7400.000000   1581361   1582479   1583738   1585199   1586890  
  7390.000000   1588804   1590889   1593071   1595258   1597369  
  7380.000000   1599339   1601148   1602812   1604385   1605932  
  7370.000000   1607509   1609142   1610814   1612470   1614032  
  7360.000000   1615426   1616616   1617612   1618483   1619329  
  7350.000000   1620268   1621389   1622738   1624296   1625991  
  7340.000000   1627725   1629398   1630935   1632301   1633502  
  7330.000000   1634576   1635583   1636591   1637673   1638890  
  7320.000000   1640292   1641898   1643698   1645635   1647616  
  7310.000000   1649514   1651210   1652613   1653699   1654516  
  7300.000000   1655178   1655841   1656657   1657743   1659142  
  7290.000000   1660828   1662708   1664657   1666549   1668282  
  7280.000000   1669799   1671084   1672153   1673040   1673784  
  7270.000000   1674422   1674989   1675518   1676051   1676639  
  7260.000000   1677341   1678214   1679299   1680610   1682127  
  7250.000000   1683787   1685509   1687194   1688769   1690185  
  7240.000000   1691459   1692637   1693821   1695105   1696583  
  7230.000000   1698297   1700259   1702420   1704728   1707107  
  7220.000000   1709511   1711902   1714286   1716674   1719107  
  7210.000000   1721612   1724227   1726960   1729822   1732793  
  7200.000000   1735860   1738987   1742156   1745343   1748549  
  7190.000000   1751781   1755066   1758422   1761871   1765397  
  7180.000000   1768968   1772517   1775977   1779278   1782391  
  7170.000000   1785321   1788133   1790921   1793802   1796868  
  7160.000000   1800175   1803711   1807426   1811230   1815044  
  7150.000000   1818803   1822496   1826139   1829797   1833527  
  7140.000000   1837398   1841430   1845635   1849976   1854425  
  7130.000000   1858935   1863490   1868069   1872691   1877368  
  7120.000000   1882144   1887047   1892117   1897365   1902791  
  7110.000000   1908360   1914025   1919719   1925392   1931005  
  7100.000000   1936555   1942056   1947541   1953027   1958521  
  7090.000000   1963991   1969401   1974709   1979902   1984996  
  7080.000000   1990040   1995101   2000236   2005484   2010850  
  7070.000000   2016315   2021851   2027430   2033031   2038634  
  7060.000000   2044215   2049734   2055140   2060387   2065452  
  7050.000000   2070355   2075157   2079946   2084803   2089783  
  7040.000000   2094880   2100050   2105212   2110299   2115264  
  7030.000000   2120110   2124866   2129579   2134285   2138998  
  7020.000000   2143702   2148373   2152981   2157515   2161973  
  7010.000000   2166369   2170713   2175016   2179275   2183497  
  7000.000000   2187677   2191828   2195950   2200050   2204112  
  6990.000000   2208122   2212046   2215865   2219552   2223102  
  6980.000000   2226505   2229760   2232856   2235800   2238592  
  6970.000000   2241266   2243856   2246423   2249005   2251641  
  6960.000000   2254324   2257043   2259757   2262437   2265049  
  6950.000000   2267580   2270005   2272313   2274473   2276471  
  6940.000000   2278299   2279983   2281568   2283121   2284692  
  6930.000000   2286318   2287990   2289676   2291327   2292910  
  6920.000000   2294409   2295841   2297225   2298588   2299932  
  6910.000000   2301253   2302537   2303791   2305035   2306315  
  6900.000000   2307664   2309097   2310582   2312056   2313433  
  6890.000000   2314644   2315656   2316484   2317184   2317825  
  6880.000000   2318465   2319139   2319850   2320592   2321352  
  6870.000000   2322131   2322934   2323770   2324633   2325513  
  6860.000000   2326386   2327242   2328081   2328928   2329809  
  6850.000000   2330742   2331722   2332708   2333641   2334459  
  6840.000000   2335118   2335606   2335942   2336171   2336340  
  6830.000000   2336499   2336683   2336927   2337254   2337693  
  6820.000000   2338251   2338928   2339686   2340475   2341225  
  6810.000000   2341879   2342393   2342751   2342955   2343022  
  6800.000000   2342965   2342802   2342551   2342246   2341933  
  6790.000000   2341667   2341490   2341418   2341424   2341450  
  6780.000000   2341415   2341263   2340969   2340566   2340123  
  6770.000000   2339727   2339446   2339312   2339313   2339404  
  6760.000000   2339529   2339642   2339715   2339739   2339716  
  6750.000000   2339646   2339527   2339353   2339127   2338864  
  6740.000000   2338591   2338344   2338157   2338055   2338047  
  6730.000000   2338131   2338291   2338511   2338766   2339039  
  6720.000000   2339310   2339569   2339814   2340049   2340282  
  6710.000000   2340519   2340746   2340941   2341064   2341081  
  6700.000000   2340973   2340749   2340440   2340093   2339739  
  6690.000000   2339393   2339029   2338612   2338102   2337499  
  6680.000000   2336829   2336160   2335558   2335075   2334706  
  6670.000000   2334408   2334098   2333692   2333129   2332389  
  6660.000000   2331488   2330470   2329379   2328252   2327113  
  6650.000000   2325980   2324865   2323789   2322762   2321791  
  6640.000000   2320859   2319947   2319027   2318087   2317131  
  6630.000000   2316181   2315252   2314345   2313430   2312450  
  6620.000000   2311344   2310070   2308628   2307065   2305457  
  6610.000000   2303896   2302446   2301140   2299967   2298896  
  6600.000000   2297878   2296878   2295864   2294814   2293703  
  6590.000000   2292507   2291206   2289792   2288279   2286700  
  6580.000000   2285098   2283506   2281941   2280397   2278851  
  6570.000000   2277280   2275672   2274035   2272384   2270738  
  6560.000000   2269105   2267489   2265887   2264305   2262768  
  6550.000000   2261309   2259958   2258720   2257568   2256437  
  6540.000000   2255250   2253945   2252498   2250940   2249340  
  6530.000000   2247784   2246340   2245039   2243866   2242773  
  6520.000000   2241699   2240587   2239405   2238136   2236783  
  6510.000000   2235354   2233862   2232323   2230758   2229192  
  6500.000000   2227649   2226144   2224681   2223253   2221849  
  6490.000000   2220469   2219121   2217831   2216615   2215479  
  6480.000000   2214401   2213337   2212235   2211055   2209789  
  6470.000000   2208457   2207105   2205776   2204494   2203253  
  6460.000000   2202025   2200770   2199462   2198095   2196685  
  6450.000000   2195259   2193844   2192450   2191082   2189740  
  6440.000000   2188434   2187183   2186013   2184940   2183965  
  6430.000000   2183062   2182197   2181331   2180452   2179567  
  6420.000000   2178713   2177921   2177216   2176590   2176016  
  6410.000000   2175447   2174854   2174225   2173580   2172954  
  6400.000000   2172389   2171910   2171526   2171224   2170984  
  6390.000000   2170784   2170609   2170447   2170292   2170132  
  6380.000000   2169954   2169743   2169488   2169184   2168827  
  6370.000000   2168420   2167963   2167461   2166924   2166380  
  6360.000000   2165861   2165410   2165051   2164787   2164582  
  6350.000000   2164374   2164090   2163672   2163092   2162367  
  6340.000000   2161543   2160682   2159833   2159025   2158255  
  6330.000000   2157510   2156768   2156022   2155269   2154524  
  6320.000000   2153788   2153062   2152332   2151586   2150812  
  6310.000000   2150009   2149180   2148328   2147444   2146511  
  6300.000000   2145505   2144416   2143247   2142028   2140795  
  6290.000000   2139587   2138417   2137279   2136139   2134963  
  6280.000000   2133724   2132426   2131087   2129747   2128434  
  6270.000000   2127167   2125939   2124731   2123515   2122274  
  6260.000000   2120996   2119682   2118335   2116959   2115558  
  6250.000000   2114140   2112721   2111326   2109973   2108673  
  6240.000000   2107411   2106153   2104853   2103472   2101996  
  6230.000000   2100439   2098842   2097253   2095710   2094226  
  6220.000000   2092790   2091376   2089965   2088552   2087156  
  6210.000000   2085809   2084539   2083357   2082252   2081198  
  6200.000000   2080165   2079138   2078118   2077119   2076159  
  6190.000000   2075239   2074339   2073420   2072438   2071357  
  6180.000000   2070169   2068894   2067577   2066276   2065041  
  6170.000000   2063908   2062890   2061979   2061146   2060353  
  6160.000000   2059560   2058731   2057839   2056874   2055840  
  6150.000000   2054754   2053640   2052521   2051410   2050308  
  6140.000000   2049209   2048103   2046986   2045861   2044743  
  6130.000000   2043649   2042596   2041590   2040629   2039703  
  6120.000000   2038803   2037922   2037064   2036236   2035452  
  6110.000000   2034721   2034052   2033443   2032890   2032382  
  6100.000000   2031909   2031451   2030998   2030535   2030059  
  6090.000000   2029569   2029085   2028623   2028210   2027863  
  6080.000000   2027594   2027398   2027270   2027190   2027153  
  6070.000000   2027149   2027183   2027253   2027376   2027551  
  6060.000000   2027797   2028118   2028537   2029058   2029698  
  6050.000000   2030446   2031298   2032225   2033215   2034247  
  6040.000000   2035329   2036469   2037698   2039034   2040505  
  6030.000000   2042105   2043836   2045668   2047586   2049554  
  6020.000000   2051559   2053575   2055599   2057620   2059655  
  6010.000000   2061715   2063835   2066037   2068352   2070776  
  6000.000000   2073308   2075912   2078563   2081231   2083919  
  5990.000000   2086635   2089419   2092303   2095323   2098484  
  5980.000000   2101789   2105209   2108730   2112321   2115977  
  5970.000000   2119680   2123434   2127226   2131060   2134925  
  5960.000000   2138832   2142782   2146793   2150868   2155013  
  5950.000000   2159214   2163459   2167727   2172009   2176305  
  5940.000000   2180627   2184995   2189426   2193930   2198504  
  5930.000000   2203135   2207797   2212465   2217100   2221670  
  5920.000000   2226127   2230432   2234538   2238417   2242047  
  5910.000000   2245437   2248604   2251585   2254411   2257124  
  5900.000000   2259747   2262319   2264861   2267417   2270006  
  5890.000000   2272656   2275360   2278103   2280838   2283519  
  5880.000000   2286088   2288509   2290754   2292818   2294710  
  5870.000000   2296451   2298073   2299613   2301117   2302627  
  5860.000000   2304182   2305806   2307508   2309282   2311117  
  5850.000000   2313002   2314940   2316943   2319030   2321213  
  5840.000000   2323499   2325869   2328304   2330778   2333280  
  5830.000000   2335806   2338369   2340979   2343641   2346340  
  5820.000000   2349052   2351749   2354410   2357031   2359620  
  5810.000000   2362193   2364759   2367321   2369857   2372358  
  5800.000000   2374797   2377195   2379553   2381919   2384294  
  5790.000000   2386698   2389079   2391389   2393510   2395342  
  5780.000000   2396739   2397596   2397797   2397294   2396066  
  5770.000000   2394181   2391749   2388954   2385976   2383013  
  5760.000000   2380191   2377608   2375271   2373174   2371261  
  5750.000000   2369503   2367860   2366320   2364862   2363470  
  5740.000000   2362115   2360762   2359387   2357970   2356517  
  5730.000000   2355034   2353551   2352078   2350637   2349231  
  5720.000000   2347870   2346559   2345304   2344106   2342965  
  5710.000000   2341870   2340810   2339776   2338767   2337791  
  5700.000000   2336859   2335982   2335157   2334374   2333608  
  5690.000000   2332844   2332066   2331286   2330511   2329765  
  5680.000000   2329046   2328345   2327618   2326821   2325888  
  5670.000000   2324768   2323411   2321786   2319870   2317667  
  5660.000000   2315193   2312498   2309651   2306745   2303871  
  5650.000000   2301110   2298508   2296085   2293823   2291694  
  5640.000000   2289665   2287714   2285829   2284005   2282244  
  5630.000000   2280537   2278881   2277267   2275704   2274194  
  5620.000000   2272759   2271405   2270139   2268949   2267823  
  5610.000000   2266742   2265704   2264709   2263770   2262892  
  5600.000000   2262076   2261303   2260554   2259804   2259044  
  5590.000000   2258276   2257516   2256780   2256077   2255399  
  5580.000000   2254728   2254040   2253316   2252548   2251739  
  5570.000000   2250900   2250041   2249170   2248287   2247399  
  5560.000000   2246511   2245638   2244791   2243976   2243181  
  5550.000000   2242383   2241550   2240657   2239694   2238672  
  5540.000000   2237619   2236565   2235534   2234532   2233552  
  5530.000000   2232583   2231617   2230660   2229723   2228821  
  5520.000000   2227954   2227108   2226252   2225357   2224397  
  5510.000000   2223369   2222286   2221175   2220062   2218965  
  5500.000000   2217885   2216817   2215746   2214662   2213556  
  5490.000000   2212421   2211242   2210005   2208690   2207285  
  5480.000000   2205790   2204222   2202609   2200985   2199373  
  5470.000000   2197788   2196226   2194679   2193136   2191595  
  5460.000000   2190049   2188497   2186924   2185313   2183647  
  5450.000000   2181916   2180133   2178327   2176542   2174816  
  5440.000000   2173176   2171620   2170135   2168695   2167286  
  5430.000000   2165900   2164545   2163224   2161941   2160684  
  5420.000000   2159451   2158234   2157060   2155957   2154977  
  5410.000000   2154143   2153476   2152946   2152530   2152184  
  5400.000000   2151901   2151679   2151552   2151537   2151663  
  5390.000000   2151915   2152290   2152756   2153324   2153998  
  5380.000000   2154827   2155831   2157043   2158439   2160006  
  5370.000000   2161684   2163465   2165315   2167275   2169344  
  5360.000000   2171582   2173982   2176593   2179395   2182445  
  5350.000000   2185744   2189376   2193349   2197741   2202529  
  5340.000000   2207757   2213372   2219416   2225843   2232714  
  5330.000000   2239981   2247696   2255795   2264320   2273217  
  5320.000000   2282572   2292381   2302787   2313806   2325575  
  5310.000000   2338063   2351346   2365333   2380062   2395444  
  5300.000000   2411544   2428316   2445870   2464190   2483388  
  5290.000000   2503419   2524329   2545995   2568369   2591270  
  5280.000000   2614644   2638379   2662532   2687127   2712314  
  5270.000000   2738147   2764681   2791822   2819418   2847244  
  5260.000000   2875102   2902864   2930487   2958015   2985486  
  5250.000000   3012926   3040244   3067315   3093914   3119906  
  5240.000000   3145140   3169654   3193461   3216731   3239510  
  5230.000000   3261923   3283905   3305449   3326381   3346650  
  5220.000000   3366105   3384787   3402659   3419868   3436439  
  5210.000000   3452518   3468067   3483126   3497548   3511308  
  5200.000000   3524258   3536446   3547829   3558552   3568626  
  5190.000000   3578183   3587176   3595657   3603520   3610795  
  5180.000000   3617396   3623396   3628751   3633547   3637733  
  5170.000000   3641372   3644407   3646906   3648847   3650328  
  5160.000000   3651345   3651980   3652189   3652009   3651370  
  5150.000000   3650311   3648800   3646915   3644663   3642125  
  5140.000000   3639288   3636197   3632819   3629188   3625291  
  5130.000000   3621186   3616881   3612428   3607819   3603079  
  5120.000000   3598183   3593152   3587983   3582716   3577369  
  5110.000000   3571975   3566537   3561063   3555544   3549990  
  5100.000000   3544416   3538859   3533352   3527933   3522617  
  5090.000000   3517409   3512296   3507266   3502300   3497393  
  5080.000000   3492527   3487692   3482857   3478000   3473087  
  5070.000000   3468104   3463039   3457899   3452687   3447411  
  5060.000000   3442056   3436611   3431045   3425349   3419508  
  5050.000000   3413541   3407455   3401283   3395036   3388737  
  5040.000000   3382385   3375996   3369569   3363117   3356636  
  5030.000000   3350131   3343585   3336989   3330326   3323597  
  5020.000000   3316810   3309989   3303169   3296377   3289639  
  5010.000000   3282965   3276363   3269828   3263371   3256996  
  5000.000000   3250731   3244589   3238599   3232763   3227096  
  4990.000000   3221580   3216226   3211013   3205963   3201062  
  4980.000000   3196345   3191803   3187476   3183356   3179487  
  4970.000000   3175861   3172522   3169455   3166694   3164210  
  4960.000000   3162029   3160114   3158497   3157155   3156135  
  4950.000000   3155425   3155081   3155081   3155471   3156213  
  4940.000000   3157342   3158811   3160655   3162830   3165373  
  4930.000000   3168243   3171478   3175040   3178968   3183232  
  4920.000000   3187877   3192877   3198273   3204036   3210195  
  4910.000000   3216717   3223617   3230861   3238451   3246346  
  4900.000000   3254529   3262947   3271560   3280313   3289153  
  4890.000000   3298035   3306903   3315717   3324409   3332934  
  4880.000000   3341209   3349191   3356792   3363981   3370673  
  4870.000000   3376850   3382426   3387392   3391676   3395298  
  4860.000000   3398223   3400515   3402177   3403296   3403882  
  4850.000000   3404015   3403694   3402988   3401903   3400517  
  4840.000000   3398862   3397029   3395064   3393051   3391026  
  4830.000000   3389048   3387140   3385339   3383661   3382124  
  4820.000000   3380734   3379490   3378383   3377395   3376516  
  4810.000000   3375725   3375027   3374408   3373885   3373447  
  4800.000000   3373111   3372866   3372725   3372680   3372747  
  4790.000000   3372925   3373229   3373658   3374220   3374905  
  4780.000000   3375713   3376624   3377631   3378706   3379833  
  4770.000000   3380981   3382129   3383255   3384352   3385419  
  4760.000000   3386472   3387522   3388589   3389675   3390776  
  4750.000000   3391876   3392956   3393999   3394998   3395960  
  4740.000000   3396901   3397845   3398815   3399823   3400876  
  4730.000000   3401961   3403063   3404157   3405225   3406250  
  4720.000000   3407235   3408186   3409136   3410110   3411154  
  4710.000000   3412289   3413548   3414928   3416442   3418075  
  4700.000000   3419839   3421739   3423808   3426074   3428582  
  4690.000000   3431354   3434412   3437737   3441313   3445084  
  4680.000000   3449009   3453014   3457060   3461080   3465050  
  4670.000000   3468923   3472705   3476390   3480025   3483648  
  4660.000000   3487334   3491139   3495132   3499345   3503806  
  4650.000000   3508506   3513428   3518534   3523786   3529144  
  4640.000000   3534570   3540040   3545528   3551026   3556517  
  4630.000000   3561995   3567431   3572805   3578067   3583176  
  4620.000000   3588065   3592688   3596983   3600925   3604474  
  4610.000000   3607640   3610412   3612834   3614920   3616738  
  4600.000000   3618313   3619715   3620963   3622111   3623150  
  4590.000000   3624105   3624938   3625649   3626183   3626533  
  4580.000000   3626655   3626551   3626200   3625623   3624823  
  4570.000000   3623836   3622681   3621406   3620032   3618605  
  4560.000000   3617139   3615662   3614169   3612667   3611138  
  4550.000000   3609576   3607963   3606296   3604569   3602788  
  4540.000000   3600959   3599094   3597207   3595313   3593428  
  4530.000000   3591561   3589725   3587915   3586132   3584360  
  4520.000000   3582605   3580852   3579131   3577448   3575858  
  4510.000000   3574377   3573072   3571951   3571079   3570454  
  4500.000000   3570150   3570172   3570611   3571480   3572881  
  4490.000000   3574817   3577378   3580542   3584379   3588852  
  4480.000000   3594019   3599838   3606367   3613560   3621467  
  4470.000000   3630028   3639271   3649110   3659545   3670473  
  4460.000000   3681876   3693653   3705791   3718206   3730893  
  4450.000000   3743787   3756883   3770131   3783520   3797010  
  4440.000000   3810584   3824211   3837862   3851513   3865120  
  4430.000000   3878655   3892053   3905281   3918261   3930966  
  4420.000000   3943319   3955310   3966881   3978040   3988733  
  4410.000000   3998969   4008684   4017874   4026475   4034499  
  4400.000000   4041919   4048800   4055177   4061167   4066842  
  4390.000000   4072333   4077709   4083073   4088463   4093942  
  4380.000000   4099508   4105183   4110938   4116774   4122656  
  4370.000000   4128584   4134535   4140507   4146471   4152406  
  4360.000000   4158260   4164002   4169573   4174970   4180146  
  4350.000000   4185141   4189910   4194516   4198913   4203187  
  4340.000000   4207312   4211383   4215339   4219148   4222542  
  4330.000000   4225189   4226551   4226111   4223379   4218133  
  4320.000000   4210432   4200714   4189669   4178152   4166964  
  4310.000000   4156758   4147900   4140520   4134518   4129701  
  4300.000000   4125845   4122770   4120365   4118548   4117290  
  4290.000000   4116517   4116208   4116280   4116737   4117539  
  4280.000000   4118724   4120283   4122223   4124511   4127090  
  4270.000000   4129903   4132863   4135885   4138820   4141478  
  4260.000000   4143571   4144779   4144758   4143258   4140153  
  4250.000000   4135530   4129646   4122927   4115832   4108828  
  4240.000000   4102241   4096299   4091038   4086423   4082311  
  4230.000000   4078567   4075044   4071639   4068278   4064917  
  4220.000000   4061558   4058206   4054929   4051770   4048833  
  4210.000000   4046165   4043852   4041902   4040344   4039136  
  4200.000000   4038258   4037641   4037254   4037024   4036933  
  4190.000000   4036924   4037001   4037134   4037359   4037667  
  4180.000000   4038115   4038701   4039481   4040446   4041648  
  4170.000000   4043087   4044828   4046886   4049337   4052188  
  4160.000000   4055491   4059213   4063364   4067875   4072741  
  4150.000000   4077894   4083352   4089072   4095099   4101414  
  4140.000000   4108077   4115071   4122458   4130210   4138371  
  4130.000000   4146894   4155801   4165030   4174597   4184458  
  4120.000000   4194657   4205194   4216151   4227561   4239510  
  4110.000000   4252011   4265098   4278721   4292833   4307317  
  4100.000000   4322078   4336983   4351950   4366900   4381809  
  4090.000000   4396673   4411519   4426379   4441277   4456237  
  4080.000000   4471244   4486297   4501339   4516346   4531221  
  4070.000000   4545919   4560312   4574350   4587912   4600981  
  4060.000000   4613474   4625416   4636746   4647497   4657600  
  4050.000000   4667095   4675924   4684160   4691778   4698873  
  4040.000000   4705413   4711466   4716964   4721955   4726378  
  4030.000000   4730310   4733729   4736735   4739320   4741550  
  4020.000000   4743366   4744817   4745888   4746629   4746993  
  4010.000000   4747057   4746852   4746329   4745251   4743616  
  4000.000000   4741702  
##END= 
