##TITLE= Sample 016 By ssteindl date Montag, November 19 2018
##JCAMP-DX= 4.24
##DATA TYPE= INFRARED SPECTRUM
##ORIGIN= Exported PE Spectrum Data File
##OWNER= Sandra Steindl
##DATE= 18/11/19
##TIME= 16:26:56.00
##SPECTROMETER/DATA SYSTEM= PERKIN-ELMER Frontier FT-IR/NIR IR
##INSTRUMENT PARAMETERS=
  APODIZATION=stark
  DETECTOR=INGAAS
##RESOLUTION= 16.000000
##DELTAX= -2.000000
##XUNITS= 1/CM
##YUNITS= A
##XFACTOR= 1.00
##YFACTOR= 0.00000011920928955078
##FIRSTX= 10000.00
##LASTX= 4000.00
##NPOINTS= 3001
##FIRSTY= 0.200457
##MAXY= 0.548489
##MINY= 0.160427
##XYDATA= (X++(Y..Y))
 10000.000000   1681557   1688229   1693310   1694997   1693532  
  9990.000000   1690466   1686758   1682457   1677534   1672059  
  9980.000000   1665876   1658819   1651049   1643152   1635807  
  9970.000000   1629811   1625871   1624553   1625994   1629975  
  9960.000000   1635822   1642564   1649093   1654348   1657617  
  9950.000000   1658570   1657459   1654828   1651507   1648166  
  9940.000000   1645319   1643109   1641439   1640087   1638785  
  9930.000000   1637482   1636245   1635479   1635660   1637353  
  9920.000000   1640889   1646228   1652821   1659559   1665055  
  9910.000000   1667811   1666781   1661564   1652713   1641603  
  9900.000000   1630134   1620294   1613608   1610923   1612206  
  9890.000000   1616823   1623678   1631641   1639591   1646639  
  9880.000000   1651995   1655036   1655344   1652770   1647725  
  9870.000000   1641004   1633891   1627555   1622845   1619838  
  9860.000000   1617890   1615925   1612925   1608539   1603294  
  9850.000000   1598612   1596198   1597470   1602812   1611415  
  9840.000000   1621422   1630578   1637047   1639970   1639743  
  9830.000000   1637635   1635216   1633618   1633169   1633324  
  9820.000000   1633122   1631648   1628589   1624311   1619697  
  9810.000000   1615722   1612940   1611383   1610544   1609865  
  9800.000000   1609058   1608384   1608549   1610327   1614126  
  9790.000000   1619654   1625901   1631478   1635085   1636031  
  9780.000000   1634455   1631251   1627706   1625015   1623908  
  9770.000000   1624475   1626232   1628346   1629892   1630073  
  9760.000000   1628358   1624554   1618839   1611775   1604247  
  9750.000000   1597362   1592169   1589428   1589319   1591403  
  9740.000000   1594725   1598185   1600905   1602543   1603310  
  9730.000000   1603756   1604404   1605387   1606386   1606710  
  9720.000000   1605747   1603220   1599472   1595287   1591638  
  9710.000000   1589251   1588332   1588555   1589235   1589746  
  9700.000000   1589733   1589310   1588839   1588770   1589314  
  9690.000000   1590433   1591861   1593328   1594674   1595858  
  9680.000000   1596858   1597462   1597286   1595774   1592546  
  9670.000000   1587547   1581252   1574521   1568334   1563474  
  9660.000000   1560235   1558502   1557854   1557978   1558822  
  9650.000000   1560711   1564065   1569070   1575327   1581781  
  9640.000000   1586992   1589592   1588851   1584899   1578757  
  9630.000000   1571881   1565743   1561314   1558929   1558269  
  9620.000000   1558666   1559347   1559708   1559364   1558149  
  9610.000000   1556063   1553249   1550071   1547111   1545169  
  9600.000000   1545065   1547409   1552358   1559492   1567914  
  9590.000000   1576477   1584095   1589999   1593816   1595535  
  9580.000000   1595369   1593632   1590714   1587048   1583190  
  9570.000000   1579717   1577153   1575759   1575376   1575468  
  9560.000000   1575203   1573901   1571195   1567397   1563295  
  9550.000000   1560012   1558533   1559383   1562462   1567038  
  9540.000000   1572034   1576261   1578734   1578825   1576342  
  9530.000000   1571551   1565125   1558087   1551691   1547175  
  9520.000000   1545506   1546995   1551159   1556681   1561768  
  9510.000000   1564656   1564165   1560130   1553411   1545682  
  9500.000000   1538878   1534664   1534019   1537038   1543016  
  9490.000000   1550676   1558470   1564919   1568820   1569523  
  9480.000000   1566969   1561806   1555210   1548691   1543678  
  9470.000000   1541108   1541123   1542971   1545267   1546449  
  9460.000000   1545303   1541383   1535042   1527309   1519406  
  9450.000000   1512386   1506847   1502860   1500227   1498605  
  9440.000000   1497829   1497785   1498387   1499341   1500145  
  9430.000000   1500230   1499229   1497238   1494922   1493362  
  9420.000000   1493758   1496945   1503067   1511402   1520557  
  9410.000000   1528868   1534908   1537859   1537672   1534939  
  9400.000000   1530661   1525894   1521535   1518126   1515847  
  9390.000000   1514545   1513868   1513388   1512707   1511599  
  9380.000000   1510004   1508142   1506376   1505199   1505008  
  9370.000000   1505997   1508065   1510846   1513863   1516664  
  9360.000000   1518962   1520661   1521825   1522566   1522973  
  9350.000000   1523034   1522690   1521855   1520529   1518796  
  9340.000000   1516820   1514789   1512838   1511069   1509517  
  9330.000000   1508275   1507434   1507156   1507515   1508501  
  9320.000000   1509911   1511417   1512615   1513161   1512865  
  9310.000000   1511723   1509891   1507562   1504907   1501985  
  9300.000000   1498816   1495401   1491848   1488350   1485182  
  9290.000000   1482589   1480693   1479450   1478652   1478046  
  9280.000000   1477440   1476843   1476457   1476600   1477535  
  9270.000000   1479336   1481825   1484579   1487084   1488834  
  9260.000000   1489553   1489185   1487944   1486141   1484099  
  9250.000000   1482017   1479958   1477917   1475905   1474060  
  9240.000000   1472631   1471950   1472277   1473721   1476114  
  9230.000000   1479027   1481857   1484007   1485079   1484954  
  9220.000000   1483805   1482000   1479997   1478213   1476937  
  9210.000000   1476300   1476307   1476891   1477941   1479288  
  9200.000000   1480668   1481752   1482177   1481671   1480114  
  9190.000000   1477652   1474683   1471796   1469602   1468533  
  9180.000000   1468717   1469950   1471768   1473585   1474844  
  9170.000000   1475174   1474481   1472913   1470797   1468511  
  9160.000000   1466431   1464839   1463887   1463576   1463764  
  9150.000000   1464244   1464789   1465281   1465707   1466199  
  9140.000000   1466931   1468047   1469549   1471198   1472566  
  9130.000000   1473101   1472385   1470236   1466844   1462700  
  9120.000000   1458481   1454869   1452337   1451103   1451078  
  9110.000000   1452040   1453705   1455843   1458254   1460760  
  9100.000000   1463169   1465206   1466566   1466937   1466171  
  9090.000000   1464297   1461581   1458425   1455312   1452712  
  9080.000000   1450991   1450392   1450959   1452613   1455095  
  9070.000000   1458024   1460873   1463106   1464290   1464190  
  9060.000000   1462838   1460507   1457683   1454867   1452454  
  9050.000000   1450617   1449337   1448469   1447820   1447283  
  9040.000000   1446831   1446569   1446603   1447012   1447759  
  9030.000000   1448709   1449668   1450397   1450696   1450386  
  9020.000000   1449374   1447624   1445202   1442297   1439257  
  9010.000000   1436528   1434573   1433741   1434169   1435699  
  9000.000000   1437891   1440146   1441867   1442643   1442332  
  8990.000000   1441125   1439466   1437925   1437019   1437076  
  8980.000000   1438174   1440113   1442493   1444777   1446444  
  8970.000000   1447075   1446455   1444606   1441794   1438466  
  8960.000000   1435167   1432407   1430556   1429794   1430087  
  8950.000000   1431240   1432927   1434827   1436672   1438311  
  8940.000000   1439687   1440798   1441679   1442310   1442640  
  8930.000000   1442548   1441949   1440788   1439131   1437173  
  8920.000000   1435242   1433733   1432985   1433211   1434404  
  8910.000000   1436350   1438650   1440857   1442582   1443609  
  8900.000000   1443909   1443629   1443016   1442323   1441752  
  8890.000000   1441399   1441299   1441415   1441686   1442008  
  8880.000000   1442230   1442185   1441697   1440692   1439228  
  8870.000000   1437563   1436091   1435256   1435393   1436587  
  8860.000000   1438597   1440903   1442857   1443893   1443728  
  8850.000000   1442425   1440393   1438212   1436470   1435545  
  8840.000000   1435519   1436175   1437116   1437930   1438323  
  8830.000000   1438227   1437787   1437327   1437203   1437712  
  8820.000000   1438960   1440836   1443021   1445061   1446508  
  8810.000000   1447022   1446498   1445069   1443069   1440925  
  8800.000000   1439012   1437571   1436650   1436161   1435950  
  8790.000000   1435906   1435999   1436282   1436805   1437554  
  8780.000000   1438389   1439069   1439344   1439041   1438191  
  8770.000000   1436983   1435745   1434766   1434219   1434073  
  8760.000000   1434153   1434227   1434155   1433968   1433882  
  8750.000000   1434206   1435201   1436958   1439334   1442001  
  8740.000000   1444554   1446648   1448127   1449034   1449601  
  8730.000000   1450104   1450783   1451727   1452876   1454046  
  8720.000000   1455016   1455626   1455826   1455724   1455533  
  8710.000000   1455537   1455976   1456997   1458578   1460534  
  8700.000000   1462553   1464274   1465391   1465734   1465303  
  8690.000000   1464280   1462952   1461661   1460693   1460253  
  8680.000000   1460429   1461202   1462472   1464053   1465704  
  8670.000000   1467122   1468014   1468117   1467317   1465665  
  8660.000000   1463443   1461094   1459152   1458109   1458283  
  8650.000000   1459761   1462374   1465803   1469648   1473549  
  8640.000000   1477205   1480415   1483046   1484997   1486200  
  8630.000000   1486612   1486302   1485422   1484234   1483026  
  8620.000000   1482059   1481494   1481331   1481464   1481702  
  8610.000000   1481898   1481967   1481961   1481999   1482243  
  8600.000000   1482793   1483659   1484746   1485879   1486875  
  8590.000000   1487580   1487947   1487998   1487850   1487615  
  8580.000000   1487412   1487288   1487243   1487229   1487199  
  8570.000000   1487153   1487150   1487335   1487879   1488958  
  8560.000000   1490662   1492974   1495743   1498702   1501528  
  8550.000000   1503903   1505595   1506488   1506613   1506119  
  8540.000000   1505254   1504302   1503552   1503224   1503438  
  8530.000000   1504179   1505291   1506515   1507540   1508120  
  8520.000000   1508141   1507704   1507088   1506688   1506873  
  8510.000000   1507855   1509601   1511824   1514088   1515937  
  8500.000000   1517072   1517429   1517206   1516762   1516481  
  8490.000000   1516631   1517278   1518298   1519447   1520488  
  8480.000000   1521286   1521862   1522354   1522971   1523872  
  8470.000000   1525121   1526633   1528214   1529630   1530658  
  8460.000000   1531152   1531062   1530447   1529445   1528237  
  8450.000000   1527025   1525990   1525288   1525012   1525190  
  8440.000000   1525782   1526686   1527755   1528819   1529721  
  8430.000000   1530336   1530595   1530490   1530080   1529495  
  8420.000000   1528929   1528602   1528716   1529410   1530713  
  8410.000000   1532527   1534601   1536615   1538228   1539189  
  8400.000000   1539380   1538863   1537852   1536651   1535553  
  8390.000000   1534757   1534316   1534138   1534021   1533748  
  8380.000000   1533157   1532216   1531018   1529762   1528663  
  8370.000000   1527903   1527548   1527555   1527785   1528073  
  8360.000000   1528281   1528352   1528306   1528218   1528161  
  8350.000000   1528168   1528199   1528153   1527916   1527388  
  8340.000000   1526543   1525417   1524115   1522757   1521449  
  8330.000000   1520262   1519224   1518356   1517675   1517224  
  8320.000000   1517052   1517203   1517670   1518389   1519221  
  8310.000000   1519991   1520536   1520743   1520584   1520109  
  8300.000000   1519429   1518671   1517929   1517255   1516635  
  8290.000000   1516037   1515422   1514785   1514153   1513582  
  8280.000000   1513108   1512730   1512376   1511919   1511210  
  8270.000000   1510121   1508615   1506748   1504690   1502662  
  8260.000000   1500881   1499498   1498559   1498018   1497759  
  8250.000000   1497678   1497707   1497861   1498196   1498772  
  8240.000000   1499583   1500518   1501385   1501931   1501948  
  8230.000000   1501296   1499991   1498156   1496014   1493800  
  8220.000000   1491716   1489908   1488448   1487386   1486741  
  8210.000000   1486553   1486825   1487536   1488578   1489770  
  8200.000000   1490865   1491601   1491768   1491238   1490006  
  8190.000000   1488162   1485883   1483386   1480895   1478626  
  8180.000000   1476745   1475377   1474550   1474228   1474269  
  8170.000000   1474480   1474625   1474500   1473962   1472964  
  8160.000000   1471555   1469838   1467947   1465990   1464046  
  8150.000000   1462156   1460358   1458692   1457218   1455996  
  8140.000000   1455055   1454374   1453866   1453410   1452880  
  8130.000000   1452195   1451344   1450381   1449400   1448486  
  8120.000000   1447685   1446986   1446341   1445690   1444996  
  8110.000000   1444254   1443476   1442678   1441839   1440914  
  8100.000000   1439842   1438584   1437158   1435634   1434130  
  8090.000000   1432733   1431471   1430265   1428971   1427440  
  8080.000000   1425606   1423553   1421515   1419819   1418772  
  8070.000000   1418558   1419156   1420346   1421788   1423118  
  8060.000000   1424080   1424555   1424584   1424279   1423758  
  8050.000000   1423080   1422242   1421225   1420061   1418881  
  8040.000000   1417901   1417373   1417460   1418177   1419323  
  8030.000000   1420549   1421433   1421634   1420986   1419540  
  8020.000000   1417534   1415288   1413110   1411198   1409618  
  8010.000000   1408328   1407233   1406253   1405356   1404572  
  8000.000000   1403954   1403558   1403398   1403444   1403623  
  7990.000000   1403836   1403989   1403991   1403795   1403374  
  7980.000000   1402753   1401988   1401175   1400422   1399829  
  7970.000000   1399456   1399306   1399315   1399379   1399378  
  7960.000000   1399215   1398836   1398247   1397492   1396643  
  7950.000000   1395776   1394955   1394230   1393640   1393211  
  7940.000000   1392955   1392868   1392922   1393068   1393251  
  7930.000000   1393411   1393505   1393501   1393385   1393138  
  7920.000000   1392751   1392211   1391536   1390779   1390037  
  7910.000000   1389441   1389120   1389170   1389609   1390380  
  7900.000000   1391350   1392355   1393241   1393888   1394232  
  7890.000000   1394249   1393952   1393367   1392548   1391568  
  7880.000000   1390538   1389594   1388872   1388475   1388431  
  7870.000000   1388682   1389090   1389489   1389725   1389719  
  7860.000000   1389477   1389081   1388651   1388296   1388084  
  7850.000000   1388024   1388083   1388200   1388323   1388409  
  7840.000000   1388431   1388371   1388218   1387966   1387623  
  7830.000000   1387221   1386805   1386434   1386154   1385990  
  7820.000000   1385925   1385919   1385917   1385870   1385745  
  7810.000000   1385530   1385225   1384823   1384313   1383678  
  7800.000000   1382912   1382029   1381082   1380148   1379321  
  7790.000000   1378682   1378273   1378100   1378115   1378254  
  7780.000000   1378435   1378603   1378726   1378806   1378865  
  7770.000000   1378933   1379018   1379101   1379120   1378985  
  7760.000000   1378599   1377888   1376834   1375491   1373981  
  7750.000000   1372463   1371084   1369941   1369041   1368318  
  7740.000000   1367657   1366954   1366163   1365318   1364518  
  7730.000000   1363891   1363533   1363468   1363633   1363898  
  7720.000000   1364121   1364179   1364029   1363685   1363220  
  7710.000000   1362715   1362241   1361839   1361522   1361294  
  7700.000000   1361158   1361124   1361199   1361380   1361636  
  7690.000000   1361917   1362156   1362289   1362270   1362073  
  7680.000000   1361697   1361159   1360491   1359744   1358981  
  7670.000000   1358290   1357754   1357450   1357401   1357579  
  7660.000000   1357892   1358207   1358388   1358328   1357980  
  7650.000000   1357355   1356512   1355521   1354449   1353343  
  7640.000000   1352240   1351183   1350234   1349479   1349002  
  7630.000000   1348861   1349051   1349497   1350054   1350558  
  7620.000000   1350864   1350890   1350646   1350214   1349734  
  7610.000000   1349334   1349104   1349050   1349104   1349142  
  7600.000000   1349039   1348707   1348136   1347403   1346650  
  7590.000000   1346053   1345762   1345861   1346336   1347080  
  7580.000000   1347928   1348701   1349267   1349560   1349601  
  7570.000000   1349463   1349252   1349054   1348922   1348864  
  7560.000000   1348866   1348907   1348982   1349107   1349303  
  7550.000000   1349589   1349951   1350348   1350717   1350994  
  7540.000000   1351140   1351148   1351056   1350920   1350807  
  7530.000000   1350760   1350798   1350912   1351077   1351272  
  7520.000000   1351497   1351779   1352169   1352726   1353493  
  7510.000000   1354478   1355637   1356878   1358083   1359129  
  7500.000000   1359927   1360442   1360712   1360828   1360912  
  7490.000000   1361072   1361381   1361850   1362439   1363068  
  7480.000000   1363660   1364164   1364576   1364932   1365308  
  7470.000000   1365781   1366426   1367283   1368365   1369646  
  7460.000000   1371080   1372593   1374112   1375563   1376902  
  7450.000000   1378116   1379233   1380312   1381426   1382632  
  7440.000000   1383943   1385320   1386681   1387922   1388961  
  7430.000000   1389763   1390361   1390844   1391321   1391894  
  7420.000000   1392615   1393480   1394444   1395444   1396434  
  7410.000000   1397407   1398392   1399440   1400595   1401869  
  7400.000000   1403231   1404618   1405961   1407205   1408342  
  7390.000000   1409399   1410440   1411531   1412719   1414014  
  7380.000000   1415383   1416768   1418105   1419349   1420486  
  7370.000000   1421537   1422541   1423540   1424559   1425602  
  7360.000000   1426649   1427672   1428652   1429584   1430489  
  7350.000000   1431394   1432326   1433290   1434269   1435224  
  7340.000000   1436119   1436937   1437696   1438452   1439279  
  7330.000000   1440250   1441410   1442760   1444250   1445803  
  7320.000000   1447333   1448766   1450060   1451198   1452192  
  7310.000000   1453059   1453824   1454502   1455116   1455693  
  7300.000000   1456268   1456889   1457605   1458462   1459484  
  7290.000000   1460674   1462009   1463448   1464936   1466420  
  7280.000000   1467850   1469194   1470436   1471576   1472638  
  7270.000000   1473654   1474667   1475707   1476795   1477926  
  7260.000000   1479080   1480214   1481284   1482249   1483089  
  7250.000000   1483806   1484439   1485048   1485720   1486543  
  7240.000000   1487598   1488923   1490519   1492321   1494240  
  7230.000000   1496154   1497971   1499624   1501119   1502505  
  7220.000000   1503888   1505373   1507065   1509016   1511250  
  7210.000000   1513726   1516386   1519135   1521889   1524568  
  7200.000000   1527129   1529557   1531885   1534167   1536494  
  7190.000000   1538944   1541591   1544456   1547526   1550734  
  7180.000000   1553999   1557238   1560405   1563487   1566523  
  7170.000000   1569561   1572662   1575854   1579148   1582514  
  7160.000000   1585920   1589316   1592681   1595995   1599274  
  7150.000000   1602534   1605819   1609167   1612635   1616258  
  7140.000000   1620072   1624072   1628245   1632544   1636940  
  7130.000000   1641397   1645920   1650516   1655219   1660038  
  7120.000000   1664981   1670016   1675116   1680239   1685380  
  7110.000000   1690538   1695744   1701010   1706347   1711719  
  7100.000000   1717093   1722411   1727655   1732822   1737953  
  7090.000000   1743096   1748299   1753591   1758982   1764469  
  7080.000000   1770056   1775754   1781586   1787562   1793664  
  7070.000000   1799818   1805917   1811827   1817441   1822702  
  7060.000000   1827637   1832343   1836970   1841673   1846577  
  7050.000000   1851748   1857179   1862805   1868522   1874218  
  7040.000000   1879795   1885193   1890391   1895415   1900318  
  7030.000000   1905178   1910063   1915030   1920100   1925267  
  7020.000000   1930491   1935722   1940905   1945996   1950958  
  7010.000000   1955769   1960407   1964864   1969136   1973243  
  7000.000000   1977219   1981126   1985025   1988983   1993027  
  6990.000000   1997175   2001391   2005635   2009837   2013944  
  6980.000000   2017890   2021633   2025126   2028355   2031318  
  6970.000000   2034054   2036619   2039097   2041553   2044032  
  6960.000000   2046530   2049012   2051413   2053689   2055817  
  6950.000000   2057834   2059796   2061785   2063849   2066013  
  6940.000000   2068252   2070527   2072788   2075011   2077181  
  6930.000000   2079307   2081386   2083409   2085347   2087169  
  6920.000000   2088850   2090393   2091813   2093143   2094404  
  6910.000000   2095607   2096738   2097791   2098759   2099675  
  6900.000000   2100584   2101554   2102628   2103826   2105115  
  6890.000000   2106432   2107694   2108826   2109775   2110526  
  6880.000000   2111090   2111501   2111804   2112052   2112302  
  6870.000000   2112618   2113062   2113687   2114519   2115560  
  6860.000000   2116765   2118074   2119402   2120677   2121837  
  6850.000000   2122853   2123717   2124444   2125063   2125608  
  6840.000000   2126116   2126613   2127108   2127594   2128041  
  6830.000000   2128415   2128680   2128826   2128863   2128837  
  6820.000000   2128804   2128832   2128961   2129215   2129580  
  6810.000000   2130027   2130510   2130985   2131404   2131725  
  6800.000000   2131908   2131924   2131760   2131428   2130968  
  6790.000000   2130446   2129928   2129473   2129105   2128822  
  6780.000000   2128590   2128377   2128155   2127922   2127688  
  6770.000000   2127473   2127283   2127107   2126922   2126699  
  6760.000000   2126427   2126111   2125780   2125465   2125192  
  6750.000000   2124966   2124772   2124587   2124393   2124192  
  6740.000000   2124001   2123845   2123747   2123706   2123702  
  6730.000000   2123691   2123624   2123461   2123176   2122767  
  6720.000000   2122253   2121676   2121086   2120552   2120132  
  6710.000000   2119881   2119814   2119913   2120108   2120301  
  6700.000000   2120382   2120264   2119901   2119303   2118523  
  6690.000000   2117636   2116709   2115789   2114889   2114011  
  6680.000000   2113145   2112299   2111487   2110731   2110035  
  6670.000000   2109388   2108747   2108063   2107288   2106395  
  6660.000000   2105381   2104267   2103080   2101849   2100590  
  6650.000000   2099317   2098044   2096794   2095591   2094465  
  6640.000000   2093423   2092456   2091525   2090586   2089585  
  6630.000000   2088492   2087293   2086001   2084640   2083240  
  6620.000000   2081828   2080429   2079059   2077735   2076460  
  6610.000000   2075229   2074010   2072759   2071417   2069938  
  6600.000000   2068298   2066514   2064637   2062738   2060887  
  6590.000000   2059128   2057471   2055893   2054352   2052813  
  6580.000000   2051253   2049674   2048096   2046538   2045013  
  6570.000000   2043514   2042021   2040512   2038971   2037404  
  6560.000000   2035835   2034306   2032861   2031535   2030340  
  6550.000000   2029260   2028252   2027252   2026190   2025007  
  6540.000000   2023668   2022171   2020550   2018865   2017190  
  6530.000000   2015589   2014108   2012760   2011526   2010367  
  6520.000000   2009235   2008088   2006897   2005657   2004380  
  6510.000000   2003093   2001826   2000606   1999442   1998331  
  6500.000000   1997249   1996161   1995034   1993843   1992579  
  6490.000000   1991258   1989907   1988559   1987235   1985941  
  6480.000000   1984666   1983386   1982081   1980744   1979379  
  6470.000000   1978009   1976654   1975332   1974045   1972786  
  6460.000000   1971543   1970304   1969067   1967831   1966598  
  6450.000000   1965363   1964121   1962863   1961596   1960332  
  6440.000000   1959105   1957943   1956872   1955888   1954970  
  6430.000000   1954075   1953168   1952223   1951254   1950294  
  6420.000000   1949398   1948611   1947964   1947457   1947071  
  6410.000000   1946772   1946530   1946316   1946112   1945897  
  6400.000000   1945653   1945357   1944998   1944574   1944108  
  6390.000000   1943631   1943182   1942787   1942454   1942168  
  6380.000000   1941903   1941631   1941332   1941004   1940653  
  6370.000000   1940288   1939908   1939503   1939052   1938543  
  6360.000000   1937972   1937354   1936716   1936090   1935493  
  6350.000000   1934937   1934415   1933921   1933446   1932989  
  6340.000000   1932549   1932121   1931685   1931213   1930666  
  6330.000000   1930011   1929226   1928314   1927291   1926194  
  6320.000000   1925058   1923921   1922807   1921741   1920730  
  6310.000000   1919779   1918875   1917993   1917092   1916130  
  6300.000000   1915067   1913885   1912589   1911215   1909811  
  6290.000000   1908431   1907113   1905881   1904735   1903664  
  6280.000000   1902642   1901643   1900631   1899573   1898432  
  6270.000000   1897180   1895800   1894302   1892717   1891097  
  6260.000000   1889496   1887957   1886494   1885098   1883734  
  6250.000000   1882363   1880951   1879486   1877971   1876429  
  6240.000000   1874881   1873350   1871845   1870370   1868918  
  6230.000000   1867478   1866038   1864581   1863098   1861585  
  6220.000000   1860048   1858508   1856991   1855522   1854113  
  6210.000000   1852759   1851438   1850119   1848777   1847402  
  6200.000000   1846009   1844628   1843295   1842032   1840844  
  6190.000000   1839715   1838616   1837523   1836421   1835309  
  6180.000000   1834193   1833078   1831964   1830840   1829699  
  6170.000000   1828537   1827364   1826203   1825076   1823998  
  6160.000000   1822967   1821965   1820965   1819945   1818894  
  6150.000000   1817815   1816723   1815632   1814548   1813469  
  6140.000000   1812387   1811294   1810191   1809083   1807979  
  6130.000000   1806877   1805767   1804631   1803455   1802236  
  6120.000000   1800999   1799782   1798638   1797603   1796697  
  6110.000000   1795907   1795203   1794542   1793896   1793247  
  6100.000000   1792598   1791959   1791339   1790738   1790151  
  6090.000000   1789564   1788977   1788391   1787829   1787306  
  6080.000000   1786845   1786449   1786120   1785844   1785619  
  6070.000000   1785433   1785294   1785199   1785161   1785175  
  6060.000000   1785250   1785380   1785576   1785834   1786168  
  6050.000000   1786570   1787051   1787600   1788230   1788942  
  6040.000000   1789762   1790702   1791781   1792995   1794340  
  6030.000000   1795787   1797323   1798925   1800597   1802335  
  6020.000000   1804146   1806009   1807908   1809797   1811653  
  6010.000000   1813455   1815232   1817020   1818887   1820877  
  6000.000000   1823026   1825319   1827732   1830210   1832726  
  5990.000000   1835261   1837840   1840489   1843258   1846166  
  5980.000000   1849227   1852416   1855712   1859075   1862490  
  5970.000000   1865936   1869424   1872953   1876543   1880196  
  5960.000000   1883925   1887719   1891581   1895488   1899431  
  5950.000000   1903391   1907364   1911354   1915382   1919476  
  5940.000000   1923667   1927974   1932395   1936910   1941478  
  5930.000000   1946053   1950587   1955047   1959405   1963650  
  5920.000000   1967764   1971740   1975560   1979217   1982701  
  5910.000000   1986017   1989169   1992177   1995049   1997809  
  5900.000000   2000468   2003058   2005600   2008130   2010663  
  5890.000000   2013213   2015765   2018304   2020799   2023237  
  5880.000000   2025611   2027939   2030239   2032530   2034815  
  5870.000000   2037082   2039308   2041469   2043556   2045574  
  5860.000000   2047545   2049496   2051450   2053421   2055420  
  5850.000000   2057452   2059530   2061672   2063898   2066218  
  5840.000000   2068627   2071102   2073609   2076117   2078607  
  5830.000000   2081079   2083553   2086047   2088579   2091146  
  5820.000000   2093734   2096319   2098886   2101428   2103950  
  5810.000000   2106465   2108975   2111481   2113962   2116412  
  5800.000000   2118809   2121174   2123509   2125854   2128204  
  5790.000000   2130568   2132891   2135125   2137164   2138919  
  5780.000000   2140262   2141095   2141312   2140862   2139722  
  5770.000000   2137958   2135678   2133060   2130282   2127527  
  5760.000000   2124906   2122498   2120293   2118274   2116387  
  5750.000000   2114613   2112930   2111348   2109865   2108482  
  5740.000000   2107186   2105955   2104777   2103635   2102531  
  5730.000000   2101458   2100416   2099383   2098349   2097296  
  5720.000000   2096231   2095169   2094142   2093175   2092282  
  5710.000000   2091456   2090677   2089916   2089159   2088403  
  5700.000000   2087663   2086957   2086293   2085667   2085060  
  5690.000000   2084453   2083833   2083213   2082608   2082049  
  5680.000000   2081538   2081067   2080585   2080037   2079350  
  5670.000000   2078469   2077347   2075958   2074281   2072315  
  5660.000000   2070059   2067544   2064819   2061965   2059074  
  5650.000000   2056242   2053537   2051003   2048637   2046420  
  5640.000000   2044313   2042288   2040327   2038426   2036593  
  5630.000000   2034829   2033143   2031530   2029996   2028534  
  5620.000000   2027147   2025821   2024545   2023291   2022042  
  5610.000000   2020784   2019527   2018291   2017116   2016027  
  5600.000000   2015042   2014150   2013325   2012530   2011737  
  5590.000000   2010929   2010109   2009287   2008473   2007669  
  5580.000000   2006870   2006063   2005241   2004402   2003553  
  5570.000000   2002699   2001842   2000975   2000086   1999170  
  5560.000000   1998228   1997273   1996323   1995392   1994475  
  5550.000000   1993553   1992592   1991563   1990455   1989280  
  5540.000000   1988075   1986884   1985746   1984678   1983672  
  5530.000000   1982706   1981751   1980787   1979803   1978803  
  5520.000000   1977793   1976784   1975781   1974791   1973821  
  5510.000000   1972881   1971972   1971091   1970215   1969314  
  5500.000000   1968348   1967291   1966132   1964890   1963593  
  5490.000000   1962278   1960959   1959631   1958268   1956841  
  5480.000000   1955327   1953727   1952061   1950367   1948674  
  5470.000000   1947006   1945364   1943745   1942140   1940548  
  5460.000000   1938970   1937410   1935865   1934319   1932753  
  5450.000000   1931150   1929506   1927835   1926165   1924522  
  5440.000000   1922925   1921375   1919863   1918372   1916904  
  5430.000000   1915463   1914071   1912735   1911458   1910213  
  5420.000000   1908982   1907741   1906506   1905306   1904209  
  5410.000000   1903263   1902506   1901923   1901487   1901140  
  5400.000000   1900860   1900626   1900475   1900432   1900549  
  5390.000000   1900830   1901288   1901891   1902642   1903527  
  5380.000000   1904577   1905799   1907225   1908827   1910596  
  5370.000000   1912471   1914439   1916461   1918574   1920786  
  5360.000000   1923173   1925750   1928590   1931692   1935118  
  5350.000000   1938859   1942979   1947458   1952347   1957598  
  5340.000000   1963244   1969229   1975606   1982343   1989526  
  5330.000000   1997131   2005239   2013804   2022885   2032421  
  5320.000000   2042489   2053058   2064246   2076041   2088568  
  5310.000000   2101792   2115803   2130530   2146041   2162268  
  5300.000000   2179293   2197073   2215711   2235175   2255553  
  5290.000000   2276782   2298887   2321733   2345269   2369321  
  5280.000000   2393841   2418729   2444042   2469805   2496151  
  5270.000000   2523120   2550753   2578943   2607545   2636347  
  5260.000000   2665172   2693916   2722549   2751122   2779664  
  5250.000000   2808188   2836581   2864707   2892325   2919300  
  5240.000000   2945476   2970900   2995584   3019705   3043308  
  5230.000000   3066524   3089283   3111578   3133219   3154150  
  5220.000000   3174204   3193423   3211774   3229424   3246418  
  5210.000000   3262927   3278919   3294438   3309315   3323506  
  5200.000000   3336841   3349361   3361028   3372003   3382307  
  5190.000000   3392083   3401276   3409929   3417917   3425266  
  5180.000000   3431897   3437901   3443257   3448072   3452298  
  5170.000000   3455985   3459049   3461530   3463380   3464696  
  5160.000000   3465482   3465852   3465793   3465370   3464528  
  5150.000000   3463308   3461662   3459652   3457262   3454560  
  5140.000000   3451524   3448202   3444566   3440663   3436490  
  5130.000000   3432110   3427531   3422803   3417905   3412850  
  5120.000000   3407603   3402181   3396583   3390864   3385056  
  5110.000000   3379219   3373372   3367539   3361709   3355886  
  5100.000000   3350057   3344230   3338399   3332566   3326716  
  5090.000000   3320841   3314925   3308979   3303012   3297060  
  5080.000000   3291141   3285276   3279455   3273663   3267864  
  5070.000000   3262039   3256165   3250244   3244272   3238256  
  5060.000000   3232181   3226037   3219800   3213464   3207021  
  5050.000000   3200493   3193891   3187244   3180556   3173834  
  5040.000000   3167071   3160269   3153428   3146565   3139692  
  5030.000000   3132828   3125977   3119140   3112310   3105480  
  5020.000000   3098656   3091843   3085061   3078321   3071643  
  5010.000000   3065026   3058483   3052012   3045637   3039371  
  5000.000000   3033251   3027290   3021520   3015934   3010546  
  4990.000000   3005334   3000309   2995453   2990787   2986298  
  4980.000000   2982011   2977909   2974019   2970323   2966863  
  4970.000000   2963633   2960683   2958008   2955650   2953579  
  4960.000000   2951819   2950329   2949133   2948200   2947571  
  4950.000000   2947228   2947216   2947507   2948135   2949060  
  4940.000000   2950317   2951875   2953782   2956019   2958633  
  4930.000000   2961592   2964925   2968579   2972576   2976871  
  4920.000000   2981500   2986441   2991740   2997377   3003387  
  4910.000000   3009734   3016428   3023425   3030722   3038277  
  4900.000000   3046075   3054072   3062238   3070523   3078884  
  4890.000000   3087272   3095637   3103940   3112123   3120155  
  4880.000000   3127971   3135546   3142816   3149765   3156328  
  4870.000000   3162492   3168183   3173385   3178022   3182095  
  4860.000000   3185554   3188440   3190744   3192541   3193844  
  4850.000000   3194737   3195233   3195406   3195268   3194890  
  4840.000000   3194289   3193535   3192652   3191701   3190702  
  4830.000000   3189704   3188721   3187786   3186909   3186109  
  4820.000000   3185387   3184750   3184199   3183736   3183370  
  4810.000000   3183105   3182952   3182910   3182981   3183144  
  4800.000000   3183390   3183693   3184048   3184446   3184900  
  4790.000000   3185420   3186029   3186737   3187559   3188489  
  4780.000000   3189526   3190649   3191843   3193081   3194339  
  4770.000000   3195590   3196817   3198007   3199162   3200294  
  4760.000000   3201422   3202565   3203738   3204940   3206157  
  4750.000000   3207367   3208542   3209659   3210700   3211661  
  4740.000000   3212545   3213366   3214136   3214873   3215589  
  4730.000000   3216295   3216999   3217699   3218392   3219066  
  4720.000000   3219711   3220316   3220884   3221418   3221944  
  4710.000000   3222478   3223058   3223701   3224442   3225299  
  4700.000000   3226307   3227486   3228876   3230495   3232369  
  4690.000000   3234496   3236873   3239469   3242261   3245203  
  4680.000000   3248268   3251408   3254596   3257782   3260941  
  4670.000000   3264028   3267036   3269952   3272806   3275626  
  4660.000000   3278469   3281376   3284396   3287551   3290863  
  4650.000000   3294333   3297961   3301738   3305652   3309688  
  4640.000000   3313821   3318028   3322277   3326545   3330803  
  4630.000000   3335036   3339216   3343328   3347332   3351200  
  4620.000000   3354878   3358332   3361507   3364385   3366929  
  4610.000000   3369145   3371015   3372571   3373811   3374785  
  4600.000000   3375507   3376039   3376399   3376648   3376789  
  4590.000000   3376858   3376831   3376709   3376444   3376024  
  4580.000000   3375400   3374571   3373513   3372251   3370791  
  4570.000000   3369178   3367432   3365596   3363684   3361719  
  4560.000000   3359696   3357619   3355471   3353253   3350955  
  4550.000000   3348588   3346158   3343692   3341205   3338725  
  4540.000000   3336269   3333851   3331481   3329157   3326874  
  4530.000000   3324616   3322376   3320131   3317887   3315635  
  4520.000000   3313403   3311201   3309081   3307059   3305197  
  4510.000000   3303506   3302055   3300847   3299950   3299358  
  4500.000000   3299136   3299261   3299793   3300703   3302067  
  4490.000000   3303878   3306244   3309181   3312810   3317129  
  4480.000000   3322226   3328049   3334638   3341912   3349899  
  4470.000000   3358523   3367824   3377733   3388275   3399364  
  4460.000000   3410997   3423072   3435578   3448433   3461643  
  4450.000000   3475152   3488966   3503031   3517328   3531791  
  4440.000000   3546376   3561022   3575684   3590319   3604879  
  4430.000000   3619333   3633622   3647719   3661561   3675137  
  4420.000000   3688389   3701321   3713873   3726044   3737749  
  4410.000000   3748966   3759594   3769611   3778944   3787617  
  4400.000000   3795617   3803029   3809898   3816343   3822429  
  4390.000000   3828278   3833950   3839552   3845123   3850734  
  4380.000000   3856391   3862126   3867916   3873776   3879691  
  4370.000000   3885692   3891787   3898009   3904357   3910829  
  4360.000000   3917375   3923951   3930470   3936894   3943129  
  4350.000000   3949173   3954943   3960478   3965719   3970758  
  4340.000000   3975575   3980275   3984797   3989091   3992859  
  4330.000000   3995738   3997161   3996612   3993623   3988024  
  4320.000000   3979938   3969868   3958545   3946847   3935566  
  4310.000000   3925335   3916485   3909122   3903125   3898296  
  4300.000000   3894408   3891288   3888831   3886961   3885662  
  4290.000000   3884868   3884572   3884696   3885249   3886189  
  4280.000000   3887546   3889303   3891465   3893995   3896841  
  4270.000000   3899945   3903218   3906566   3909830   3912808  
  4260.000000   3915210   3916717   3916999   3915812   3913034  
  4250.000000   3908745   3903182   3896751   3889891   3883067  
  4240.000000   3876616   3870794   3865669   3861235   3857364  
  4230.000000   3853917   3850726   3847654   3844593   3841469  
  4220.000000   3838267   3834991   3831722   3828530   3825555  
  4210.000000   3822886   3820648   3818877   3817621   3816836  
  4200.000000   3816489   3816486   3816767   3817239   3817869  
  4190.000000   3818593   3819417   3820305   3821293   3822356  
  4180.000000   3823542   3824837   3826301   3827933   3829808  
  4170.000000   3831944   3834423   3837261   3840528   3844217  
  4160.000000   3848367   3852941   3857956   3863355   3869149  
  4150.000000   3875280   3881762   3888538   3895632   3902998  
  4140.000000   3910672   3918623   3926905   3935493   3944436  
  4130.000000   3953700   3963316   3973236   3983486   3994028  
  4120.000000   4004905   4016109   4027708   4039722   4052229  
  4110.000000   4065248   4078832   4092963   4107629   4122741  
  4100.000000   4138216   4153921   4169753   4185609   4201442  
  4090.000000   4217227   4232978   4248718   4264464   4280229  
  4080.000000   4295991   4311746   4327446   4343091   4358620  
  4070.000000   4374023   4389205   4404127   4418659   4432758  
  4060.000000   4446306   4459296   4471647   4483395   4494486  
  4050.000000   4504985   4514857   4524194   4532973   4541282  
  4040.000000   4549070   4556383   4563125   4569321   4574885  
  4030.000000   4579880   4584269   4588147   4591493   4594370  
  4020.000000   4596706   4598542   4599852   4600700   4601060  
  4010.000000   4601053   4600745   4600145   4599063   4597509  
  4000.000000   4595711  
##END= 
