##TITLE= Sample 003 By ssteindl date Montag, November 19 2018
##JCAMP-DX= 4.24
##DATA TYPE= INFRARED SPECTRUM
##ORIGIN= Exported PE Spectrum Data File
##OWNER= Sandra Steindl
##DATE= 18/11/19
##TIME= 17:17:43.00
##SPECTROMETER/DATA SYSTEM= PERKIN-ELMER Frontier FT-IR/NIR IR
##INSTRUMENT PARAMETERS=
  APODIZATION=stark
  DETECTOR=INGAAS
##RESOLUTION= 16.000000
##DELTAX= -2.000000
##XUNITS= 1/CM
##YUNITS= A
##XFACTOR= 1.00
##YFACTOR= 0.00000011920928955078
##FIRSTX= 10000.00
##LASTX= 4000.00
##NPOINTS= 3001
##FIRSTY= 0.187617
##MAXY= 0.571319
##MINY= 0.166070
##XYDATA= (X++(Y..Y))
 10000.000000   1573842   1572627   1571383   1569756   1567217  
  9990.000000   1563214   1557653   1550984   1544228   1538703  
  9980.000000   1535706   1536088   1539967   1546744   1555308  
  9970.000000   1564414   1572951   1580201   1585842   1589934  
  9960.000000   1592740   1594629   1595966   1597064   1598137  
  9950.000000   1599232   1600190   1600628   1600029   1597904  
  9940.000000   1593956   1588246   1581173   1573418   1565701  
  9930.000000   1558651   1552645   1547878   1544363   1542129  
  9920.000000   1541180   1541558   1543224   1546009   1549619  
  9910.000000   1553613   1557560   1560992   1563532   1564792  
  9900.000000   1564500   1562499   1558955   1554426   1549897  
  9890.000000   1546611   1545677   1547718   1552475   1558857  
  9880.000000   1565159   1569653   1571137   1569309   1564814  
  9870.000000   1558890   1552880   1547712   1543697   1540574  
  9860.000000   1537856   1535200   1532631   1530579   1529575  
  9850.000000   1530027   1531873   1534656   1537634   1540102  
  9840.000000   1541656   1542198   1541956   1541145   1539931  
  9830.000000   1538257   1535996   1533076   1529626   1526054  
  9820.000000   1522939   1520912   1520414   1521625   1524342  
  9810.000000   1528099   1532192   1535845   1538319   1539026  
  9800.000000   1537707   1534449   1529790   1524514   1519522  
  9790.000000   1515488   1512733   1511121   1510227   1509562  
  9780.000000   1508833   1508085   1507658   1508017   1509473  
  9770.000000   1512030   1515308   1518715   1521649   1523758  
  9760.000000   1525045   1525842   1526647   1527880   1529743  
  9750.000000   1532099   1534572   1536608   1537667   1537270  
  9740.000000   1535118   1531155   1525632   1519199   1512778  
  9730.000000   1507512   1504378   1504024   1506443   1511028  
  9720.000000   1516664   1522076   1526179   1528312   1528344  
  9710.000000   1526519   1523281   1519035   1514123   1508837  
  9700.000000   1503602   1498999   1495734   1494409   1495254  
  9690.000000   1497974   1501738   1505452   1508068   1508948  
  9680.000000   1508027   1505758   1502943   1500370   1498639  
  9670.000000   1497965   1498282   1499315   1500770   1502393  
  9660.000000   1504009   1505490   1506715   1507615   1508155  
  9650.000000   1508439   1508637   1508983   1509633   1510635  
  9640.000000   1511873   1513158   1514247   1514970   1515193  
  9630.000000   1514850   1513869   1512164   1509652   1506291  
  9620.000000   1502170   1497493   1492564   1487675   1483030  
  9610.000000   1478724   1474773   1471237   1468274   1466193  
  9600.000000   1465331   1465932   1467963   1471053   1474562  
  9590.000000   1477744   1480024   1481109   1481103   1480320  
  9580.000000   1479182   1477961   1476789   1475627   1474427  
  9570.000000   1473217   1472123   1471359   1471053   1471265  
  9560.000000   1471852   1472647   1473448   1474178   1474840  
  9550.000000   1475444   1475938   1476050   1475418   1473599  
  9540.000000   1470356   1465692   1459973   1453798   1447901  
  9530.000000   1442975   1439572   1438075   1438665   1441373  
  9520.000000   1445979   1452034   1458785   1465310   1470695  
  9510.000000   1474279   1475898   1475861   1474906   1473803  
  9500.000000   1473138   1473004   1473052   1472648   1471211  
  9490.000000   1468557   1465000   1461352   1458511   1457232  
  9480.000000   1457714   1459679   1462393   1465035   1466904  
  9470.000000   1467622   1467181   1465813   1463869   1461607  
  9460.000000   1459164   1456498   1453537   1450210   1446594  
  9450.000000   1442886   1439423   1436601   1434767   1434176  
  9440.000000   1434865   1436701   1439354   1442418   1445496  
  9430.000000   1448282   1450623   1452484   1453910   1454910  
  9420.000000   1455442   1455381   1454647   1453243   1451364  
  9410.000000   1449327   1447487   1446080   1445123   1444410  
  9400.000000   1443614   1442462   1440877   1439048   1437341  
  9390.000000   1436165   1435770   1436177   1437184   1438505  
  9380.000000   1439920   1441369   1442945   1444768   1446862  
  9370.000000   1449029   1450910   1452084   1452295   1451533  
  9360.000000   1450072   1448345   1446773   1445639   1445006  
  9350.000000   1444808   1444922   1445307   1445987   1447027  
  9340.000000   1448395   1449910   1451211   1451888   1451625  
  9330.000000   1450363   1448360   1446095   1444109   1442804  
  9320.000000   1442329   1442544   1443090   1443545   1443562  
  9310.000000   1442985   1441874   1440440   1438986   1437798  
  9300.000000   1437088   1436930   1437239   1437792   1438305  
  9290.000000   1438531   1438373   1437953   1437574   1437667  
  9280.000000   1438545   1440311   1442692   1445166   1447113  
  9270.000000   1448061   1447878   1446783   1445248   1443699  
  9260.000000   1442293   1440811   1438767   1435665   1431294  
  9250.000000   1425940   1420382   1415685   1412796   1412209  
  9240.000000   1413753   1416697   1420016   1422720   1424175  
  9230.000000   1424211   1423145   1421533   1419949   1418782  
  9220.000000   1418202   1418212   1418756   1419777   1421245  
  9210.000000   1423103   1425236   1427438   1429409   1430808  
  9200.000000   1431311   1430718   1429017   1426372   1423109  
  9190.000000   1419652   1416479   1414041   1412638   1412372  
  9180.000000   1413084   1414427   1415919   1417098   1417621  
  9170.000000   1417373   1416476   1415191   1413839   1412639  
  9160.000000   1411725   1411060   1410544   1410041   1409464  
  9150.000000   1408800   1408090   1407467   1407098   1407208  
  9140.000000   1407977   1409537   1411861   1414738   1417749  
  9130.000000   1420331   1421948   1422209   1421039   1418646  
  9120.000000   1415496   1412129   1409019   1406438   1404436  
  9110.000000   1402938   1401852   1401194   1401050   1401563  
  9100.000000   1402776   1404597   1406742   1408825   1410462  
  9090.000000   1411392   1411552   1411034   1410054   1408813  
  9080.000000   1407501   1406222   1405061   1404064   1403264  
  9070.000000   1402649   1402114   1401505   1400643   1399464  
  9060.000000   1398057   1396722   1395876   1395899   1396979  
  9050.000000   1398957   1401369   1403523   1404770   1404681  
  9040.000000   1403230   1400763   1397895   1395311   1393594  
  9030.000000   1393093   1393893   1395849   1398659   1401918  
  9020.000000   1405170   1407964   1409918   1410809   1410627  
  9010.000000   1409614   1408232   1407022   1406464   1406796  
  9000.000000   1407974   1409677   1411455   1412868   1413630  
  8990.000000   1413691   1413191   1412399   1411564   1410894  
  8980.000000   1410508   1410489   1410873   1411696   1412959  
  8970.000000   1414591   1416395   1418083   1419320   1419816  
  8960.000000   1419403   1418085   1416083   1413718   1411366  
  8950.000000   1409313   1407759   1406746   1406193   1405951  
  8940.000000   1405857   1405826   1405838   1406022   1406577  
  8930.000000   1407759   1409741   1412559   1416054   1419840  
  8920.000000   1423394   1426144   1427651   1427676   1426255  
  8910.000000   1423673   1420406   1416997   1413938   1411601  
  8900.000000   1410191   1409744   1410105   1410994   1412027  
  8890.000000   1412827   1413064   1412578   1411401   1409781  
  8880.000000   1408107   1406783   1406131   1406255   1407071  
  8870.000000   1408291   1409579   1410598   1411138   1411113  
  8860.000000   1410588   1409709   1408692   1407766   1407178  
  8850.000000   1407145   1407831   1409289   1411438   1414061  
  8840.000000   1416853   1419504   1421783   1423609   1425056  
  8830.000000   1426294   1427503   1428776   1430090   1431308  
  8820.000000   1432250   1432777   1432857   1432593   1432176  
  8810.000000   1431836   1431758   1432048   1432698   1433615  
  8800.000000   1434639   1435579   1436255   1436536   1436382  
  8790.000000   1435866   1435177   1434599   1434424   1434894  
  8780.000000   1436098   1437964   1440278   1442760   1445147  
  8770.000000   1447251   1448970   1450256   1451070   1451340  
  8760.000000   1450990   1449987   1448441   1446606   1444879  
  8750.000000   1443662   1443231   1443634   1444641   1445859  
  8740.000000   1446852   1447362   1447385   1447194   1447217  
  8730.000000   1447846   1449288   1451441   1453951   1456307  
  8720.000000   1458052   1458909   1458876   1458189   1457238  
  8710.000000   1456442   1456140   1456524   1457629   1459334  
  8700.000000   1461422   1463598   1465570   1467065   1467907  
  8690.000000   1468051   1467609   1466839   1466090   1465727  
  8680.000000   1466051   1467239   1469312   1472138   1475461  
  8670.000000   1478960   1482296   1485166   1487332   1488656  
  8660.000000   1489140   1488921   1488282   1487557   1487087  
  8650.000000   1487098   1487683   1488758   1490108   1491469  
  8640.000000   1492605   1493415   1493938   1494363   1494948  
  8630.000000   1495937   1497484   1499595   1502132   1504828  
  8620.000000   1507366   1509448   1510897   1511691   1511992  
  8610.000000   1512093   1512349   1513063   1514405   1516346  
  8600.000000   1518684   1521104   1523289   1525025   1526261  
  8590.000000   1527121   1527838   1528683   1529863   1531475  
  8580.000000   1533488   1535787   1538218   1540644   1542944  
  8570.000000   1545047   1546902   1548499   1549845   1550990  
  8560.000000   1552003   1552967   1553927   1554870   1555710  
  8550.000000   1556311   1556533   1556302   1555654   1554746  
  8540.000000   1553807   1553081   1552743   1552860   1553378  
  8530.000000   1554177   1555127   1556145   1557207   1558327  
  8520.000000   1559522   1560771   1562022   1563200   1564258  
  8510.000000   1565190   1566047   1566890   1567761   1568641  
  8500.000000   1569461   1570135   1570616   1570945   1571246  
  8490.000000   1571686   1572401   1573417   1574644   1575869  
  8480.000000   1576870   1577478   1577689   1577635   1577552  
  8470.000000   1577684   1578202   1579165   1580518   1582180  
  8460.000000   1584107   1586332   1588938   1591986   1595433  
  8450.000000   1599070   1602525   1605356   1607193   1607865  
  8440.000000   1607484   1606416   1605184   1604303   1604117  
  8430.000000   1604724   1605948   1607457   1608866   1609888  
  8420.000000   1610397   1610449   1610212   1609886   1609602  
  8410.000000   1609407   1609264   1609108   1608909   1608710  
  8400.000000   1608640   1608866   1609521   1610647   1612144  
  8390.000000   1613810   1615371   1616578   1617277   1617460  
  8380.000000   1617265   1616925   1616686   1616726   1617096  
  8370.000000   1617715   1618377   1618848   1618923   1618518  
  8360.000000   1617662   1616524   1615327   1614302   1613590  
  8350.000000   1613211   1613063   1612943   1612624   1611906  
  8340.000000   1610703   1609069   1607184   1605324   1603760  
  8330.000000   1602731   1602365   1602685   1603595   1604930  
  8320.000000   1606491   1608080   1609518   1610627   1611244  
  8310.000000   1611207   1610423   1608854   1606609   1603903  
  8300.000000   1601082   1598527   1596575   1595439   1595137  
  8290.000000   1595541   1596391   1597435   1598461   1599395  
  8280.000000   1600249   1601102   1601988   1602859   1603564  
  8270.000000   1603890   1603644   1602719   1601153   1599112  
  8260.000000   1596845   1594595   1592526   1590696   1589052  
  8250.000000   1587494   1585915   1584269   1582564   1580884  
  8240.000000   1579316   1577954   1576853   1576041   1575521  
  8230.000000   1575272   1575249   1575360   1575473   1575415  
  8220.000000   1575027   1574190   1572885   1571199   1569321  
  8210.000000   1567482   1565880   1564628   1563707   1563009  
  8200.000000   1562370   1561658   1560801   1559821   1558797  
  8190.000000   1557823   1556949   1556149   1555329   1554367  
  8180.000000   1553168   1551704   1550031   1548271   1546568  
  8170.000000   1545049   1543783   1542781   1541997   1541355  
  8160.000000   1540767   1540142   1539393   1538431   1537178  
  8150.000000   1535584   1533659   1531486   1529238   1527126  
  8140.000000   1525355   1524050   1523216   1522732   1522389  
  8130.000000   1521969   1521324   1520427   1519379   1518356  
  8120.000000   1517536   1517014   1516765   1516649   1516482  
  8110.000000   1516107   1515476   1514657   1513807   1513105  
  8100.000000   1512665   1512494   1512480   1512435   1512174  
  8090.000000   1511575   1510634   1509440   1508147   1506904  
  8080.000000   1505810   1504894   1504128   1503453   1502818  
  8070.000000   1502197   1501594   1501039   1500562   1500193  
  8060.000000   1499945   1499820   1499801   1499846   1499897  
  8050.000000   1499862   1499655   1499191   1498438   1497411  
  8040.000000   1496184   1494864   1493568   1492394   1491409  
  8030.000000   1490660   1490177   1489992   1490117   1490545  
  8020.000000   1491194   1491927   1492541   1492835   1492662  
  8010.000000   1491988   1490912   1489626   1488355   1487259  
  8000.000000   1486388   1485665   1484935   1484037   1482888  
  7990.000000   1481518   1480062   1478708   1477613   1476858  
  7980.000000   1476412   1476168   1475987   1475757   1475431  
  7970.000000   1475017   1474573   1474146   1473771   1473437  
  7960.000000   1473125   1472795   1472427   1472002   1471517  
  7950.000000   1470972   1470382   1469786   1469261   1468914  
  7940.000000   1468865   1469201   1469941   1471005   1472227  
  7930.000000   1473385   1474275   1474759   1474811   1474512  
  7920.000000   1474020   1473513   1473135   1472970   1473032  
  7910.000000   1473291   1473689   1474177   1474707   1475247  
  7900.000000   1475751   1476173   1476456   1476547   1476419  
  7890.000000   1476065   1475513   1474806   1474002   1473155  
  7880.000000   1472316   1471535   1470864   1470362   1470084  
  7870.000000   1470076   1470351   1470884   1471606   1472411  
  7860.000000   1473183   1473809   1474223   1474408   1474410  
  7850.000000   1474321   1474256   1474319   1474572   1475029  
  7840.000000   1475645   1476349   1477052   1477688   1478205  
  7830.000000   1478578   1478786   1478804   1478604   1478159  
  7820.000000   1477471   1476577   1475564   1474547   1473644  
  7810.000000   1472942   1472470   1472208   1472091   1472066  
  7800.000000   1472095   1472195   1472403   1472765   1473287  
  7790.000000   1473931   1474601   1475179   1475553   1475645  
  7780.000000   1475431   1474928   1474186   1473258   1472202  
  7770.000000   1471068   1469909   1468781   1467734   1466812  
  7760.000000   1466023   1465361   1464792   1464299   1463882  
  7750.000000   1463576   1463431   1463479   1463710   1464036  
  7740.000000   1464319   1464384   1464099   1463399   1462339  
  7730.000000   1461058   1459762   1458656   1457895   1457562  
  7720.000000   1457652   1458109   1458834   1459720   1460654  
  7710.000000   1461521   1462207   1462601   1462622   1462233  
  7700.000000   1461467   1460414   1459227   1458063   1457070  
  7690.000000   1456335   1455875   1455646   1455557   1455514  
  7680.000000   1455439   1455304   1455126   1454957   1454867  
  7670.000000   1454904   1455089   1455390   1455741   1456046  
  7660.000000   1456226   1456230   1456070   1455808   1455548  
  7650.000000   1455398   1455434   1455682   1456107   1456625  
  7640.000000   1457135   1457534   1457756   1457764   1457566  
  7630.000000   1457196   1456713   1456191   1455710   1455352  
  7620.000000   1455184   1455249   1455547   1456033   1456625  
  7610.000000   1457220   1457719   1458049   1458183   1458129  
  7600.000000   1457930   1457634   1457292   1456947   1456636  
  7590.000000   1456391   1456247   1456225   1456334   1456559  
  7580.000000   1456860   1457185   1457480   1457711   1457871  
  7570.000000   1457984   1458099   1458266   1458529   1458907  
  7560.000000   1459400   1459982   1460618   1461255   1461843  
  7550.000000   1462328   1462670   1462849   1462886   1462831  
  7540.000000   1462773   1462805   1463014   1463448   1464110  
  7530.000000   1464957   1465913   1466898   1467848   1468727  
  7520.000000   1469535   1470292   1471029   1471775   1472552  
  7510.000000   1473370   1474229   1475122   1476036   1476954  
  7500.000000   1477858   1478730   1479566   1480370   1481159  
  7490.000000   1481945   1482735   1483508   1484231   1484865  
  7480.000000   1485396   1485843   1486288   1486838   1487616  
  7470.000000   1488704   1490116   1491779   1493559   1495298  
  7460.000000   1496877   1498250   1499476   1500678   1502010  
  7450.000000   1503577   1505402   1507401   1509421   1511280  
  7440.000000   1512852   1514099   1515102   1516015   1517023  
  7430.000000   1518271   1519821   1521636   1523599   1525563  
  7420.000000   1527402   1529051   1530519   1531869   1533191  
  7410.000000   1534566   1536043   1537639   1539347   1541147  
  7400.000000   1543027   1544966   1546946   1548923   1550834  
  7390.000000   1552610   1554192   1555558   1556731   1557787  
  7380.000000   1558830   1559971   1561290   1562828   1564574  
  7370.000000   1566488   1568504   1570558   1572587   1574536  
  7360.000000   1576353   1577994   1579431   1580656   1581696  
  7350.000000   1582610   1583481   1584396   1585424   1586595  
  7340.000000   1587902   1589304   1590750   1592197   1593619  
  7330.000000   1595014   1596392   1597771   1599167   1600595  
  7320.000000   1602071   1603618   1605264   1607034   1608932  
  7310.000000   1610935   1612982   1614989   1616864   1618538  
  7300.000000   1619987   1621234   1622349   1623417   1624513  
  7290.000000   1625672   1626880   1628077   1629184   1630139  
  7280.000000   1630917   1631556   1632138   1632778   1633573  
  7270.000000   1634585   1635814   1637204   1638665   1640093  
  7260.000000   1641421   1642611   1643682   1644670   1645633  
  7250.000000   1646614   1647654   1648767   1649980   1651307  
  7240.000000   1652782   1654421   1656242   1658231   1660363  
  7230.000000   1662585   1664859   1667139   1669409   1671650  
  7220.000000   1673870   1676066   1678259   1680467   1682739  
  7210.000000   1685125   1687686   1690454   1693432   1696570  
  7200.000000   1699791   1703003   1706147   1709204   1712217  
  7190.000000   1715252   1718385   1721645   1725014   1728408  
  7180.000000   1731727   1734877   1737827   1740598   1743274  
  7170.000000   1745948   1748711   1751605   1754635   1757771  
  7160.000000   1760984   1764253   1767594   1771031   1774605  
  7150.000000   1778330   1782212   1786215   1790304   1794420  
  7140.000000   1798533   1802608   1806653   1810673   1814712  
  7130.000000   1818803   1823008   1827360   1831897   1836617  
  7120.000000   1841514   1846544   1851681   1856889   1862162  
  7110.000000   1867491   1872880   1878310   1883765   1889210  
  7100.000000   1894638   1900049   1905487   1910992   1916602  
  7090.000000   1922310   1928068   1933794   1939413   1944883  
  7080.000000   1950231   1955539   1960921   1966466   1972200  
  7070.000000   1978063   1983933   1989668   1995165   2000393  
  7060.000000   2005405   2010307   2015218   2020228   2025371  
  7050.000000   2030634   2035972   2041341   2046710   2052074  
  7040.000000   2057430   2062778   2068098   2073370   2078567  
  7030.000000   2083682   2088714   2093672   2098560   2103366  
  7020.000000   2108065   2112635   2117062   2121366   2125581  
  7010.000000   2129759   2133933   2138127   2142327   2146521  
  7000.000000   2150691   2154848   2159005   2163191   2167400  
  6990.000000   2171608   2175741   2179725   2183484   2186989  
  6980.000000   2190243   2193301   2196224   2199081   2201908  
  6970.000000   2204729   2207540   2210341   2213116   2215858  
  6960.000000   2218534   2221115   2223549   2225811   2227885  
  6950.000000   2229812   2231650   2233489   2235397   2237422  
  6940.000000   2239558   2241774   2244006   2246198   2248295  
  6930.000000   2250262   2252064   2253675   2255072   2256255  
  6920.000000   2257250   2258131   2258996   2259969   2261143  
  6910.000000   2262579   2264267   2266151   2268128   2270092  
  6900.000000   2271942   2273609   2275051   2276258   2277243  
  6890.000000   2278043   2278714   2279323   2279942   2280630  
  6880.000000   2281418   2282309   2283272   2284268   2285254  
  6870.000000   2286210   2287129   2288026   2288910   2289787  
  6860.000000   2290646   2291475   2292266   2293022   2293758  
  6850.000000   2294489   2295215   2295918   2296556   2297091  
  6840.000000   2297498   2297796   2298037   2298307   2298688  
  6830.000000   2299238   2299965   2300835   2301777   2302715  
  6820.000000   2303579   2304327   2304938   2305410   2305747  
  6810.000000   2305965   2306082   2306135   2306171   2306249  
  6800.000000   2306414   2306701   2307100   2307575   2308055  
  6790.000000   2308466   2308736   2308824   2308717   2308439  
  6780.000000   2308037   2307575   2307116   2306708   2306380  
  6770.000000   2306128   2305929   2305745   2305541   2305303  
  6760.000000   2305043   2304804   2304645   2304623   2304773  
  6750.000000   2305096   2305564   2306119   2306703   2307258  
  6740.000000   2307746   2308141   2308431   2308606   2308669  
  6730.000000   2308626   2308504   2308341   2308189   2308099  
  6720.000000   2308107   2308223   2308429   2308683   2308932  
  6710.000000   2309132   2309250   2309274   2309208   2309068  
  6700.000000   2308873   2308652   2308429   2308236   2308094  
  6690.000000   2308025   2308023   2308076   2308143   2308182  
  6680.000000   2308142   2307984   2307678   2307210   2306575  
  6670.000000   2305781   2304843   2303791   2302665   2301518  
  6660.000000   2300399   2299355   2298411   2297578   2296841  
  6650.000000   2296184   2295583   2295028   2294506   2294013  
  6640.000000   2293533   2293045   2292515   2291910   2291204  
  6630.000000   2290387   2289468   2288470   2287421   2286345  
  6620.000000   2285253   2284147   2283014   2281848   2280635  
  6610.000000   2279380   2278084   2276763   2275431   2274106  
  6600.000000   2272795   2271505   2270226   2268945   2267639  
  6590.000000   2266288   2264879   2263418   2261920   2260418  
  6580.000000   2258946   2257538   2256213   2254978   2253822  
  6570.000000   2252726   2251658   2250581   2249454   2248240  
  6560.000000   2246910   2245453   2243880   2242227   2240545  
  6550.000000   2238890   2237302   2235802   2234387   2233037  
  6540.000000   2231729   2230442   2229170   2227905   2226642  
  6530.000000   2225362   2224041   2222656   2221207   2219721  
  6520.000000   2218256   2216882   2215661   2214618   2213733  
  6510.000000   2212944   2212169   2211334   2210399   2209363  
  6500.000000   2208262   2207144   2206046   2204986   2203949  
  6490.000000   2202910   2201836   2200711   2199532   2198313  
  6480.000000   2197069   2195821   2194578   2193348   2192134  
  6470.000000   2190938   2189757   2188588   2187419   2186236  
  6460.000000   2185026   2183786   2182518   2181236   2179956  
  6450.000000   2178690   2177447   2176228   2175039   2173884  
  6440.000000   2172781   2171740   2170770   2169861   2168990  
  6430.000000   2168126   2167246   2166341   2165433   2164553  
  6420.000000   2163742   2163023   2162402   2161857   2161361  
  6410.000000   2160885   2160425   2159982   2159573   2159206  
  6400.000000   2158880   2158577   2158282   2157989   2157715  
  6390.000000   2157492   2157358   2157339   2157431   2157601  
  6380.000000   2157796   2157961   2158057   2158071   2158016  
  6370.000000   2157915   2157783   2157625   2157431   2157185  
  6360.000000   2156877   2156514   2156107   2155677   2155227  
  6350.000000   2154759   2154255   2153710   2153124   2152520  
  6340.000000   2151926   2151376   2150881   2150433   2149998  
  6330.000000   2149536   2149011   2148409   2147735   2147015  
  6320.000000   2146276   2145543   2144819   2144097   2143359  
  6310.000000   2142586   2141763   2140890   2139967   2139012  
  6300.000000   2138038   2137070   2136126   2135222   2134354  
  6290.000000   2133511   2132657   2131756   2130770   2129680  
  6280.000000   2128484   2127204   2125868   2124510   2123150  
  6270.000000   2121797   2120451   2119114   2117792   2116498  
  6260.000000   2115244   2114035   2112857   2111681   2110467  
  6250.000000   2109182   2107807   2106344   2104817   2103254  
  6240.000000   2101686   2100134   2098610   2097121   2095673  
  6230.000000   2094274   2092932   2091648   2090414   2089214  
  6220.000000   2088029   2086840   2085640   2084433   2083231  
  6210.000000   2082048   2080894   2079770   2078675   2077603  
  6200.000000   2076551   2075516   2074494   2073476   2072453  
  6190.000000   2071413   2070355   2069287   2068230   2067208  
  6180.000000   2066240   2065325   2064448   2063581   2062704  
  6170.000000   2061812   2060923   2060072   2059292   2058595  
  6160.000000   2057963   2057349   2056692   2055941   2055073  
  6150.000000   2054097   2053050   2051978   2050918   2049886  
  6140.000000   2048880   2047888   2046904   2045934   2044995  
  6130.000000   2044101   2043259   2042459   2041679   2040893  
  6120.000000   2040089   2039272   2038467   2037702   2037005  
  6110.000000   2036382   2035829   2035328   2034864   2034425  
  6100.000000   2034014   2033633   2033286   2032966   2032661  
  6090.000000   2032353   2032034   2031699   2031364   2031043  
  6080.000000   2030760   2030526   2030354   2030250   2030229  
  6070.000000   2030299   2030478   2030766   2031162   2031634  
  6060.000000   2032153   2032673   2033170   2033625   2034051  
  6050.000000   2034464   2034906   2035407   2036013   2036750  
  6040.000000   2037657   2038749   2040046   2041537   2043205  
  6030.000000   2045003   2046893   2048824   2050774   2052725  
  6020.000000   2054693   2056682   2058717   2060793   2062915  
  6010.000000   2065064   2067242   2069442   2071687   2073988  
  6000.000000   2076379   2078869   2081478   2084198   2087030  
  5990.000000   2089953   2092963   2096039   2099186   2102400  
  5980.000000   2105710   2109135   2112717   2116477   2120433  
  5970.000000   2124563   2128835   2133182   2137557   2141910  
  5960.000000   2146240   2150556   2154904   2159311   2163805  
  5950.000000   2168373   2172995   2177626   2182238   2186816  
  5940.000000   2191368   2195922   2200509   2205164   2209901  
  5930.000000   2214732   2219644   2224621   2229619   2234588  
  5920.000000   2239452   2244133   2248557   2252676   2256474  
  5910.000000   2259982   2263248   2266339   2269306   2272193  
  5900.000000   2275013   2277789   2280537   2283303   2286121  
  5890.000000   2289039   2292060   2295168   2298295   2301372  
  5880.000000   2304321   2307100   2309698   2312138   2314454  
  5870.000000   2316682   2318838   2320924   2322932   2324858  
  5860.000000   2326709   2328504   2330269   2332033   2333816  
  5850.000000   2335641   2337524   2339489   2341554   2343736  
  5840.000000   2346032   2348421   2350866   2353320   2355749  
  5830.000000   2358132   2360473   2362786   2365092   2367398  
  5820.000000   2369702   2371988   2374247   2376482   2378710  
  5810.000000   2380962   2383261   2385626   2388038   2390482  
  5800.000000   2392911   2395314   2397666   2399988   2402270  
  5790.000000   2404529   2406718   2408802   2410680   2412271  
  5780.000000   2413458   2414161   2414295   2413833   2412760  
  5770.000000   2411134   2409034   2406602   2403972   2401304  
  5760.000000   2398701   2396254   2393983   2391899   2389971  
  5750.000000   2388189   2386529   2384991   2383559   2382223  
  5740.000000   2380953   2379719   2378494   2377255   2376003  
  5730.000000   2374742   2373487   2372243   2371017   2369801  
  5720.000000   2368593   2367391   2366204   2365042   2363919  
  5710.000000   2362842   2361813   2360827   2359877   2358957  
  5700.000000   2358060   2357178   2356299   2355410   2354492  
  5690.000000   2353542   2352557   2351558   2350563   2349598  
  5680.000000   2348663   2347753   2346827   2345845   2344749  
  5670.000000   2343496   2342042   2340361   2338430   2336246  
  5660.000000   2333819   2331185   2328401   2325545   2322694  
  5650.000000   2319916   2317246   2314693   2312236   2309850  
  5640.000000   2307513   2305223   2302997   2300856   2298820  
  5630.000000   2296887   2295048   2293272   2291542   2289841  
  5620.000000   2288178   2286560   2285007   2283520   2282098  
  5610.000000   2280725   2279394   2278096   2276839   2275630  
  5600.000000   2274482   2273395   2272365   2271380   2270432  
  5590.000000   2269515   2268632   2267787   2266981   2266209  
  5580.000000   2265454   2264698   2263922   2263114   2262270  
  5570.000000   2261391   2260478   2259533   2258554   2257542  
  5560.000000   2256507   2255463   2254431   2253428   2252462  
  5550.000000   2251527   2250605   2249674   2248716   2247724  
  5540.000000   2246700   2245656   2244604   2243556   2242516  
  5530.000000   2241488   2240477   2239490   2238532   2237602  
  5520.000000   2236692   2235783   2234853   2233883   2232863  
  5510.000000   2231799   2230702   2229588   2228462   2227324  
  5500.000000   2226163   2224975   2223758   2222526   2221294  
  5490.000000   2220075   2218865   2217647   2216386   2215056  
  5480.000000   2213634   2212127   2210553   2208945   2207330  
  5470.000000   2205725   2204127   2202524   2200899   2199242  
  5460.000000   2197548   2195821   2194066   2192288   2190492  
  5450.000000   2188688   2186897   2185145   2183464   2181877  
  5440.000000   2180395   2179010   2177703   2176446   2175220  
  5430.000000   2174005   2172795   2171578   2170350   2169098  
  5420.000000   2167830   2166556   2165323   2164173   2163162  
  5410.000000   2162307   2161607   2161017   2160495   2159993  
  5400.000000   2159510   2159061   2158704   2158483   2158447  
  5390.000000   2158591   2158909   2159352   2159908   2160553  
  5380.000000   2161314   2162198   2163240   2164427   2165768  
  5370.000000   2167221   2168795   2170464   2172265   2174195  
  5360.000000   2176307   2178594   2181110   2183846   2186869  
  5350.000000   2190187   2193878   2197937   2202418   2207275  
  5340.000000   2212530   2218124   2224102   2230432   2237190  
  5330.000000   2244348   2251967   2259983   2268433   2277249  
  5320.000000   2286501   2296172   2306392   2317173   2328650  
  5310.000000   2340802   2353711   2367302   2381627   2396611  
  5300.000000   2412329   2428745   2445969   2463987   2482904  
  5290.000000   2502672   2523323   2544723   2566810   2589396  
  5280.000000   2612420   2635772   2659510   2683672   2708411  
  5270.000000   2733790   2759867   2786543   2813662   2840988  
  5260.000000   2868319   2895519   2922551   2949462   2976303  
  5250.000000   3003112   3029808   3056279   3082305   3107756  
  5240.000000   3132479   3156506   3179843   3202647   3224954  
  5230.000000   3246881   3268358   3289378   3309771   3329494  
  5220.000000   3348405   3366552   3383904   3400611   3416700  
  5210.000000   3432319   3447429   3462071   3476092   3489462  
  5200.000000   3502025   3513822   3524803   3535115   3544770  
  5190.000000   3553908   3562490   3570572   3578054   3584960  
  5180.000000   3591204   3596850   3601854   3606297   3610133  
  5170.000000   3613423   3616111   3618267   3619868   3621013  
  5160.000000   3621702   3622023   3621941   3621496   3620625  
  5150.000000   3619360   3617667   3615615   3613205   3610515  
  5140.000000   3607535   3604314   3600821   3597091   3593106  
  5130.000000   3588912   3584509   3579943   3575209   3570340  
  5120.000000   3565332   3560221   3555021   3549778   3544503  
  5110.000000   3539218   3533906   3528559   3523153   3517694  
  5100.000000   3512192   3506690   3501225   3495836   3490535  
  5090.000000   3485324   3480182   3475092   3470035   3465005  
  5080.000000   3459996   3455007   3450027   3445050   3440062  
  5070.000000   3435065   3430056   3425048   3420037   3415021  
  5060.000000   3409968   3404846   3399606   3394222   3388668  
  5050.000000   3382951   3377082   3371089   3364986   3358796  
  5040.000000   3352525   3346193   3339808   3333393   3326960  
  5030.000000   3320525   3314087   3307647   3301200   3294750  
  5020.000000   3288313   3281914   3275587   3269358   3263249  
  5010.000000   3257259   3251384   3245604   3239913   3234299  
  5000.000000   3228778   3223352   3218053   3212883   3207871  
  4990.000000   3203008   3198319   3193792   3189452   3185289  
  4980.000000   3181332   3177569   3174031   3170704   3167624  
  4970.000000   3164773   3162185   3159835   3157754   3155911  
  4960.000000   3154341   3153024   3152009   3151284   3150903  
  4950.000000   3150845   3151144   3151755   3152698   3153927  
  4940.000000   3155477   3157324   3159533   3162093   3165065  
  4930.000000   3168421   3172194   3176333   3180857   3185719  
  4920.000000   3190952   3196523   3202475   3208781   3215470  
  4910.000000   3222509   3229914   3237648   3245719   3254091  
  4900.000000   3262755   3271667   3280793   3290078   3299466  
  4890.000000   3308901   3318312   3327645   3336820   3345787  
  4880.000000   3354460   3362806   3370750   3378283   3385338  
  4870.000000   3391913   3397933   3403397   3408225   3412431  
  4860.000000   3415964   3418874   3421143   3422848   3423984  
  4850.000000   3424627   3424774   3424497   3423808   3422795  
  4840.000000   3421491   3419995   3418346   3416624   3414857  
  4830.000000   3413098   3411362   3409683   3408073   3406550  
  4820.000000   3405121   3403790   3402562   3401438   3400430  
  4810.000000   3399544   3398805   3398214   3397786   3397509  
  4800.000000   3397381   3397380   3397505   3397744   3398109  
  4790.000000   3398595   3399212   3399943   3400778   3401685  
  4780.000000   3402648   3403639   3404652   3405677   3406716  
  4770.000000   3407763   3408815   3409861   3410897   3411917  
  4760.000000   3412927   3413932   3414943   3415967   3417008  
  4750.000000   3418064   3419129   3420196   3421260   3422313  
  4740.000000   3423350   3424366   3425353   3426307   3427229  
  4730.000000   3428120   3428992   3429853   3430717   3431586  
  4720.000000   3432468   3433357   3434262   3435181   3436134  
  4710.000000   3437130   3438201   3439358   3440638   3442051  
  4700.000000   3443637   3445412   3447418   3449669   3452197  
  4690.000000   3454999   3458081   3461415   3464983   3468740  
  4680.000000   3472659   3476680   3480769   3484856   3488900  
  4670.000000   3492840   3496661   3500344   3503928   3507451  
  4660.000000   3510990   3514604   3518362   3522300   3526447  
  4650.000000   3530802   3535360   3540101   3545008   3550059  
  4640.000000   3555233   3560511   3565867   3571282   3576726  
  4630.000000   3582175   3587584   3592918   3598116   3603131  
  4620.000000   3607895   3612368   3616493   3620258   3623634  
  4610.000000   3626643   3629285   3631613   3633647   3635453  
  4600.000000   3637051   3638500   3639800   3640989   3642041  
  4590.000000   3642970   3643733   3644330   3644712   3644875  
  4580.000000   3644777   3644420   3643783   3642890   3641745  
  4570.000000   3640395   3638866   3637212   3635454   3633629  
  4560.000000   3631742   3629811   3627833   3625823   3623784  
  4550.000000   3621738   3619693   3617665   3615650   3613652  
  4540.000000   3611658   3609664   3607668   3605671   3603683  
  4530.000000   3601708   3599757   3597820   3595900   3593976  
  4520.000000   3592058   3590134   3588237   3586373   3584601  
  4510.000000   3582937   3581456   3580171   3579163   3578440  
  4500.000000   3578086   3578103   3578574   3579495   3580953  
  4490.000000   3582938   3585543   3588762   3592690   3597312  
  4480.000000   3602708   3608838   3615755   3623387   3631762  
  4470.000000   3640788   3650475   3660724   3671538   3682821  
  4460.000000   3694576   3706721   3719262   3732129   3745325  
  4450.000000   3758778   3772477   3786358   3800403   3814572  
  4440.000000   3828863   3843263   3857768   3872364   3887006  
  4430.000000   3901646   3916186   3930558   3944649   3958413  
  4420.000000   3971767   3984712   3997199   4009250   4020814  
  4410.000000   4031895   4042414   4052357   4061645   4070286  
  4400.000000   4078249   4085599   4092371   4098679   4104592  
  4390.000000   4110242   4115704   4121102   4126500   4131999  
  4380.000000   4137635   4143467   4149488   4155711   4162096  
  4370.000000   4168629   4175262   4181975   4188718   4195464  
  4360.000000   4202153   4208753   4215194   4221464   4227488  
  4350.000000   4233281   4238760   4243962   4248811   4253374  
  4340.000000   4257604   4261583   4265239   4268539   4271220  
  4330.000000   4272982   4273329   4271810   4268003   4261752  
  4320.000000   4253160   4242694   4231038   4219035   4207459  
  4310.000000   4196945   4187846   4180289   4174173   4169301  
  4300.000000   4165439   4162387   4160019   4158232   4156996  
  4290.000000   4156237   4155948   4156057   4156580   4157475  
  4280.000000   4158777   4160464   4162532   4164936   4167615  
  4270.000000   4170503   4173511   4176551   4179473   4182090  
  4260.000000   4184126   4185276   4185214   4183699   4180606  
  4250.000000   4176015   4170161   4163454   4156340   4149290  
  4240.000000   4142645   4136656   4131383   4126802   4122764  
  4230.000000   4119116   4115676   4112315   4108935   4105489  
  4220.000000   4101990   4098462   4094996   4091649   4088530  
  4210.000000   4085681   4083175   4081008   4079201   4077709  
  4200.000000   4076525   4075597   4074919   4074452   4074203  
  4190.000000   4074137   4074272   4074572   4075058   4075689  
  4180.000000   4076485   4077407   4078478   4079670   4081030  
  4170.000000   4082557   4084327   4086362   4088746   4091492  
  4160.000000   4094659   4098225   4102217   4106586   4111349  
  4150.000000   4116460   4121946   4127770   4133968   4140503  
  4140.000000   4147413   4154653   4162254   4170163   4178407  
  4130.000000   4186931   4195764   4204864   4214282   4224010  
  4120.000000   4234130   4244661   4255690   4267235   4279356  
  4110.000000   4292038   4305296   4319072   4333338   4348003  
  4100.000000   4363002   4378227   4393606   4409050   4424515  
  4090.000000   4439961   4455380   4470772   4486136   4501485  
  4080.000000   4516801   4532095   4547328   4562502   4577544  
  4070.000000   4592430   4607041   4621327   4635152   4648485  
  4060.000000   4661219   4673370   4684870   4695761   4705985  
  4050.000000   4715598   4724553   4732935   4740716   4747994  
  4040.000000   4754727   4760976   4766657   4771798   4776310  
  4030.000000   4780246   4783557   4786326   4788536   4790263  
  4020.000000   4791470   4792233   4792568   4792563   4792203  
  4010.000000   4791589   4790759   4789685   4788155   4786165  
  4000.000000   4783934  
##END= 
