##TITLE= Sample 005 By ssteindl date Montag, November 19 2018
##JCAMP-DX= 4.24
##DATA TYPE= INFRARED SPECTRUM
##ORIGIN= Exported PE Spectrum Data File
##OWNER= Sandra Steindl
##DATE= 18/11/19
##TIME= 15:45:25.00
##SPECTROMETER/DATA SYSTEM= PERKIN-ELMER Frontier FT-IR/NIR IR
##INSTRUMENT PARAMETERS=
  APODIZATION=stark
  DETECTOR=INGAAS
##RESOLUTION= 16.000000
##DELTAX= -2.000000
##XUNITS= 1/CM
##YUNITS= A
##XFACTOR= 1.00
##YFACTOR= 0.00000000023841857910
##FIRSTX= 10000.00
##LASTX= 4000.00
##NPOINTS= 3001
##FIRSTY= 0.001352
##MAXY= 0.407188
##MINY= -0.021013
##XYDATA= (X++(Y..Y))
 10000.000000   0005669481   0008601453   0010811032   0011584708   0011249698  
  9990.000000   0010657680   0010172509   0009613020   0008778250   0007614877  
  9980.000000   0005995775   0003826778   0001183233  -0001632126  -0004276166  
  9970.000000  -0006337114  -0007454454  -0007370598  -0006110876  -0003975330  
  9960.000000  -0001506654   0000627243   0001872506   0001904132   0000756192  
  9950.000000  -0001265234  -0003723175  -0006231483  -0008564494  -0010647119  
  9940.000000  -0012420234  -0013735213  -0014272927  -0013668059  -0011708997  
  9930.000000  -0008550383  -0004835386  -0001541747   0000283724  -0000039609  
  9920.000000  -0002540954  -0006495368  -0010643054  -0013622718  -0014475494  
  9910.000000  -0012986712  -0009757005  -0005949572  -0002854207  -0001447604  
  9900.000000  -0002106767  -0004596503  -0008260367  -0012326774  -0016175089  
  9890.000000  -0019465131  -0022107687  -0024163708  -0025683082  -0026675576  
  9880.000000  -0027088493  -0026903481  -0026199420  -0025152076  -0024020757  
  9870.000000  -0023015894  -0022255354  -0021712535  -0021244867  -0020693570  
  9860.000000  -0019915997  -0018887300  -0017653268  -0016349871  -0015134139  
  9850.000000  -0014172646  -0013617480  -0013581421  -0014127553  -0015215718  
  9840.000000  -0016698175  -0018303249  -0019697458  -0020569954  -0020735815  
  9830.000000  -0020226921  -0019292437  -0018357802  -0017873463  -0018184036  
  9820.000000  -0019390265  -0021314974  -0023556273  -0025595962  -0026973546  
  9810.000000  -0027368338  -0026699982  -0025076301  -0022763891  -0020069175  
  9800.000000  -0017284499  -0014637680  -0012318929  -0010502810  -0009384515  
  9790.000000  -0009158600  -0009963398  -0011823895  -0014575549  -0017896029  
  9780.000000  -0021325826  -0024404939  -0026776311  -0028290087  -0029052394  
  9770.000000  -0029356841  -0029595731  -0030084590  -0030965797  -0032151813  
  9760.000000  -0033373914  -0034299222  -0034648126  -0034306063  -0033338653  
  9750.000000  -0031971176  -0030488389  -0029149479  -0028096380  -0027335587  
  9740.000000  -0026745593  -0026151594  -0025390174  -0024389613  -0023194092  
  9730.000000  -0021975531  -0020983158  -0020494954  -0020728500  -0021769541  
  9720.000000  -0023523778  -0025698008  -0027886058  -0029643323  -0030652608  
  9710.000000  -0030790667  -0030182448  -0029141195  -0028057515  -0027280895  
  9700.000000  -0027018743  -0027312422  -0028075923  -0029166139  -0030453028  
  9690.000000  -0031837681  -0033215765  -0034436421  -0035271257  -0035467603  
  9680.000000  -0034847105  -0033414841  -0031424713  -0029334214  -0027668662  
  9670.000000  -0026847082  -0027013582  -0028010066  -0029425184  -0030791557  
  9660.000000  -0031757480  -0032227397  -0032349569  -0032403555  -0032614745  
  9650.000000  -0033010585  -0033393221  -0033422085  -0032824416  -0031529185  
  9640.000000  -0029778038  -0028011345  -0026718355  -0026214488  -0026519851  
  9630.000000  -0027374766  -0028357847  -0029099048  -0029418884  -0029405747  
  9620.000000  -0029331651  -0029526011  -0030199907  -0031377128  -0032884165  
  9610.000000  -0034449621  -0035821993  -0036838191  -0037469239  -0037740068  
  9600.000000  -0037704992  -0037355734  -0036662342  -0035578435  -0034135547  
  9590.000000  -0032447641  -0030731781  -0029234342  -0028181014  -0027711209  
  9580.000000  -0027862064  -0028594889  -0029828810  -0031502705  -0033562706  
  9570.000000  -0035974334  -0038643842  -0041427368  -0044108220  -0046471624  
  9560.000000  -0048377741  -0049802925  -0050878416  -0051788747  -0052708985  
  9550.000000  -0053668179  -0054503666  -0054893541  -0054455407  -0052949960  
  9540.000000  -0050404528  -0047206513  -0044003611  -0041551945  -0040438024  
  9530.000000  -0040908289  -0042717290  -0045217349  -0047527893  -0048840363  
  9520.000000  -0048703101  -0047156928  -0044733324  -0042207076  -0040332162  
  9510.000000  -0039551703  -0039901275  -0041027654  -0042398201  -0043506532  
  9500.000000  -0044098149  -0044227850  -0044220083  -0044497959  -0045381394  
  9490.000000  -0046954265  -0049022376  -0051212302  -0053128370  -0054492468  
  9480.000000  -0055235196  -0055464401  -0055411775  -0055332051  -0055440070  
  9470.000000  -0055861892  -0056612662  -0057598139  -0058635967  -0059498267  
  9460.000000  -0059964429  -0059894843  -0059261789  -0058214466  -0057015977  
  9450.000000  -0056040901  -0055609393  -0055935669  -0057001510  -0058592162  
  9440.000000  -0060343953  -0061873816  -0062884368  -0063216701  -0062850929  
  9430.000000  -0061841336  -0060274496  -0058224454  -0055782588  -0053075085  
  9420.000000  -0050312397  -0047773973  -0045771784  -0044554029  -0044227389  
  9410.000000  -0044708069  -0045754276  -0047046242  -0048292992  -0049309680  
  9400.000000  -0050036613  -0050510174  -0050806471  -0051002797  -0051183794  
  9390.000000  -0051452501  -0051968629  -0052897229  -0054376997  -0056397631  
  9380.000000  -0058776529  -0061122172  -0062948301  -0063790270  -0063391193  
  9370.000000  -0061802238  -0059397967  -0056769879  -0054534913  -0053181930  
  9360.000000  -0052936018  -0053773494  -0055455254  -0057665585  -0060088267  
  9350.000000  -0062476646  -0064641880  -0066423979  -0067677107  -0068269660  
  9340.000000  -0068148549  -0067354712  -0066072848  -0064575067  -0063189140  
  9330.000000  -0062200974  -0061793887  -0062031069  -0062845238  -0064113209  
  9320.000000  -0065668029  -0067361442  -0069051726  -0070604614  -0071887964  
  9310.000000  -0072770067  -0073159866  -0073019229  -0072400517  -0071429614  
  9300.000000  -0070304829  -0069257710  -0068521762  -0068295785  -0068691588  
  9290.000000  -0069726053  -0071283549  -0073151256  -0075031582  -0076614951  
  9280.000000  -0077647176  -0078002326  -0077718733  -0076980974  -0076045626  
  9270.000000  -0075160145  -0074484412  -0074077870  -0073915457  -0073950694  
  9260.000000  -0074151915  -0074528810  -0075087935  -0075809009  -0076569912  
  9250.000000  -0077166683  -0077333852  -0076867740  -0075714563  -0074021412  
  9240.000000  -0072109681  -0070360251  -0069104645  -0068496936  -0068481021  
  9230.000000  -0068802281  -0069118427  -0069125542  -0068670259  -0067771726  
  9220.000000  -0066600031  -0065398070  -0064430449  -0063896160  -0063909213  
  9210.000000  -0064468923  -0065492828  -0066823162  -0068263371  -0069614536  
  9200.000000  -0070725551  -0071541784  -0072126497  -0072641148  -0073296823  
  9190.000000  -0074261468  -0075593406  -0077169336  -0078712532  -0079871818  
  9180.000000  -0080352821  -0080025592  -0078973388  -0077493811  -0076004616  
  9170.000000  -0074928039  -0074538944  -0074910816  -0075886818  -0077155406  
  9160.000000  -0078330872  -0079076259  -0079200075  -0078699899  -0077756745  
  9150.000000  -0076658321  -0075705113  -0075114085  -0074957245  -0075156046  
  9140.000000  -0075529024  -0075876850  -0076075959  -0076143100  -0076220632  
  9130.000000  -0076518789  -0077189497  -0078260436  -0079586101  -0080882771  
  9120.000000  -0081830853  -0082185074  -0081891031  -0081077541  -0080000815  
  9110.000000  -0078934585  -0078065650  -0077451779  -0077029847  -0076697038  
  9100.000000  -0076402334  -0076182814  -0076152919  -0076407004  -0076944112  
  9090.000000  -0077623677  -0078194751  -0078388511  -0078030432  -0077158027  
  9080.000000  -0076035536  -0075072970  -0074672004  -0075098602  -0076402142  
  9070.000000  -0078394648  -0080712573  -0082926771  -0084678051  -0085718957  
  9060.000000  -0085952704  -0085400362  -0084208855  -0082595537  -0080830153  
  9050.000000  -0079202646  -0077987965  -0077405131  -0077541612  -0078355992  
  9040.000000  -0079661320  -0081224434  -0082802167  -0084239594  -0085462529  
  9030.000000  -0086474010  -0087290308  -0087875444  -0088134539  -0087930774  
  9020.000000  -0087176706  -0085874841  -0084161938  -0082294393  -0080588025  
  9010.000000  -0079327249  -0078667014  -0078619650  -0079062278  -0079795099  
  9000.000000  -0080582965  -0081217076  -0081543774  -0081476929  -0080991801  
  8990.000000  -0080141721  -0079059511  -0077952431  -0077064944  -0076622051  
  8980.000000  -0076782364  -0077560937  -0078835066  -0080338819  -0081755988  
  8970.000000  -0082777162  -0083183400  -0082879974  -0081911195  -0080446124  
  8960.000000  -0078750326  -0077141670  -0075948536  -0075458253  -0075855173  
  8950.000000  -0077161158  -0079189154  -0081580024  -0083869581  -0085614080  
  8940.000000  -0086507312  -0086478696  -0085716882  -0084580870  -0083471466  
  8930.000000  -0082688056  -0082353370  -0082395301  -0082609059  -0082780268  
  8920.000000  -0082782256  -0082639227  -0082474319  -0082457433  -0082687416  
  8910.000000  -0083157520  -0083722914  -0084174265  -0084304642  -0083992265  
  8900.000000  -0083233714  -0082139298  -0080891482  -0079691643  -0078704150  
  8890.000000  -0078033107  -0077700335  -0077659352  -0077795318  -0077948647  
  8880.000000  -0077937325  -0077603711  -0076858959  -0075720158  -0074313704  
  8870.000000  -0072847652  -0071553346  -0070609043  -0070091181  -0069944416  
  8860.000000  -0070025118  -0070145753  -0070160000  -0069995103  -0069672007  
  8850.000000  -0069265667  -0068864259  -0068526624  -0068272383  -0068089826  
  8840.000000  -0067968159  -0067916608  -0067978468  -0068206316  -0068633056  
  8830.000000  -0069240419  -0069948416  -0070636942  -0071176344  -0071470011  
  8820.000000  -0071477774  -0071218285  -0070759701  -0070186292  -0069581398  
  8810.000000  -0069004873  -0068489435  -0068045596  -0067660243  -0067318943  
  8800.000000  -0066994308  -0066673827  -0066341954  -0066014288  -0065715746  
  8790.000000  -0065497149  -0065394655  -0065421414  -0065537635  -0065655724  
  8780.000000  -0065656488  -0065418680  -0064862737  -0063971173  -0062806965  
  8770.000000  -0061485953  -0060146776  -0058905134  -0057825968  -0056922612  
  8760.000000  -0056162521  -0055506516  -0054918629  -0054399282  -0053967611  
  8750.000000  -0053662329  -0053504729  -0053490486  -0053574762  -0053679735  
  8740.000000  -0053711478  -0053571767  -0053190098  -0052527179  -0051602463  
  8730.000000  -0050474967  -0049248404  -0048032972  -0046937059  -0046028373  
  8720.000000  -0045331915  -0044817784  -0044422183  -0044070096  -0043698856  
  8710.000000  -0043288035  -0042853545  -0042459458  -0042181701  -0042097711  
  8700.000000  -0042251725  -0042644077  -0043231985  -0043923060  -0044604459  
  8690.000000  -0045138720  -0045403795  -0045291435  -0044743678  -0043760946  
  8680.000000  -0042419936  -0040866315  -0039291453  -0037902950  -0036879587  
  8670.000000  -0036340564  -0036309318  -0036714518  -0037395729  -0038151853  
  8660.000000  -0038776421  -0039111135  -0039066172  -0038641105  -0037915460  
  8650.000000  -0037028906  -0036146118  -0035416814  -0034943492  -0034760976  
  8640.000000  -0034830000  -0035055884  -0035302726  -0035437725  -0035345951  
  8630.000000  -0034973995  -0034319747  -0033439947  -0032411594  -0031320578  
  8620.000000  -0030231543  -0029184149  -0028183371  -0027217735  -0026262451  
  8610.000000  -0025307468  -0024344978  -0023386526  -0022438214  -0021509461  
  8600.000000  -0020601420  -0019704163  -0018806980  -0017886654  -0016929848  
  8590.000000  -0015909748  -0014803978  -0013589639  -0012264777  -0010860079  
  8580.000000  -0009447121  -0008147590  -0007112009  -0006487511  -0006365310  
  8570.000000  -0006746740  -0007524761  -0008489652  -0009373092  -0009905662  
  8560.000000  -0009900779  -0009285375  -0008132308  -0006618839  -0004991618  
  8550.000000  -0003482100  -0002255528  -0001379327  -0000826332  -0000509402  
  8540.000000  -0000311226  -0000138182   0000067479   0000311218   0000577792  
  8530.000000   0000844827   0001112793   0001414783   0001805705   0002350281  
  8520.000000   0003078244   0003985984   0005011510   0006057484   0007007810  
  8510.000000   0007762132   0008277127   0008557608   0008667810   0008688019  
  8500.000000   0008704415   0008767364   0008883866   0009030336   0009176673  
  8490.000000   0009324358   0009513625   0009837175   0010402961   0011303632  
  8480.000000   0012556116   0014088622   0015736214   0017281039   0018509877  
  8470.000000   0019270682   0019528618   0019359563   0018936534   0018459776  
  8460.000000   0018110040   0017992876   0018127599   0018456317   0018882224  
  8450.000000   0019313942   0019697187   0020035442   0020369965   0020767910  
  8440.000000   0021276890   0021920741   0022680107   0023509586   0024354850  
  8430.000000   0025169115   0025936357   0026658130   0027351822   0028020556  
  8420.000000   0028645975   0029185387   0029584334   0029801303   0029825914  
  8410.000000   0029703353   0029524275   0029410942   0029469095   0029769234  
  8400.000000   0030311898   0031036428   0031823226   0032541527   0033076322  
  8390.000000   0033364738   0033394130   0033205937   0032872533   0032483414  
  8380.000000   0032120182   0031847674   0031703388   0031697867   0031808684  
  8370.000000   0031986277   0032156323   0032245027   0032193289   0031984277  
  8360.000000   0031640664   0031230117   0030832891   0030523064   0030332811  
  8350.000000   0030251917   0030234256   0030226064   0030188749   0030113753  
  8340.000000   0030015073   0029913375   0029807242   0029663458   0029421042  
  8330.000000   0029018967   0028435018   0027702828   0026918316   0026202199  
  8320.000000   0025661581   0025345613   0025224968   0025208026   0025175411  
  8310.000000   0025039971   0024780158   0024448727   0024148451   0023982642  
  8300.000000   0024019604   0024251977   0024606158   0024959991   0025190396  
  8290.000000   0025211907   0024992486   0024565846   0024008541   0023440669  
  8280.000000   0022990671   0022780849   0022886392   0023316780   0023994150  
  8270.000000   0024756056   0025373905   0025604847   0025257706   0024265822  
  8260.000000   0022718089   0020848214   0018965869   0017375565   0016287126  
  8250.000000   0015765770   0015717401   0015939318   0016189347   0016271435  
  8240.000000   0016076874   0015601478   0014914847   0014123185   0013330428  
  8230.000000   0012610651   0012006516   0011524401   0011155310   0010873628  
  8220.000000   0010650931   0010452895   0010246886   0010013274   0009750726  
  8210.000000   0009483918   0009243612   0009053663   0008902999   0008747719  
  8200.000000   0008514727   0008138492   0007583826   0006877935   0006101394  
  8190.000000   0005369330   0004780996   0004378649   0004123234   0003900353  
  8180.000000   0003562163   0002974064   0002064439   0000843324  -0000602547  
  8170.000000  -0002134468  -0003603828  -0004875332  -0005858890  -0006506277  
  8160.000000  -0006820560  -0006842151  -0006648468  -0006343022  -0006046253  
  8150.000000  -0005877505  -0005934491  -0006272909  -0006895607  -0007756654  
  8140.000000  -0008771779  -0009845411  -0010882013  -0011810537  -0012584267  
  8130.000000  -0013190200  -0013646447  -0013998787  -0014320728  -0014696941  
  8120.000000  -0015212094  -0015920334  -0016825557  -0017868377  -0018937105  
  8110.000000  -0019901283  -0020652738  -0021145292  -0021405915  -0021525904  
  8100.000000  -0021619952  -0021785992  -0022068427  -0022451379  -0022877728  
  8090.000000  -0023287282  -0023648443  -0023978144  -0024317605  -0024717451  
  8080.000000  -0025188607  -0025710073  -0026223235  -0026675898  -0027045643  
  8070.000000  -0027354573  -0027660359  -0028013695  -0028429246  -0028852619  
  8060.000000  -0029179760  -0029287219  -0029096808  -0028614348  -0027948589  
  8050.000000  -0027283651  -0026817229  -0026704231  -0026998194  -0027657713  
  8040.000000  -0028560696  -0029566530  -0030557870  -0031469614  -0032288490  
  8030.000000  -0033020829  -0033667434  -0034195689  -0034551387  -0034677056  
  8020.000000  -0034553413  -0034217402  -0033770081  -0033350882  -0033099167  
  8010.000000  -0033116982  -0033434691  -0034013781  -0034752010  -0035522042  
  8000.000000  -0036196078  -0036678472  -0036917067  -0036911378  -0036704272  
  7990.000000  -0036375607  -0036022504  -0035746858  -0035632651  -0035732622  
  7980.000000  -0036055218  -0036562517  -0037178450  -0037803927  -0038340281  
  7970.000000  -0038705685  -0038853843  -0038772697  -0038490232  -0038058200  
  7960.000000  -0037551287  -0037050043  -0036635573  -0036379342  -0036331281  
  7950.000000  -0036520399  -0036940863  -0037566311  -0038340536  -0039200372  
  7940.000000  -0040070675  -0040882509  -0041571255  -0042083445  -0042383893  
  7930.000000  -0042453571  -0042305133  -0041971088  -0041513132  -0040999603  
  7920.000000  -0040499804  -0040064195  -0039716452  -0039457397  -0039267644  
  7910.000000  -0039133499  -0039045754  -0039021128  -0039077401  -0039239574  
  7900.000000  -0039506077  -0039858615  -0040251834  -0040634525  -0040963430  
  7890.000000  -0041211049  -0041376093  -0041461309  -0041473330  -0041394858  
  7880.000000  -0041196809  -0040836782  -0040290686  -0039566857  -0038724548  
  7870.000000  -0037868675  -0037127442  -0036626263  -0036444444  -0036605668  
  7860.000000  -0037058555  -0037706642  -0038425017  -0039102144  -0039659726  
  7850.000000  -0040064774  -0040324732  -0040466304  -0040519169  -0040494777  
  7840.000000  -0040391102  -0040192233  -0039894701  -0039510487  -0039081444  
  7830.000000  -0038664173  -0038315009  -0038069977  -0037926593  -0037850134  
  7820.000000  -0037782734  -0037673377  -0037498940  -0037277519  -0037063848  
  7810.000000  -0036927286  -0036924532  -0037075367  -0037354876  -0037702089  
  7800.000000  -0038047258  -0038335638  -0038551682  -0038713695  -0038864565  
  7790.000000  -0039039310  -0039251498  -0039477729  -0039676032  -0039798093  
  7780.000000  -0039820080  -0039747899  -0039619676  -0039488707  -0039402429  
  7770.000000  -0039392775  -0039466826  -0039621583  -0039848739  -0040147062  
  7760.000000  -0040517783  -0040954452  -0041433584  -0041904409  -0042302561  
  7750.000000  -0042560891  -0042640598  -0042540948  -0042308404  -0042019928  
  7740.000000  -0041761280  -0041604591  -0041590530  -0041731585  -0042015389  
  7730.000000  -0042422387  -0042927747  -0043504626  -0044113656  -0044699516  
  7720.000000  -0045192720  -0045523456  -0045645294  -0045551716  -0045289038  
  7710.000000  -0044942141  -0044615775  -0044400510  -0044350198  -0044470866  
  7700.000000  -0044724444  -0045051144  -0045387131  -0045688129  -0045930749  
  7690.000000  -0046115473  -0046251256  -0046351948  -0046425980  -0046480619  
  7680.000000  -0046523083  -0046563761  -0046617577  -0046697150  -0046810153  
  7670.000000  -0046953059  -0047109776  -0047256532  -0047362990  -0047404031  
  7660.000000  -0047362971  -0047239067  -0047051650  -0046834934  -0046636793  
  7650.000000  -0046501174  -0046458857  -0046512578  -0046633734  -0046770134  
  7640.000000  -0046862522  -0046870485  -0046792081  -0046673477  -0046596336  
  7630.000000  -0046652252  -0046901370  -0047349248  -0047929717  -0048531576  
  7620.000000  -0049027328  -0049324880  -0049392439  -0049271903  -0049055849  
  7610.000000  -0048850722  -0048731938  -0048713154  -0048742994  -0048724947  
  7600.000000  -0048559406  -0048179247  -0047575537  -0046801807  -0045953072  
  7590.000000  -0045146274  -0044479203  -0044022293  -0043796418  -0043787441  
  7580.000000  -0043949641  -0044223576  -0044546081  -0044856267  -0045100775  
  7570.000000  -0045235337  -0045229087  -0045069593  -0044766008  -0044350224  
  7560.000000  -0043873070  -0043396971  -0042984873  -0042689542  -0042537967  
  7550.000000  -0042526476  -0042611842  -0042724717  -0042778070  -0042694083  
  7540.000000  -0042417285  -0041932426  -0041263408  -0040470670  -0039633082  
  7530.000000  -0038832588  -0038133056  -0037573908  -0037161649  -0036881688  
  7520.000000  -0036697012  -0036566690  -0036442333  -0036283737  -0036056937  
  7510.000000  -0035743034  -0035340365  -0034859685  -0034325077  -0033756909  
  7500.000000  -0033172125  -0032570596  -0031943995  -0031281348  -0030583805  
  7490.000000  -0029876464  -0029205360  -0028636036  -0028224418  -0028005781  
  7480.000000  -0027965559  -0028050178  -0028169681  -0028231066  -0028157446  
  7470.000000  -0027911576  -0027498407  -0026956541  -0026335821  -0025679180  
  7460.000000  -0025004686  -0024310055  -0023574812  -0022784321  -0021933701  
  7450.000000  -0021043240  -0020142960  -0019272911  -0018455974  -0017698173  
  7440.000000  -0016973168  -0016239589  -0015447454  -0014559312  -0013559176  
  7430.000000  -0012462062  -0011308566  -0010157217  -0009062407  -0008066579  
  7420.000000  -0007185069  -0006411640  -0005720488  -0005079387  -0004458492  
  7410.000000  -0003834934  -0003191398  -0002510179  -0001768633  -0000940808  
  7400.000000  -0000005507   0001043739   0002187027   0003375829   0004540492  
  7390.000000   0005609726   0006537009   0007312049   0007969984   0008576111  
  7380.000000   0009208482   0009928904   0010762305   0011696946   0012692697  
  7370.000000   0013707966   0014712737   0015704556   0016699892   0017723170  
  7360.000000   0018784109   0019865549   0020922744   0021893153   0022721911  
  7350.000000   0023374882   0023859836   0024221323   0024534618   0024882182  
  7340.000000   0025329209   0025916603   0026649771   0027515022   0028479057  
  7330.000000   0029510465   0030579425   0031664578   0032745550   0033800632  
  7320.000000   0034804582   0035724974   0036531637   0037197730   0037719865  
  7310.000000   0038115279   0038431073   0038731063   0039083563   0039546097  
  7300.000000   0040145511   0040882542   0041726962   0042639897   0043578859  
  7290.000000   0044515516   0045433536   0046325157   0047180836   0047980180  
  7280.000000   0048695769   0049295413   0049763410   0050105420   0050362899  
  7270.000000   0050598785   0050886477   0051285094   0051824359   0052499562  
  7260.000000   0053276654   0054109255   0054956187   0055791741   0056613867  
  7250.000000   0057429567   0058254693   0059090428   0059934063   0060765811  
  7240.000000   0061573064   0062343692   0063087393   0063823074   0064587179  
  7230.000000   0065415574   0066345967   0067402084   0068598071   0069923925  
  7220.000000   0071355699   0072843709   0074334428   0075763240   0077086358  
  7210.000000   0078275127   0079344433   0080333966   0081315698   0082360878  
  7200.000000   0083535731   0084876094   0086392628   0088067187   0089868737  
  7190.000000   0091757944   0093698723   0095656609   0097603417   0099511082  
  7180.000000   0101358727   0103127169   0104811597   0106410492   0107938828  
  7170.000000   0109408047   0110841394   0112251031   0113657402   0115069072  
  7160.000000   0116502679   0117964749   0119468133   0121016568   0122619928  
  7150.000000   0124282714   0126019547   0127844988   0129785445   0131861960  
  7140.000000   0134096634   0136490379   0139035960   0141700594   0144451932  
  7130.000000   0147242917   0150041415   0152809096   0155527633   0158172320  
  7120.000000   0160738788   0163221219   0165640738   0168024386   0170420866  
  7110.000000   0172873709   0175422975   0178082100   0180842594   0183670783  
  7100.000000   0186526941   0189375632   0192202588   0195013988   0197832974  
  7090.000000   0200682017   0203572898   0206495458   0209426187   0212332952  
  7080.000000   0215195137   0218004733   0220773773   0223520191   0226261659  
  7070.000000   0229003081   0231737506   0234450701   0237132531   0239783691  
  7060.000000   0242418790   0245058689   0247722171   0250415737   0253130452  
  7050.000000   0255846606   0258541055   0261200043   0263821931   0266420270  
  7040.000000   0269014167   0271623770   0274260212   0276926033   0279612967  
  7030.000000   0282308140   0284994299   0287653786   0290266702   0292815969  
  7020.000000   0295287004   0297676874   0299991052   0302251446   0304483422  
  7010.000000   0306717688   0308971488   0311254172   0313556202   0315864230  
  7000.000000   0318156567   0320420050   0322640737   0324813490   0326925962  
  6990.000000   0328969715   0330928857   0332798831   0334578900   0336290100  
  6980.000000   0337960530   0339630526   0341328167   0343071942   0344851669  
  6970.000000   0346642931   0348400279   0350082984   0351653490   0353098756  
  6960.000000   0354421418   0355649482   0356819009   0357976059   0359154822  
  6950.000000   0360381229   0361655568   0362966086   0364281426   0365574004  
  6940.000000   0366816325   0368002659   0369135600   0370235142   0371314872  
  6930.000000   0372385488   0373438212   0374456373   0375414810   0376297391  
  6920.000000   0377098025   0377829075   0378508581   0379160395   0379796499  
  6910.000000   0380424649   0381039664   0381641115   0382228981   0382815244  
  6900.000000   0383412376   0384032978   0384677124   0385334345   0385981321  
  6890.000000   0386593904   0387150410   0387644057   0388079673   0388477361  
  6880.000000   0388862156   0389263377   0389705570   0390208969   0390781635  
  6870.000000   0391418080   0392093489   0392767707   0393390982   0393917032  
  6860.000000   0394315630   0394585694   0394756345   0394882646   0395024840  
  6850.000000   0395234867   0395537323   0395930901   0396389674   0396881476  
  6840.000000   0397375819   0397855745   0398310506   0398734011   0399112259  
  6830.000000   0399427501   0399659749   0399801363   0399863436   0399880347  
  6820.000000   0399899543   0399968190   0400113310   0400336008   0400607709  
  6810.000000   0400887845   0401133591   0401320639   0401442460   0401513093  
  6800.000000   0401552032   0401578733   0401602610   0401626717   0401649549  
  6790.000000   0401672534   0401699567   0401736304   0401783434   0401835391  
  6780.000000   0401879299   0401902270   0401896298   0401864357   0401818866  
  6770.000000   0401775651   0401746966   0401733700   0401728278   0401716766  
  6760.000000   0401691135   0401652494   0401615418   0401600395   0401626023  
  6750.000000   0401700503   0401818335   0401965107   0402124960   0402289504  
  6740.000000   0402461907   0402652682   0402874105   0403127240   0403400838  
  6730.000000   0403666793   0403893512   0404050994   0404126439   0404124301  
  6720.000000   0404068066   0403992029   0403931722   0403919438   0403974587  
  6710.000000   0404109727   0404323441   0404610393   0404952794   0405329500  
  6700.000000   0405707971   0406055073   0406334074   0406517039   0406585295  
  6690.000000   0406536249   0406381555   0406144571   0405854320   0405539589  
  6680.000000   0405221490   0404913912   0404617761   0404331914   0404048012  
  6670.000000   0403767180   0403490297   0403231859   0403003066   0402819193  
  6660.000000   0402681877   0402585177   0402507387   0402420758   0402293456  
  6650.000000   0402099793   0401822698   0401458510   0401013307   0400503367  
  6640.000000   0399948476   0399373149   0398799938   0398251735   0397742944  
  6630.000000   0397281982   0396861633   0396466640   0396069638   0395646419  
  6620.000000   0395176513   0394656688   0394096126   0393517652   0392944854  
  6610.000000   0392396626   0391877506   0391380063   0390885753   0390376676  
  6600.000000   0389838122   0389268022   0388671011   0388060622   0387448391  
  6590.000000   0386845117   0386253233   0385671070   0385089377   0384496447  
  6580.000000   0383876885   0383217377   0382507719   0381747603   0380945968  
  6570.000000   0380124055   0379307171   0378521301   0377781759   0377091235  
  6560.000000   0376437724   0375801142   0375160788   0374503108   0373824803  
  6550.000000   0373131403   0372431239   0371730353   0371029476   0370326358  
  6540.000000   0369621022   0368920378   0368239598   0367597312   0367007584  
  6530.000000   0366471704   0365974673   0365488361   0364981089   0364427977  
  6520.000000   0363820302   0363165420   0362483529   0361796447   0361121126  
  6510.000000   0360464019   0359823658   0359195838   0358578578   0357976293  
  6500.000000   0357395516   0356843605   0356320074   0355819354   0355328235  
  6490.000000   0354834832   0354329219   0353808078   0353271052   0352717921  
  6480.000000   0352144804   0351543535   0350904589   0350222061   0349497813  
  6470.000000   0348743132   0347975773   0347215080   0346476109   0345766777  
  6460.000000   0345087130   0344432667   0343796850   0343174353   0342561572  
  6450.000000   0341955915   0341356485   0340762419   0340176844   0339603940  
  6440.000000   0339052689   0338528788   0338037333   0337572782   0337127387  
  6430.000000   0336685713   0336239711   0335784319   0335328619   0334884663  
  6420.000000   0334469957   0334093618   0333760344   0333464556   0333202144  
  6410.000000   0332969257   0332771913   0332617634   0332516223   0332466556  
  6400.000000   0332458710   0332469192   0332473057   0332447483   0332383996  
  6390.000000   0332286355   0332171436   0332058427   0331964711   0331898092  
  6380.000000   0331858528   0331838820   0331829612   0331821543   0331805404  
  6370.000000   0331772541   0331712350   0331616960   0331481274   0331310894  
  6360.000000   0331119266   0330929312   0330762345   0330634012   0330543436  
  6350.000000   0330477029   0330407466   0330308366   0330156372   0329944418  
  6340.000000   0329675696   0329367159   0329036453   0328702128   0328373143  
  6330.000000   0328053768   0327737915   0327417869   0327079594   0326712484  
  6320.000000   0326304731   0325854096   0325362700   0324844872   0324317277  
  6310.000000   0323800073   0323304399   0322832199   0322370767   0321900633  
  6300.000000   0321399654   0320855144   0320264970   0319642853   0319008421  
  6290.000000   0318385485   0317789306   0317228827   0316701605   0316201981  
  6280.000000   0315719750   0315246165   0314770314   0314281356   0313765868  
  6270.000000   0313211765   0312609913   0311959311   0311267297   0310549443  
  6260.000000   0309823519   0309106068   0308406205   0307727775   0307068202  
  6250.000000   0306426384   0305801002   0305195090   0304608811   0304039903  
  6240.000000   0303478211   0302909669   0302318383   0301693063   0301030306  
  6230.000000   0300335363   0299620364   0298898635   0298181937   0297476860  
  6220.000000   0296786768   0296112219   0295453839   0294811599   0294185307  
  6210.000000   0293571930   0292967311   0292365868   0291765646   0291168198  
  6200.000000   0290581269   0290013821   0289474998   0288967318   0288488845  
  6190.000000   0288031666   0287589294   0287157310   0286737143   0286332051  
  6180.000000   0285944610   0285571901   0285205414   0284833296   0284445733  
  6170.000000   0284039725   0283620203   0283198050   0282783271   0282380215  
  6160.000000   0281983381   0281580246   0281155715   0280699687   0280210363  
  6150.000000   0279694924   0279164115   0278627519   0278088174   0277544040  
  6140.000000   0276990443   0276427086   0275860413   0275304128   0274773805  
  6130.000000   0274280592   0273826351   0273402063   0272992405   0272580546  
  6120.000000   0272156182   0271715870   0271265577   0270812938   0270368124  
  6110.000000   0269936059   0269522401   0269128850   0268760901   0268420783  
  6100.000000   0268112379   0267831837   0267574245   0267328105   0267087138  
  6090.000000   0266847037   0266615350   0266402258   0266223451   0266086354  
  6080.000000   0265994250   0265937713   0265907661   0265891386   0265888068  
  6070.000000   0265897866   0265931979   0265993049   0266085498   0266197714  
  6060.000000   0266321125   0266438831   0266549457   0266653482   0266771656  
  6050.000000   0266923437   0267139755   0267439247   0267841724   0268348775  
  6040.000000   0268960686   0269661244   0270436759   0271262497   0272123476  
  6030.000000   0273001307   0273894952   0274803497   0275742205   0276718514  
  6020.000000   0277745701   0278817831   0279929794   0281058769   0282192358  
  6010.000000   0283312811   0284423146   0285525886   0286640863   0287778979  
  6000.000000   0288957980   0290180917   0291457386   0292787252   0294182144  
  5990.000000   0295646615   0297194897   0298828185   0300551068   0302350839  
  5980.000000   0304219671   0306137318   0308096282   0310081257   0312092151  
  5970.000000   0314119034   0316165755   0318225326   0320306293   0322409570  
  5960.000000   0324552458   0326742715   0328996209   0331312098   0333690193  
  5950.000000   0336115337   0338577567   0341064819   0343578332   0346123818  
  5940.000000   0348714479   0351359643   0354061904   0356812793   0359593489  
  5930.000000   0362381151   0365151428   0367886465   0370571331   0373197266  
  5920.000000   0375753552   0378231133   0380616914   0382902586   0385080065  
  5910.000000   0387151845   0389121122   0391002065   0392804687   0394549856  
  5900.000000   0396251223   0397935656   0399619553   0401329542   0403072713  
  5890.000000   0404856528   0406662236   0408469888   0410242807   0411954752  
  5880.000000   0413578546   0415104868   0416527317   0417850642   0419076686  
  5870.000000   0420211912   0421261625   0422239928   0423165433   0424066428  
  5860.000000   0424968776   0425895818   0426854507   0427843036   0428846497  
  5850.000000   0429853435   0430855148   0431857284   0432871982   0433916281  
  5840.000000   0435000553   0436125119   0437278874   0438442914   0439598487  
  5830.000000   0440730616   0441834262   0442909410   0443962264   0444996801  
  5820.000000   0446018202   0447028323   0448031514   0449031915   0450034732  
  5810.000000   0451044700   0452061241   0453085502   0454111055   0455143993  
  5800.000000   0456184356   0457251667   0458351168   0459499364   0460683371  
  5790.000000   0461891485   0463078633   0464204087   0465204443   0466031166  
  5780.000000   0466625786   0466952348   0466975262   0466688962   0466098876  
  5770.000000   0465247134   0464187201   0462999477   0461753386   0460519714  
  5760.000000   0459333117   0458218060   0457165355   0456171889   0455223554  
  5750.000000   0454327407   0453487031   0452716017   0452013744   0451372201  
  5740.000000   0450769399   0450179005   0449579021   0448955018   0448307381  
  5730.000000   0447641668   0446970634   0446301531   0445641080   0444989538  
  5720.000000   0444349286   0443720779   0443107147   0442506916   0441916249  
  5710.000000   0441324816   0440722457   0440101480   0439463440   0438819689  
  5700.000000   0438188634   0437590939   0437039797   0436541366   0436087877  
  5690.000000   0435670370   0435273051   0434889885   0434511420   0434136707  
  5680.000000   0433754512   0433354676   0432913569   0432409889   0431815910  
  5670.000000   0431113311   0430284535   0429324243   0428229959   0427011944  
  5660.000000   0425684903   0424277405   0422820390   0421352243   0419901952  
  5650.000000   0418492937   0417130205   0415811429   0414524691   0413263326  
  5640.000000   0412025911   0410821121   0409662164   0408559535   0407518462  
  5630.000000   0406531336   0405588014   0404671962   0403776687   0402897014  
  5620.000000   0402040433   0401211186   0400418777   0399663747   0398950013  
  5610.000000   0398275453   0397644305   0397056133   0396513158   0396007496  
  5600.000000   0395529274   0395060003   0394586422   0394098552   0393600583  
  5590.000000   0393103137   0392623548   0392173271   0391756321   0391364920  
  5580.000000   0390985731   0390605455   0390217283   0389823548   0389431948  
  5570.000000   0389050985   0388682385   0388320190   0387950640   0387559079  
  5560.000000   0387133479   0386669683   0386169237   0385638446   0385083165  
  5550.000000   0384509080   0383920445   0383324320   0382729418   0382147127  
  5540.000000   0381585318   0381046157   0380522222   0380000475   0379466461  
  5530.000000   0378913030   0378342543   0377768631   0377208045   0376675785  
  5520.000000   0376176542   0375706213   0375253143   0374807027   0374361152  
  5510.000000   0373916165   0373473084   0373031169   0372580051   0372104412  
  5500.000000   0371585185   0371012233   0370385889   0369722683   0369044256  
  5490.000000   0368372271   0367714483   0367066601   0366411230   0365731322  
  5480.000000   0365013321   0364257028   0363468857   0362661750   0361843685  
  5470.000000   0361020141   0360190879   0359359551   0358532440   0357722500  
  5460.000000   0356940132   0356189707   0355462732   0354740464   0354000598  
  5450.000000   0353226230   0352414697   0351576874   0350733489   0349901839  
  5440.000000   0349091106   0348296527   0347511282   0346730591   0345966025  
  5430.000000   0345237869   0344573016   0343983362   0343464068   0342984404  
  5420.000000   0342508761   0342001957   0341457999   0340892824   0340353090  
  5410.000000   0339881743   0339513766   0339245927   0339057644   0338906077  
  5400.000000   0338765937   0338621021   0338490936   0338398704   0338380717  
  5390.000000   0338447021   0338600921   0338818108   0339086052   0339389444  
  5380.000000   0339745109   0340168581   0340695213   0341334906   0342099965  
  5370.000000   0342968331   0343930311   0344955302   0346044163   0347181504  
  5360.000000   0348386109   0349650618   0350999812   0352428585   0353970902  
  5350.000000   0355632132   0357458982   0359459570   0361674170   0364089190  
  5340.000000   0366721951   0369538980   0372556106   0375748168   0379148926  
  5330.000000   0382744827   0386575416   0390619687   0394907443   0399409369  
  5320.000000   0404161811   0409149241   0414430461   0420004174   0425936805  
  5310.000000   0432217515   0438893671   0445931807   0453362053   0461146404  
  5300.000000   0469319123   0477854530   0486799306   0496136247   0505909675  
  5290.000000   0516088951   0526689570   0537647334   0548938756   0560478860  
  5280.000000   0572242168   0584175289   0596301497   0608627532   0621217316  
  5270.000000   0634092297   0647278032   0660732995   0674394356   0688165149  
  5260.000000   0701958839   0715716917   0729415051   0743065804   0756676960  
  5250.000000   0770256014   0783757493   0797132098   0810281776   0823155657  
  5240.000000   0835685579   0847888023   0859755308   0871350396   0882675970  
  5230.000000   0893779058   0904624330   0915217930   0925491035   0935438884  
  5220.000000   0945002542   0954208897   0963037135   0971551744   0979755152  
  5210.000000   0987714556   0995410755   1002870772   1010029018   1016880269  
  5200.000000   1023351997   1029463429   1035184646   1040577379   1045638161  
  5190.000000   1050426675   1054916893   1059133788   1063025207   1066607863  
  5180.000000   1069842818   1072771799   1075380483   1077720630   1079773411  
  5170.000000   1081572597   1083084059   1084333008   1085291904   1085997947  
  5160.000000   1086437248   1086649640   1086616257   1086363115   1085863067  
  5150.000000   1085139396   1084176469   1083010626   1081641064   1080106594  
  5140.000000   1078403800   1076560443   1074567718   1072451238   1070210766  
  5130.000000   1067879604   1065465517   1062998253   1060477899   1057919274  
  5120.000000   1055313744   1052671004   1049988542   1047282219   1044557263  
  5110.000000   1041827690   1039093613   1036358347   1033615870   1030867859  
  5100.000000   1028114943   1025367838   1022635774   1019931722   1017261269  
  5090.000000   1014628943   1012031444   1009466814   1006928268   1004412411  
  5080.000000   1001910120   0999414188   0996910327   0994388478   0991835915  
  5070.000000   0989250064   0986628990   0983980335   0981307201   0978614731  
  5060.000000   0975896754   0973146995   0970350404   0967499329   0964584747  
  5050.000000   0961611159   0958582991   0955515714   0952420095   0949312697  
  5040.000000   0946202352   0943100804   0940011449   0936938180   0933876614  
  5030.000000   0930821321   0927762314   0924691593   0921605080   0918504628  
  5020.000000   0915401096   0912307186   0909241039   0906212343   0903232025  
  5010.000000   0900297768   0897412650   0894570444   0891778287   0889036981  
  5000.000000   0886362785   0883761412   0881251328   0878834772   0876527073  
  4990.000000   0874325230   0872242730   0870272447   0868424992   0866685673  
  4980.000000   0865058601   0863521420   0862077620   0860709033   0859432492  
  4970.000000   0858244914   0857178880   0856239065   0855458537   0854833005  
  4960.000000   0854383712   0854094325   0853980177   0854024156   0854246555  
  4950.000000   0854634735   0855212367   0855964219   0856909967   0858027760  
  4940.000000   0859334902   0860808846   0862470591   0864300602   0866321936  
  4930.000000   0868514620   0870899890   0873458272   0876213686   0879154569  
  4920.000000   0882311885   0885680830   0889289933   0893127326   0897204252  
  4910.000000   0901493146   0905986902   0910650168   0915469056   0920412573  
  4900.000000   0925467284   0930609429   0935823747   0941090277   0946387548  
  4890.000000   0951696094   0956984780   0962231333   0967392188   0972441508  
  4880.000000   0977326488   0982024140   0986481619   0990686045   0994589771  
  4870.000000   0998189727   1001442437   1004352681   1006883867   1009053311  
  4860.000000   1010838414   1012272493   1013346740   1014103753   1014540737  
  4850.000000   1014701914   1014588847   1014249161   1013693802   1012975659  
  4840.000000   1012112884   1011154985   1010116772   1009034751   1007917120  
  4830.000000   1006790585   1005664711   1004564251   1003502984   1002500256  
  4820.000000   1001565187   1000703036   0999913706   0999192028   0998538337  
  4810.000000   0997949808   0997435583   0996997010   0996644598   0996373009  
  4800.000000   0996183398   0996060508   0996000709   0995990607   0996034306  
  4790.000000   0996129122   0996287318   0996509818   0996804780   0997165230  
  4780.000000   0997588462   0998059629   0998570855   0999107496   0999664088  
  4770.000000   1000230852   1000806360   1001385033   1001967835   1002551448  
  4760.000000   1003137001   1003720832   1004301562   1004873608   1005433894  
  4750.000000   1005978962   1006510346   1007032602   1007554478   1008085406  
  4740.000000   1008633432   1009201547   1009787620   1010383595   1010980711  
  4730.000000   1011568945   1012144622   1012704921   1013255648   1013798969  
  4720.000000   1014343894   1014890664   1015448194   1016015872   1016606510  
  4710.000000   1017223545   1017886123   1018601289   1019389803   1020257687  
  4700.000000   1021223562   1022292224   1023481276   1024796287   1026254268  
  4690.000000   1027858575   1029619470   1031530220   1033588310   1035772079  
  4680.000000   1038064506   1040429971   1042842398   1045259981   1047656967  
  4670.000000   1049997564   1052270289   1054460024   1056578758   1058636077  
  4660.000000   1060663640   1062687406   1064744956   1066863963   1069073192  
  4650.000000   1071390419   1073827036   1076385451   1079057499   1081830611  
  4640.000000   1084681994   1087591774   1090533028   1093487909   1096431762  
  4630.000000   1099349744   1102215900   1105013270   1107710922   1110290048  
  4620.000000   1112718805   1114984579   1117063456   1118955864   1120647192  
  4610.000000   1122148216   1123448955   1124566762   1125494895   1126257990  
  4600.000000   1126855171   1127319072   1127653165   1127891269   1128032455  
  4590.000000   1128100152   1128080138   1127978974   1127769634   1127447086  
  4580.000000   1126982528   1126372751   1125601291   1124678837   1123608681  
  4570.000000   1122417915   1121125585   1119766674   1118363288   1116945627  
  4560.000000   1115527964   1114129344   1112754076   1111411819   1110100990  
  4550.000000   1108825909   1107582262   1106369770   1105181758   1104013287  
  4540.000000   1102857417   1101707860   1100561751   1099414536   1098267853  
  4530.000000   1097116531   1095962665   1094797442   1093623617   1092433325  
  4520.000000   1091238261   1090040222   1088866257   1087728461   1086664594  
  4510.000000   1085687633   1084835915   1084114671   1083558435   1083164300  
  4500.000000   1082965614   1082955132   1083168494   1083597382   1084282523  
  4490.000000   1085217737   1086450697   1087977379   1089847741   1092051998  
  4480.000000   1094631171   1097560648   1100866550   1104511205   1108511944  
  4470.000000   1112828341   1117477280   1122421564   1127678453   1133212552  
  4460.000000   1139037630   1145117549   1151459333   1158024267   1164809029  
  4450.000000   1171770117   1178892663   1186132036   1193469567   1200870803  
  4440.000000   1208323300   1215808362   1223316943   1230836202   1238346045  
  4430.000000   1245826777   1253241691   1260567804   1267764767   1274821540  
  4420.000000   1281708458   1288430824   1294965845   1301320115   1307460549  
  4410.000000   1313378624   1319025265   1324382916   1329405982   1334095218  
  4400.000000   1338436993   1342471678   1346225644   1349771429   1353155033  
  4390.000000   1356453179   1359702752   1362959757   1366234655   1369553069  
  4380.000000   1372898276   1376271787   1379643391   1383008068   1386341239  
  4370.000000   1389646047   1392910554   1396142779   1399331437   1402476616  
  4360.000000   1405555799   1408563353   1411470402   1414282395   1416972222  
  4350.000000   1419562228   1422023309   1424386320   1426619792   1428761458  
  4340.000000   1430785645   1432725689   1434534431   1436179727   1437520728  
  4330.000000   1438398102   1438567990   1437814725   1435947935   1432910936  
  4320.000000   1428776168   1423784063   1418273526   1412646382   1407262156  
  4310.000000   1402405481   1398224770   1394760810   1391954004   1389705329  
  4300.000000   1387908121   1386475784   1385360883   1384527036   1383970552  
  4290.000000   1383663668   1383606666   1383766341   1384147685   1384731028  
  4280.000000   1385529141   1386532591   1387737488   1389120530   1390644524  
  4270.000000   1392265446   1393919440   1395539887   1397030796   1398284907  
  4260.000000   1399163994   1399531159   1399252888   1398247663   1396489926  
  4250.000000   1394047940   1391052137   1387704908   1384210469   1380779791  
  4240.000000   1377555241   1374640714   1372050682   1369768825   1367724591  
  4230.000000   1365851114   1364073433   1362338395   1360611189   1358871971  
  4220.000000   1357128374   1355385977   1353681380   1352035023   1350497971  
  4210.000000   1349094351   1347870730   1346838983   1346023515   1345412527  
  4200.000000   1345003362   1344762419   1344671513   1344688907   1344798111  
  4190.000000   1344963141   1345181415   1345430211   1345723613   1346051551  
  4180.000000   1346440336   1346887720   1347425433   1348054360   1348807267  
  4170.000000   1349686336   1350723812   1351921906   1353310811   1354889747  
  4160.000000   1356683783   1358684660   1360909143   1363338546   1365980650  
  4150.000000   1368806875   1371818741   1374981988   1378298425   1381736247  
  4140.000000   1385306397   1388986417   1392798818   1396728971   1400804712  
  4130.000000   1405012886   1409379571   1413891668   1418575481   1423425014  
  4120.000000   1428473598   1433727655   1439228481   1444989560   1451048380  
  4110.000000   1457407542   1464080244   1471037676   1478253989   1485665766  
  4100.000000   1493220227   1500847057   1508502905   1516149503   1523780706  
  4090.000000   1531400072   1539023411   1546665558   1554328165   1562010717  
  4080.000000   1569689320   1577353383   1584968752   1592527934   1599990722  
  4070.000000   1607344652   1614532999   1621532890   1628280417   1634763304  
  4060.000000   1640936674   1646816509   1652378899   1657654562   1662620926  
  4050.000000   1667309531   1671697613   1675825214   1679678367   1683303253  
  4040.000000   1686680528   1689839476   1692738448   1695388064   1697741954  
  4030.000000   1699820815   1701600919   1703123600   1704386879   1705433727  
  4020.000000   1706252738   1706885043   1707340694   1707657181   1707819360  
  4010.000000   1707868699   1707820544   1707650210   1707240078   1706581563  
  4000.000000   1705795210  
##END= 
