##TITLE= Sample 012 By ssteindl date Montag, November 19 2018
##JCAMP-DX= 4.24
##DATA TYPE= INFRARED SPECTRUM
##ORIGIN= Exported PE Spectrum Data File
##OWNER= Sandra Steindl
##DATE= 18/11/19
##TIME= 17:34:21.00
##SPECTROMETER/DATA SYSTEM= PERKIN-ELMER Frontier FT-IR/NIR IR
##INSTRUMENT PARAMETERS=
  APODIZATION=stark
  DETECTOR=INGAAS
##RESOLUTION= 16.000000
##DELTAX= -2.000000
##XUNITS= 1/CM
##YUNITS= A
##XFACTOR= 1.00
##YFACTOR= 0.00000011920928955078
##FIRSTX= 10000.00
##LASTX= 4000.00
##NPOINTS= 3001
##FIRSTY= 0.209340
##MAXY= 0.609348
##MINY= 0.178582
##XYDATA= (X++(Y..Y))
 10000.000000   1756071   1753250   1749921   1745703   1741195  
  9990.000000   1737560   1735662   1735837   1738050   1741751  
  9980.000000   1745715   1748345   1748320   1745089   1739027  
  9970.000000   1731342   1723659   1717428   1713462   1711726  
  9960.000000   1711569   1712017   1712228   1711615   1709897  
  9950.000000   1706907   1702552   1696809   1689966   1682752  
  9940.000000   1676384   1672262   1671512   1674479   1680507  
  9930.000000   1688096   1695477   1701270   1704974   1707019  
  9920.000000   1708353   1709851   1711781   1713687   1714693  
  9910.000000   1714088   1711834   1708722   1706023   1704882  
  9900.000000   1705616   1707530   1709085   1708643   1705145  
  9890.000000   1698582   1689980   1680874   1672740   1666367  
  9880.000000   1661803   1658507   1655865   1653553   1651680  
  9870.000000   1650648   1650832   1652355   1655039   1658607  
  9860.000000   1662909   1668027   1674150   1681228   1688745  
  9850.000000   1695611   1700539   1702489   1701242   1697540  
  9840.000000   1692877   1688872   1686596   1686129   1686603  
  9830.000000   1686696   1685301   1682124   1677748   1673404  
  9820.000000   1670217   1668789   1668861   1669673   1670399  
  9810.000000   1670678   1670771   1671307   1672844   1675358  
  9800.000000   1678150   1680028   1679888   1677204   1672374  
  9790.000000   1666533   1661160   1657419   1655810   1656079  
  9780.000000   1657494   1659284   1660929   1662330   1663604  
  9770.000000   1664938   1666306   1667547   1668448   1668985  
  9760.000000   1669434   1670212   1671713   1673883   1676229  
  9750.000000   1677796   1677583   1674925   1669787   1662898  
  9740.000000   1655489   1649026   1644734   1643415   1645246  
  9730.000000   1649901   1656589   1664221   1671526   1677205  
  9720.000000   1680187   1679815   1676105   1669732   1661964  
  9710.000000   1654281   1648042   1644084   1642611   1643249  
  9700.000000   1645274   1647949   1650634   1652973   1654725  
  9690.000000   1655788   1656083   1655620   1654568   1653240  
  9680.000000   1652098   1651495   1651584   1652126   1652604  
  9670.000000   1652406   1651090   1648630   1645411   1642142  
  9660.000000   1639548   1638126   1637992   1638888   1640345  
  9650.000000   1641857   1643026   1643611   1643483   1642612  
  9640.000000   1641041   1638972   1636773   1635005   1634241  
  9630.000000   1634902   1636994   1640045   1643172   1645371  
  9620.000000   1645851   1644295   1640955   1636450   1631567  
  9610.000000   1626862   1622629   1618794   1615173   1611599  
  9600.000000   1608077   1604830   1602165   1600471   1600029  
  9590.000000   1601113   1603862   1608357   1614451   1621706  
  9580.000000   1629341   1636226   1641214   1643308   1642113  
  9570.000000   1637839   1631344   1623776   1616268   1609638  
  9560.000000   1604266   1600255   1597547   1596225   1596398  
  9550.000000   1598211   1601484   1605689   1609902   1613085  
  9540.000000   1614420   1613546   1610737   1606662   1602208  
  9530.000000   1598060   1594582   1591774   1589475   1587578  
  9520.000000   1586182   1585566   1586004   1587537   1589829  
  9510.000000   1592219   1593933   1594362   1593308   1591024  
  9500.000000   1588161   1585491   1583719   1583268   1584221  
  9490.000000   1586382   1589310   1592509   1595456   1597755  
  9480.000000   1599166   1599659   1599420   1598759   1598016  
  9470.000000   1597350   1596661   1595526   1593406   1589887  
  9460.000000   1584971   1579213   1573592   1569281   1567173  
  9450.000000   1567668   1570435   1574623   1579092   1582834  
  9440.000000   1585246   1586217   1586034   1585086   1583690  
  9430.000000   1581920   1579735   1577040   1573911   1570574  
  9420.000000   1567421   1564859   1563150   1562386   1562408  
  9410.000000   1562991   1563884   1564942   1566120   1567409  
  9400.000000   1568801   1570176   1571322   1571927   1571696  
  9390.000000   1570452   1568269   1565483   1562681   1560525  
  9380.000000   1559622   1560316   1562563   1565858   1569305  
  9370.000000   1571880   1572739   1571570   1568686   1564999  
  9360.000000   1561670   1559818   1560080   1562482   1566365  
  9350.000000   1570686   1574325   1576462   1576724   1575181  
  9340.000000   1572197   1568208   1563609   1558622   1553385  
  9330.000000   1547960   1542484   1537142   1532184   1527850  
  9320.000000   1524339   1521838   1520506   1520503   1521903  
  9310.000000   1524612   1528329   1532516   1536580   1539948  
  9300.000000   1542307   1543620   1544172   1544404   1544768  
  9290.000000   1545550   1546833   1548520   1550451   1552487  
  9280.000000   1554517   1556423   1557990   1558923   1558881  
  9270.000000   1557632   1555169   1551813   1548164   1544954  
  9260.000000   1542786   1541961   1542352   1543547   1544975  
  9250.000000   1546190   1546952   1547309   1547472   1547676  
  9240.000000   1548024   1548443   1548733   1548653   1548038  
  9230.000000   1546836   1545152   1543165   1541096   1539139  
  9220.000000   1537421   1536012   1534884   1533955   1533083  
  9210.000000   1532135   1531035   1529819   1528654   1527785  
  9200.000000   1527429   1527650   1528294   1529004   1529370  
  9190.000000   1529066   1528036   1526510   1524953   1523844  
  9180.000000   1523475   1523816   1524542   1525168   1525278  
  9170.000000   1524704   1523611   1522400   1521504   1521205  
  9160.000000   1521502   1522157   1522793   1523091   1522917  
  9150.000000   1522348   1521614   1520948   1520501   1520261  
  9140.000000   1520108   1519864   1519394   1518620   1517540  
  9130.000000   1516197   1514702   1513204   1511922   1511111  
  9120.000000   1511026   1511809   1513409   1515547   1517789  
  9110.000000   1519670   1520868   1521345   1521370   1521406  
  9100.000000   1521906   1523134   1525060   1527382   1529646  
  9090.000000   1531430   1532492   1532818   1532568   1531954  
  9080.000000   1531156   1530256   1529278   1528218   1527119  
  9070.000000   1526071   1525183   1524528   1524088   1523815  
  9060.000000   1523653   1523664   1524000   1524901   1526551  
  9050.000000   1528985   1532000   1535151   1537871   1539625  
  9040.000000   1540095   1539241   1537300   1534694   1531918  
  9030.000000   1529404   1527446   1526194   1525655   1525740  
  9020.000000   1526231   1526863   1527331   1527397   1526918  
  9010.000000   1525934   1524660   1523414   1522507   1522085  
  9000.000000   1522096   1522274   1522273   1521792   1520720  
  8990.000000   1519196   1517561   1516235   1515542   1515623  
  8980.000000   1516370   1517517   1518707   1519648   1520171  
  8970.000000   1520265   1520021   1519583   1519084   1518584  
  8960.000000   1518074   1517445   1516563   1515246   1513364  
  8950.000000   1510864   1507873   1504673   1501683   1499363  
  8940.000000   1498091   1498051   1499132   1501005   1503216  
  8930.000000   1505363   1507205   1508728   1510122   1511608  
  8920.000000   1513320   1515156   1516851   1517998   1518278  
  8910.000000   1517546   1515985   1514003   1512119   1510797  
  8900.000000   1510303   1510692   1511779   1513319   1515066  
  8890.000000   1516895   1518765   1520697   1522691   1524665  
  8880.000000   1526458   1527840   1528621   1528660   1527959  
  8870.000000   1526614   1524841   1522914   1521139   1519816  
  8860.000000   1519190   1519447   1520638   1522687   1525350  
  8850.000000   1528289   1531133   1533575   1535450   1536743  
  8840.000000   1537589   1538168   1538659   1539141   1539624  
  8830.000000   1540068   1540461   1540869   1541416   1542262  
  8820.000000   1543474   1545022   1546709   1548279   1549479  
  8810.000000   1550181   1550430   1550400   1550322   1550328  
  8800.000000   1550405   1550361   1549936   1548922   1547314  
  8790.000000   1545348   1543457   1542153   1541844   1542719  
  8780.000000   1544681   1547406   1550464   1553441   1556047  
  8770.000000   1558122   1559634   1560605   1561101   1561201  
  8760.000000   1561041   1560802   1560722   1561029   1561876  
  8750.000000   1563284   1565107   1567093   1568943   1570436  
  8740.000000   1571474   1572115   1572505   1572803   1573120  
  8730.000000   1573474   1573829   1574118   1574322   1574477  
  8720.000000   1574678   1575036   1575625   1576479   1577566  
  8710.000000   1578847   1580272   1581822   1583483   1585240  
  8700.000000   1587048   1588818   1590442   1591800   1592807  
  8690.000000   1593419   1593658   1593581   1593296   1592917  
  8680.000000   1592590   1592458   1592653   1593250   1594232  
  8670.000000   1595502   1596883   1598208   1599354   1600329  
  8660.000000   1601267   1602398   1603959   1606070   1608699  
  8650.000000   1611590   1614383   1616646   1618059   1618456  
  8640.000000   1617905   1616665   1615139   1613803   1613111  
  8630.000000   1613429   1614959   1617728   1621563   1626132  
  8620.000000   1630958   1635537   1639423   1642338   1644208  
  8610.000000   1645167   1645513   1645594   1645733   1646130  
  8600.000000   1646865   1647894   1649095   1650329   1651462  
  8590.000000   1652420   1653171   1653755   1654249   1654765  
  8580.000000   1655410   1656266   1657359   1658653   1660061  
  8570.000000   1661483   1662861   1664205   1665589   1667106  
  8560.000000   1668817   1670687   1672579   1674289   1675623  
  8550.000000   1676485   1676920   1677133   1677400   1677997  
  8540.000000   1679078   1680651   1682569   1684595   1686482  
  8530.000000   1688026   1689121   1689722   1689842   1689519  
  8520.000000   1688824   1687877   1686855   1686000   1685578  
  8510.000000   1685832   1686906   1688817   1691434   1694511  
  8500.000000   1697728   1700761   1703341   1705278   1706495  
  8490.000000   1707010   1706986   1706671   1706396   1706471  
  8480.000000   1707134   1708463   1710347   1712532   1714692  
  8470.000000   1716566   1718021   1719113   1720031   1721009  
  8460.000000   1722202   1723627   1725148   1726547   1727622  
  8450.000000   1728273   1728548   1728618   1728696   1728965  
  8440.000000   1729495   1730267   1731188   1732159   1733103  
  8430.000000   1733980   1734765   1735421   1735879   1736070  
  8420.000000   1735968   1735631   1735214   1734935   1735003  
  8410.000000   1735539   1736511   1737756   1739019   1740074  
  8400.000000   1740784   1741157   1741316   1741427   1741618  
  8390.000000   1741920   1742256   1742485   1742471   1742159  
  8380.000000   1741601   1740951   1740386   1740078   1740101  
  8370.000000   1740464   1741070   1741798   1742509   1743093  
  8360.000000   1743471   1743586   1743402   1742889   1742044  
  8350.000000   1740883   1739459   1737851   1736160   1734502  
  8340.000000   1732995   1731753   1730871   1730423   1730440  
  8330.000000   1730897   1731672   1732575   1733363   1733812  
  8320.000000   1733777   1733247   1732376   1731434   1730745  
  8310.000000   1730545   1730909   1731703   1732627   1733309  
  8300.000000   1733418   1732796   1731513   1729866   1728263  
  8290.000000   1727104   1726634   1726889   1727677   1728648  
  8280.000000   1729398   1729595   1729070   1727857   1726151  
  8270.000000   1724251   1722463   1721040   1720111   1719677  
  8260.000000   1719610   1719715   1719776   1719621   1719134  
  8250.000000   1718300   1717171   1715868   1714520   1713237  
  8240.000000   1712075   1711031   1710062   1709098   1708074  
  8230.000000   1706940   1705665   1704244   1702680   1701000  
  8220.000000   1699242   1697481   1695807   1694339   1693173  
  8210.000000   1692369   1691910   1691699   1691581   1691362  
  8200.000000   1690873   1689990   1688663   1686906   1684788  
  8190.000000   1682418   1679932   1677506   1675335   1673625  
  8180.000000   1672532   1672121   1672310   1672872   1673455  
  8170.000000   1673669   1673184   1671829   1669660   1666923  
  8160.000000   1664000   1661268   1659010   1657336   1656179  
  8150.000000   1655360   1654652   1653894   1653018   1652083  
  8140.000000   1651200   1650486   1649982   1649633   1649294  
  8130.000000   1648766   1647880   1646526   1644720   1642580  
  8120.000000   1640315   1638164   1636331   1634941   1634002  
  8110.000000   1633424   1633050   1632711   1632277   1631688  
  8100.000000   1630956   1630144   1629321   1628524   1627740  
  8090.000000   1626909   1625970   1624885   1623696   1622497  
  8080.000000   1621423   1620586   1620027   1619692   1619439  
  8070.000000   1619095   1618509   1617616   1616458   1615175  
  8060.000000   1613957   1612978   1612343   1612051   1612002  
  8050.000000   1612026   1611942   1611602   1610934   1609943  
  8040.000000   1608700   1607317   1605911   1604587   1603418  
  8030.000000   1602449   1601697   1601156   1600799   1600585  
  8020.000000   1600446   1600304   1600073   1599688   1599120  
  8010.000000   1598389   1597568   1596755   1596048   1595498  
  8000.000000   1595091   1594745   1594335   1593736   1592880  
  7990.000000   1591779   1590543   1589334   1588329   1587642  
  7980.000000   1587300   1587216   1587232   1587160   1586860  
  7970.000000   1586278   1585470   1584578   1583783   1583250  
  7960.000000   1583080   1583289   1583809   1584520   1585280  
  7950.000000   1585965   1586486   1586804   1586912   1586835  
  7940.000000   1586609   1586268   1585843   1585348   1584791  
  7930.000000   1584159   1583442   1582630   1581730   1580776  
  7920.000000   1579834   1578998   1578366   1578020   1577995  
  7910.000000   1578266   1578753   1579340   1579910   1580381  
  7900.000000   1580727   1580977   1581195   1581446   1581766  
  7890.000000   1582142   1582524   1582835   1583015   1583027  
  7880.000000   1582881   1582599   1582214   1581731   1581134  
  7870.000000   1580391   1579487   1578450   1577370   1576393  
  7860.000000   1575686   1575406   1575643   1576413   1577639  
  7850.000000   1579189   1580891   1582575   1584094   1585334  
  7840.000000   1586225   1586729   1586855   1586633   1586131  
  7830.000000   1585422   1584579   1583663   1582712   1581763  
  7820.000000   1580847   1580030   1579383   1579001   1578933  
  7810.000000   1579185   1579667   1580226   1580669   1580825  
  7800.000000   1580608   1580030   1579210   1578310   1577485  
  7790.000000   1576817   1576298   1575847   1575368   1574803  
  7780.000000   1574175   1573580   1573149   1572987   1573109  
  7770.000000   1573434   1573793   1574008   1573954   1573611  
  7760.000000   1573081   1572540   1572176   1572106   1572333  
  7750.000000   1572735   1573114   1573258   1573026   1572386  
  7740.000000   1571426   1570321   1569268   1568428   1567881  
  7730.000000   1567618   1567559   1567599   1567640   1567628  
  7720.000000   1567546   1567415   1567259   1567097   1566925  
  7710.000000   1566726   1566482   1566173   1565800   1565360  
  7700.000000   1564855   1564274   1563601   1562821   1561937  
  7690.000000   1560984   1560028   1559155   1558448   1557962  
  7680.000000   1557702   1557627   1557657   1557707   1557710  
  7670.000000   1557628   1557470   1557251   1557003   1556727  
  7660.000000   1556413   1556022   1555528   1554928   1554265  
  7650.000000   1553627   1553135   1552910   1553042   1553558  
  7640.000000   1554410   1555477   1556588   1557555   1558222  
  7630.000000   1558487   1558340   1557843   1557132   1556367  
  7620.000000   1555708   1555276   1555139   1555311   1555749  
  7610.000000   1556378   1557103   1557829   1558473   1558979  
  7600.000000   1559318   1559488   1559515   1559437   1559301  
  7590.000000   1559143   1558993   1558867   1558775   1558734  
  7580.000000   1558768   1558911   1559197   1559644   1560239  
  7570.000000   1560932   1561642   1562274   1562746   1563016  
  7560.000000   1563092   1563034   1562936   1562903   1563033  
  7550.000000   1563384   1563972   1564753   1565642   1566520  
  7540.000000   1567270   1567792   1568047   1568052   1567902  
  7530.000000   1567736   1567714   1567959   1568542   1569451  
  7520.000000   1570618   1571936   1573307   1574657   1575958  
  7510.000000   1577206   1578410   1579566   1580665   1581690  
  7500.000000   1582654   1583596   1584596   1585730   1587054  
  7490.000000   1588562   1590194   1591840   1593389   1594767  
  7480.000000   1595968   1597049   1598100   1599203   1600399  
  7470.000000   1601676   1602984   1604272   1605520   1606756  
  7460.000000   1608046   1609467   1611069   1612851   1614762  
  7450.000000   1616712   1618619   1620417   1622083   1623613  
  7440.000000   1625030   1626347   1627583   1628753   1629894  
  7430.000000   1631069   1632364   1633869   1635644   1637704  
  7420.000000   1639999   1642427   1644856   1647157   1649236  
  7410.000000   1651045   1652595   1653932   1655135   1656289  
  7400.000000   1657479   1658772   1660218   1661842   1663644  
  7390.000000   1665603   1667677   1669820   1671981   1674121  
  7380.000000   1676204   1678210   1680129   1681959   1683719  
  7370.000000   1685431   1687134   1688865   1690656   1692519  
  7360.000000   1694436   1696370   1698263   1700065   1701741  
  7350.000000   1703295   1704763   1706210   1707706   1709307  
  7340.000000   1711029   1712846   1714688   1716470   1718109  
  7330.000000   1719558   1720815   1721939   1723027   1724189  
  7320.000000   1725510   1727021   1728685   1730410   1732075  
  7310.000000   1733573   1734855   1735943   1736928   1737937  
  7300.000000   1739086   1740455   1742063   1743873   1745818  
  7290.000000   1747819   1749808   1751725   1753525   1755161  
  7280.000000   1756597   1757814   1758828   1759701   1760533  
  7270.000000   1761443   1762528   1763841   1765374   1767068  
  7260.000000   1768847   1770641   1772414   1774152   1775856  
  7250.000000   1777503   1779057   1780451   1781649   1782654  
  7240.000000   1783560   1784509   1785687   1787234   1789220  
  7230.000000   1791603   1794267   1797049   1799815   1802480  
  7220.000000   1805039   1807524   1810002   1812515   1815105  
  7210.000000   1817774   1820544   1823419   1826427   1829572  
  7200.000000   1832845   1836201   1839583   1842931   1846225  
  7190.000000   1849478   1852751   1856107   1859600   1863219  
  7180.000000   1866912   1870579   1874132   1877507   1880714  
  7170.000000   1883805   1886886   1890053   1893391   1896926  
  7160.000000   1900651   1904515   1908476   1912487   1916547  
  7150.000000   1920661   1924878   1929232   1933772   1938501  
  7140.000000   1943407   1948424   1953487   1958514   1963477  
  7130.000000   1968377   1973281   1978270   1983443   1988848  
  7120.000000   1994497   2000331   2006278   2012256   2018227  
  7110.000000   2024186   2030165   2036188   2042266   2048363  
  7100.000000   2054434   2060431   2066352   2072231   2078145  
  7090.000000   2084159   2090307   2096557   2102827   2109008  
  7080.000000   2115017   2120824   2126473   2132053   2137674  
  7070.000000   2143416   2149312   2155339   2161442   2167562  
  7060.000000   2173660   2179729   2185785   2191860   2197977  
  7050.000000   2204155   2210391   2216674   2222975   2229252  
  7040.000000   2235454   2241523   2247410   2253093   2258582  
  7030.000000   2263926   2269188   2274441   2279725   2285062  
  7020.000000   2290436   2295830   2301218   2306600   2311958  
  7010.000000   2317275   2322489   2327524   2332285   2336712  
  7000.000000   2340789   2344588   2348220   2351835   2355546  
  6990.000000   2359425   2363463   2367617   2371806   2375972  
  6980.000000   2380062   2384061   2387941   2391691   2395276  
  6970.000000   2398686   2401922   2405030   2408069   2411112  
  6960.000000   2414189   2417292   2420353   2423293   2426028  
  6950.000000   2428537   2430840   2433016   2435144   2437298  
  6940.000000   2439494   2441721   2443929   2446083   2448154  
  6930.000000   2450151   2452088   2453988   2455849   2457664  
  6920.000000   2459403   2461052   2462596   2464046   2465414  
  6910.000000   2466720   2467976   2469202   2470410   2471626  
  6900.000000   2472871   2474163   2475496   2476849   2478177  
  6890.000000   2479436   2480593   2481649   2482626   2483566  
  6880.000000   2484506   2485466   2486438   2487401   2488326  
  6870.000000   2489201   2490030   2490834   2491635   2492449  
  6860.000000   2493276   2494105   2494920   2495709   2496468  
  6850.000000   2497198   2497899   2498569   2499204   2499804  
  6840.000000   2500378   2500947   2501534   2502156   2502811  
  6830.000000   2503480   2504126   2504723   2505257   2505744  
  6820.000000   2506211   2506687   2507176   2507653   2508067  
  6810.000000   2508365   2508514   2508524   2508442   2508346  
  6800.000000   2508307   2508378   2508567   2508852   2509181  
  6790.000000   2509509   2509792   2510006   2510131   2510158  
  6780.000000   2510074   2509877   2509576   2509199   2508788  
  6770.000000   2508384   2508022   2507712   2507443   2507193  
  6760.000000   2506941   2506681   2506426   2506203   2506041  
  6750.000000   2505959   2505963   2506044   2506191   2506390  
  6740.000000   2506633   2506907   2507194   2507464   2507687  
  6730.000000   2507834   2507900   2507899   2507870   2507857  
  6720.000000   2507896   2508005   2508172   2508374   2508582  
  6710.000000   2508780   2508962   2509138   2509314   2509488  
  6700.000000   2509640   2509745   2509769   2509697   2509520  
  6690.000000   2509257   2508929   2508572   2508209   2507865  
  6680.000000   2507546   2507253   2506964   2506648   2506255  
  6670.000000   2505739   2505058   2504200   2503176   2502037  
  6660.000000   2500846   2499673   2498565   2497553   2496633  
  6650.000000   2495789   2494990   2494211   2493420   2492598  
  6640.000000   2491717   2490762   2489722   2488603   2487419  
  6630.000000   2486193   2484944   2483673   2482364   2480991  
  6620.000000   2479530   2477982   2476372   2474760   2473205  
  6610.000000   2471765   2470456   2469263   2468138   2467028  
  6600.000000   2465885   2464683   2463411   2462069   2460654  
  6590.000000   2459158   2457575   2455915   2454205   2452493  
  6580.000000   2450832   2449260   2447783   2446376   2444986  
  6570.000000   2443563   2442073   2440517   2438924   2437335  
  6560.000000   2435787   2434292   2432840   2431406   2429962  
  6550.000000   2428489   2426985   2425453   2423900   2422331  
  6540.000000   2420749   2419163   2417592   2416063   2414600  
  6530.000000   2413217   2411904   2410636   2409377   2408106  
  6520.000000   2406819   2405540   2404301   2403130   2402027  
  6510.000000   2400969   2399909   2398803   2397623   2396371  
  6500.000000   2395072   2393758   2392452   2391156   2389853  
  6490.000000   2388522   2387148   2385739   2384309   2382879  
  6480.000000   2381454   2380024   2378563   2377052   2375488  
  6470.000000   2373897   2372325   2370815   2369393   2368049  
  6460.000000   2366747   2365434   2364068   2362636   2361159  
  6450.000000   2359682   2358254   2356912   2355673   2354529  
  6440.000000   2353468   2352468   2351519   2350604   2349709  
  6430.000000   2348809   2347883   2346908   2345887   2344839  
  6420.000000   2343806   2342832   2341958   2341201   2340561  
  6410.000000   2340020   2339557   2339151   2338789   2338454  
  6400.000000   2338130   2337794   2337430   2337033   2336622  
  6390.000000   2336231   2335903   2335667   2335525   2335443  
  6380.000000   2335362   2335217   2334962   2334585   2334107  
  6370.000000   2333576   2333040   2332535   2332076   2331665  
  6360.000000   2331293   2330964   2330674   2330424   2330193  
  6350.000000   2329947   2329633   2329205   2328637   2327938  
  6340.000000   2327146   2326316   2325490   2324688   2323895  
  6330.000000   2323082   2322211   2321277   2320293   2319309  
  6320.000000   2318371   2317519   2316756   2316059   2315373  
  6310.000000   2314645   2313825   2312883   2311808   2310606  
  6300.000000   2309285   2307872   2306394   2304897   2303426  
  6290.000000   2302029   2300731   2299537   2298417   2297327  
  6280.000000   2296206   2295016   2293727   2292348   2290898  
  6270.000000   2289412   2287919   2286442   2284989   2283559  
  6260.000000   2282142   2280723   2279281   2277796   2276246  
  6250.000000   2274617   2272906   2271127   2269303   2267469  
  6240.000000   2265654   2263882   2262163   2260500   2258889  
  6230.000000   2257327   2255810   2254338   2252906   2251505  
  6220.000000   2250121   2248735   2247332   2245901   2244443  
  6210.000000   2242960   2241463   2239959   2238460   2236975  
  6200.000000   2235520   2234107   2232754   2231470   2230254  
  6190.000000   2229091   2227958   2226824   2225664   2224462  
  6180.000000   2223222   2221960   2220707   2219496   2218359  
  6170.000000   2217317   2216376   2215525   2214734   2213962  
  6160.000000   2213159   2212283   2211304   2210218   2209041  
  6150.000000   2207808   2206560   2205335   2204152   2203018  
  6140.000000   2201920   2200841   2199759   2198659   2197530  
  6130.000000   2196366   2195163   2193924   2192657   2191378  
  6120.000000   2190116   2188896   2187746   2186675   2185682  
  6110.000000   2184749   2183858   2182994   2182160   2181371  
  6100.000000   2180658   2180046   2179556   2179184   2178914  
  6090.000000   2178712   2178545   2178374   2178177   2177933  
  6080.000000   2177642   2177306   2176947   2176585   2176257  
  6070.000000   2175989   2175811   2175727   2175743   2175838  
  6060.000000   2176005   2176224   2176503   2176838   2177249  
  6050.000000   2177737   2178320   2178993   2179776   2180678  
  6040.000000   2181735   2182966   2184403   2186043   2187880  
  6030.000000   2189869   2191974   2194142   2196352   2198573  
  6020.000000   2200810   2203044   2205279   2207492   2209685  
  6010.000000   2211853   2214027   2216238   2218543   2220977  
  6000.000000   2223575   2226330   2229236   2232260   2235390  
  5990.000000   2238609   2241931   2245355   2248896   2252539  
  5980.000000   2256281   2260093   2263973   2267910   2271926  
  5970.000000   2276030   2280248   2284572   2289001   2293505  
  5960.000000   2298067   2302657   2307270   2311892   2316535  
  5950.000000   2321194   2325882   2330603   2335377   2340223  
  5940.000000   2345168   2350234   2355436   2360775   2366231  
  5930.000000   2371774   2377357   2382932   2388441   2393833  
  5920.000000   2399050   2404048   2408793   2413276   2417508  
  5910.000000   2421528   2425375   2429096   2432713   2436243  
  5900.000000   2439679   2443032   2446307   2449549   2452793  
  5890.000000   2456098   2459481   2462954   2466482   2470022  
  5880.000000   2473511   2476901   2480144   2483212   2486077  
  5870.000000   2488721   2491131   2493310   2495283   2497105  
  5860.000000   2498846   2500587   2502394   2504313   2506354  
  5850.000000   2508510   2510753   2513065   2515423   2517819  
  5840.000000   2520240   2522672   2525097   2527491   2529841  
  5830.000000   2532141   2534405   2536645   2538885   2541134  
  5820.000000   2543397   2545671   2547956   2550253   2552568  
  5810.000000   2554912   2557282   2559681   2562089   2564508  
  5800.000000   2566923   2569364   2571833   2574369   2576953  
  5790.000000   2579578   2582164   2584636   2586859   2588725  
  5780.000000   2590090   2590857   2590925   2590259   2588850  
  5770.000000   2586776   2584151   2581162   2577989   2574831  
  5760.000000   2571812   2569030   2566496   2564210   2562125  
  5750.000000   2560225   2558479   2556886   2555425   2554077  
  5740.000000   2552806   2551569   2550333   2549070   2547779  
  5730.000000   2546461   2545131   2543788   2542438   2541076  
  5720.000000   2539709   2538347   2537015   2535731   2534509  
  5710.000000   2533343   2532219   2531111   2530002   2528889  
  5700.000000   2527784   2526707   2525679   2524715   2523815  
  5690.000000   2522978   2522190   2521453   2520756   2520099  
  5680.000000   2519454   2518795   2518062   2517204   2516158  
  5670.000000   2514884   2513343   2511520   2509403   2506999  
  5660.000000   2504318   2501403   2498307   2495112   2491899  
  5650.000000   2488755   2485733   2482869   2480162   2477604  
  5640.000000   2475171   2472850   2470626   2468486   2466418  
  5630.000000   2464398   2462410   2460437   2458489   2456577  
  5620.000000   2454737   2452986   2451343   2449793   2448322  
  5610.000000   2446898   2445512   2444163   2442871   2441661  
  5600.000000   2440554   2439551   2438640   2437790   2436972  
  5590.000000   2436156   2435325   2434465   2433570   2432632  
  5580.000000   2431644   2430607   2429527   2428425   2427320  
  5570.000000   2426231   2425165   2424111   2423050   2421958  
  5560.000000   2420820   2419637   2418417   2417181   2415946  
  5550.000000   2414725   2413521   2412337   2411176   2410047  
  5540.000000   2408955   2407905   2406887   2405886   2404880  
  5530.000000   2403851   2402792   2401712   2400621   2399534  
  5520.000000   2398452   2397371   2396275   2395158   2394018  
  5510.000000   2392868   2391720   2390585   2389453   2388304  
  5500.000000   2387108   2385847   2384515   2383133   2381727  
  5490.000000   2380325   2378929   2377523   2376068   2374533  
  5480.000000   2372892   2371156   2369350   2367514   2365678  
  5470.000000   2363858   2362045   2360225   2358381   2356510  
  5460.000000   2354615   2352705   2350782   2348841   2346873  
  5450.000000   2344871   2342847   2340826   2338845   2336936  
  5440.000000   2335116   2333376   2331697   2330052   2328435  
  5430.000000   2326848   2325313   2323839   2322434   2321074  
  5420.000000   2319743   2318418   2317115   2315862   2314722  
  5410.000000   2313736   2312938   2312306   2311812   2311396  
  5400.000000   2311034   2310708   2310448   2310272   2310227  
  5390.000000   2310314   2310548   2310912   2311423   2312085  
  5380.000000   2312944   2314011   2315311   2316807   2318480  
  5370.000000   2320263   2322147   2324102   2326174   2328372  
  5360.000000   2330763   2333341   2336156   2339181   2342471  
  5350.000000   2346017   2349905   2354142   2358809   2363884  
  5340.000000   2369417   2375359   2381768   2388609   2395959  
  5330.000000   2403780   2412132   2420936   2430224   2439910  
  5320.000000   2450064   2460664   2471856   2483667   2496263  
  5310.000000   2509638   2523897   2538963   2554884   2571560  
  5300.000000   2589049   2607286   2626369   2646263   2667072  
  5290.000000   2688742   2711315   2734664   2758742   2783377  
  5280.000000   2808516   2834055   2860050   2886522   2913607  
  5270.000000   2941343   2969759   2998735   3028095   3057599  
  5260.000000   3087044   3116314   3145385   3174331   3203217  
  5250.000000   3232097   3260885   3289463   3317579   3345081  
  5240.000000   3371778   3397691   3422804   3447284   3471168  
  5230.000000   3494595   3517500   3539893   3561600   3582583  
  5220.000000   3602688   3621966   3640376   3658077   3675091  
  5210.000000   3691576   3707492   3722891   3737622   3751673  
  5200.000000   3764893   3777336   3788950   3799877   3810109  
  5190.000000   3819767   3828786   3837213   3844938   3852002  
  5180.000000   3858331   3864016   3869027   3873462   3877277  
  5170.000000   3880542   3883200   3885325   3886889   3887990  
  5160.000000   3888613   3888835   3888605   3887962   3886841  
  5150.000000   3885292   3883291   3880921   3878182   3875137  
  5140.000000   3871754   3868056   3863994   3859603   3854881  
  5130.000000   3849907   3844716   3839388   3833937   3828402  
  5120.000000   3822766   3817049   3811239   3805366   3799432  
  5110.000000   3793461   3787443   3781385   3775276   3769132  
  5100.000000   3762973   3756842   3750773   3744801   3738931  
  5090.000000   3733162   3727468   3721827   3716213   3710613  
  5080.000000   3705010   3699397   3693754   3688072   3682337  
  5070.000000   3676551   3670713   3664839   3658926   3652975  
  5060.000000   3646966   3640886   3634710   3628438   3622069  
  5050.000000   3615623   3609105   3602530   3595886   3589171  
  5040.000000   3582373   3575501   3568569   3561610   3554649  
  5030.000000   3547713   3540809   3533936   3527085   3520254  
  5020.000000   3513446   3506674   3499958   3493307   3486735  
  5010.000000   3480236   3473817   3467476   3461239   3455122  
  5000.000000   3449166   3443383   3437799   3432395   3427176  
  4990.000000   3422112   3417215   3412471   3407919   3403554  
  4980.000000   3399416   3395487   3391793   3388303   3385048  
  4970.000000   3382011   3379243   3376743   3374566   3372700  
  4960.000000   3371185   3369987   3369138   3368604   3368428  
  4950.000000   3368587   3369131   3370033   3371335   3372993  
  4940.000000   3375039   3377426   3380194   3383305   3386811  
  4930.000000   3390681   3394967   3399637   3404742   3410250  
  4920.000000   3416208   3422584   3429415   3436662   3444341  
  4910.000000   3452405   3460855   3469638   3478745   3488121  
  4900.000000   3497741   3507549   3517507   3527564   3537675  
  4890.000000   3547806   3557908   3567952   3577871   3587627  
  4880.000000   3597124   3606317   3615096   3623419   3631178  
  4870.000000   3638345   3644821   3650602   3655615   3659897  
  4860.000000   3663413   3666241   3668380   3669923   3670869  
  4850.000000   3671301   3671214   3670684   3669715   3668396  
  4840.000000   3666753   3664882   3662823   3660669   3658460  
  4830.000000   3656275   3654151   3652141   3650267   3648549  
  4820.000000   3646980   3645547   3644232   3643014   3641889  
  4810.000000   3640853   3639926   3639111   3638433   3637891  
  4800.000000   3637501   3637256   3637175   3637254   3637511  
  4790.000000   3637933   3638519   3639231   3640042   3640904  
  4780.000000   3641794   3642689   3643598   3644527   3645502  
  4770.000000   3646532   3647622   3648756   3649917   3651079  
  4760.000000   3652228   3653355   3654463   3655559   3656653  
  4750.000000   3657750   3658848   3659940   3661013   3662055  
  4740.000000   3663053   3663999   3664892   3665738   3666547  
  4730.000000   3667333   3668111   3668889   3669675   3670464  
  4720.000000   3671257   3672042   3672831   3673624   3674454  
  4710.000000   3675340   3676329   3677445   3678733   3680205  
  4700.000000   3681895   3683805   3685956   3688342   3690979  
  4690.000000   3693854   3696977   3700331   3703920   3707717  
  4680.000000   3711710   3715847   3720089   3724356   3728593  
  4670.000000   3732724   3736721   3740559   3744274   3747905  
  4660.000000   3751534   3755229   3759069   3763101   3767368  
  4650.000000   3771879   3776636   3781624   3786817   3792183  
  4640.000000   3797677   3803261   3808887   3814524   3820136  
  4630.000000   3825703   3831194   3836592   3841848   3846928  
  4620.000000   3851762   3856302   3860480   3864271   3867637  
  4610.000000   3870601   3873165   3875391   3877299   3878958  
  4600.000000   3880375   3881603   3882631   3883494   3884170  
  4590.000000   3884686   3885011   3885161   3885092   3884801  
  4580.000000   3884237   3883396   3882249   3880818   3879116  
  4570.000000   3877204   3875126   3872953   3870723   3868485  
  4560.000000   3866246   3864023   3861801   3859582   3857347  
  4550.000000   3855101   3852836   3850557   3848265   3845964  
  4540.000000   3843657   3841351   3839053   3836768   3834509  
  4530.000000   3832275   3830076   3827900   3825754   3823623  
  4520.000000   3821523   3819448   3817437   3815493   3813675  
  4510.000000   3811990   3810508   3809237   3808257   3807580  
  4500.000000   3807300   3807429   3808069   3809218   3810971  
  4490.000000   3813310   3816321   3819979   3824370   3829465  
  4480.000000   3835350   3841985   3849435   3857637   3866627  
  4470.000000   3876315   3886716   3897728   3909358   3921509  
  4460.000000   3934189   3947313   3960881   3974809   3989084  
  4450.000000   4003617   4018382   4033304   4048361   4063511  
  4440.000000   4078745   4094042   4109387   4124757   4140103  
  4430.000000   4155387   4170529   4185486   4200167   4214545  
  4420.000000   4228543   4242157   4255320   4268044   4280263  
  4410.000000   4291980   4303122   4313681   4323584   4332842  
  4400.000000   4341418   4349372   4356726   4363596   4370046  
  4390.000000   4376218   4382188   4388092   4393993   4399996  
  4380.000000   4406127   4412437   4418901   4425513   4432207  
  4370.000000   4438948   4445672   4452351   4458950   4465470  
  4360.000000   4471895   4478249   4484514   4490721   4496820  
  4350.000000   4502835   4508674   4514361   4519798   4525045  
  4340.000000   4530041   4534867   4539432   4543679   4547303  
  4330.000000   4549946   4551051   4550108   4546659   4540536  
  4320.000000   4531864   4521155   4509150   4496752   4484782  
  4310.000000   4473907   4464495   4456676   4450343   4445300  
  4300.000000   4441312   4438185   4435792   4434033   4432873  
  4290.000000   4432232   4432096   4432389   4433128   4434274  
  4280.000000   4435863   4437868   4440274   4443011   4445992  
  4270.000000   4449124   4452295   4455405   4458299   4460797  
  4260.000000   4462632   4463514   4463130   4461262   4457806  
  4250.000000   4452864   4446693   4439720   4432391   4425171  
  4240.000000   4418377   4412234   4406775   4401961   4397642  
  4230.000000   4393675   4389901   4386207   4382510   4378758  
  4220.000000   4374956   4371111   4367306   4363599   4360120  
  4210.000000   4356945   4354184   4351864   4350026   4348624  
  4200.000000   4347629   4346955   4346556   4346350   4346317  
  4190.000000   4346403   4346625   4346957   4347444   4348075  
  4180.000000   4348901   4349909   4351141   4352572   4354239  
  4170.000000   4356123   4358275   4360696   4363458   4366572  
  4160.000000   4370107   4374054   4378452   4383260   4388491  
  4150.000000   4394088   4400068   4406378   4413052   4420052  
  4140.000000   4427421   4435123   4443200   4451604   4460369  
  4130.000000   4469437   4478839   4488530   4498557   4508904  
  4120.000000   4519645   4530794   4542440   4554611   4567387  
  4110.000000   4580778   4594825   4609492   4624751   4640500  
  4100.000000   4656646   4673048   4689599   4706183   4722742  
  4090.000000   4739238   4755665   4772033   4788346   4804617  
  4080.000000   4820824   4836972   4853014   4868955   4884725  
  4070.000000   4900312   4915609   4930578   4945088   4959108  
  4060.000000   4972521   4985327   4997433   5008871   5019566  
  4050.000000   5029585   5038896   5047617   5055750   5063419  
  4040.000000   5070590   5077316   5083484   5089092   5094013  
  4030.000000   5098280   5101838   5104782   5107114   5108937  
  4020.000000   5110229   5111081   5111504   5111582   5111292  
  4010.000000   5110728   5109924   5108854   5107314   5105307  
  4000.000000   5103056  
##END= 
