##TITLE= Sample 025 By ssteindl date Montag, November 19 2018
##JCAMP-DX= 4.24
##DATA TYPE= INFRARED SPECTRUM
##ORIGIN= Exported PE Spectrum Data File
##OWNER= Sandra Steindl
##DATE= 18/11/19
##TIME= 17:53:24.00
##SPECTROMETER/DATA SYSTEM= PERKIN-ELMER Frontier FT-IR/NIR IR
##INSTRUMENT PARAMETERS=
  APODIZATION=stark
  DETECTOR=INGAAS
##RESOLUTION= 16.000000
##DELTAX= -2.000000
##XUNITS= 1/CM
##YUNITS= A
##XFACTOR= 1.00
##YFACTOR= 0.00000011920928955078
##FIRSTX= 10000.00
##LASTX= 4000.00
##NPOINTS= 3001
##FIRSTY= 0.212484
##MAXY= 0.591895
##MINY= 0.184312
##XYDATA= (X++(Y..Y))
 10000.000000   1782448   1780722   1779708   1780183   1781853  
  9990.000000   1783637   1784576   1784193   1782324   1779121  
  9980.000000   1775147   1771124   1767687   1765196   1763809  
  9970.000000   1763438   1763737   1764189   1764178   1763212  
  9960.000000   1761081   1758077   1754933   1752694   1752284  
  9950.000000   1754154   1757970   1762647   1766689   1768675  
  9940.000000   1767813   1764134   1758499   1752125   1746182  
  9930.000000   1741286   1737495   1734400   1731544   1728691  
  9920.000000   1725953   1723715   1722377   1722229   1723314  
  9910.000000   1725597   1728994   1733508   1739067   1745408  
  9900.000000   1751918   1757647   1761595   1763008   1761786  
  9890.000000   1758484   1754180   1749928   1746375   1743421  
  9880.000000   1740412   1736529   1731336   1725142   1718907  
  9870.000000   1713942   1711252   1711232   1713468   1717070  
  9860.000000   1721084   1724913   1728477   1731991   1735649  
  9850.000000   1739228   1742120   1743523   1742975   1740631  
  9840.000000   1737380   1734464   1732984   1733384   1735282  
  9830.000000   1737684   1739470   1739964   1739188   1737817  
  9820.000000   1736714   1736484   1737114   1738084   1738674  
  9810.000000   1738482   1737649   1736856   1736906   1738296  
  9800.000000   1740885   1743936   1746428   1747517   1746851  
  9790.000000   1744640   1741438   1737787   1733982   1730011  
  9780.000000   1725792   1721428   1717372   1714329   1712907  
  9770.000000   1713269   1714927   1716899   1718124   1717970  
  9760.000000   1716566   1714757   1713693   1714247   1716547  
  9750.000000   1719912   1723170   1725269   1725790   1725168  
  9740.000000   1724429   1724651   1726342   1729150   1731936  
  9730.000000   1733282   1732116   1728153   1722041   1715001  
  9720.000000   1708345   1702946   1699016   1696211   1693945  
  9710.000000   1691776   1689623   1687751   1686577   1686413  
  9700.000000   1687293   1689010   1691210   1693622   1696100  
  9690.000000   1698634   1701240   1703827   1706240   1708257  
  9680.000000   1709776   1710803   1711439   1711719   1711473  
  9670.000000   1710338   1707857   1703792   1698336   1692254  
  9660.000000   1686739   1683055   1682073   1683887   1687653  
  9650.000000   1691840   1694662   1694770   1691686   1686041  
  9640.000000   1679350   1673531   1670295   1670586   1674323  
  9630.000000   1680389   1687031   1692323   1694790   1693731  
  9620.000000   1689403   1682866   1675634   1669282   1664997  
  9610.000000   1663368   1664277   1667069   1670800   1674561  
  9600.000000   1677666   1679794   1680862   1680968   1680201  
  9590.000000   1678617   1676250   1673160   1669552   1665710  
  9580.000000   1662020   1658786   1656186   1654192   1652616  
  9570.000000   1651214   1649769   1648192   1646508   1644839  
  9560.000000   1643336   1642140   1641383   1641173   1641641  
  9550.000000   1642871   1644894   1647580   1650629   1653581  
  9540.000000   1655926   1657266   1657452   1656662   1655362  
  9530.000000   1654151   1653571   1653905   1655075   1656650  
  9520.000000   1657968   1658367   1657384   1654949   1651392  
  9510.000000   1647382   1643701   1641047   1639831   1640083  
  9500.000000   1641449   1643299   1644914   1645682   1645272  
  9490.000000   1643727   1641416   1638936   1636903   1635805  
  9480.000000   1635872   1637037   1638995   1641272   1643384  
  9470.000000   1644915   1645628   1645459   1644505   1642960  
  9460.000000   1641064   1639061   1637190   1635653   1634617  
  9450.000000   1634186   1634397   1635216   1636524   1638134  
  9440.000000   1639797   1641250   1642262   1642695   1642533  
  9430.000000   1641898   1641009   1640126   1639489   1639250  
  9420.000000   1639458   1640042   1640850   1641665   1642258  
  9410.000000   1642413   1641973   1640871   1639163   1637046  
  9400.000000   1634818   1632848   1631449   1630833   1631019  
  9390.000000   1631871   1633134   1634536   1635842   1636899  
  9380.000000   1637606   1637875   1637583   1636569   1634694  
  9370.000000   1631945   1628541   1624936   1621719   1619433  
  9360.000000   1618371   1618471   1619314   1620279   1620753  
  9350.000000   1620353   1619027   1617029   1614762   1612599  
  9340.000000   1610772   1609331   1608256   1607510   1607150  
  9330.000000   1607249   1607837   1608787   1609793   1610458  
  9320.000000   1610443   1609657   1608341   1607033   1606362  
  9310.000000   1606771   1608316   1610621   1613035   1614869  
  9300.000000   1615656   1615281   1614002   1612273   1610559  
  9290.000000   1609134   1608061   1607227   1606494   1605796  
  9280.000000   1605183   1604798   1604775   1605208   1606071  
  9270.000000   1607306   1608821   1610576   1612531   1614600  
  9260.000000   1616608   1618270   1619290   1619444   1618671  
  9250.000000   1617101   1614971   1612590   1610195   1607973  
  9240.000000   1606022   1604456   1603421   1603092   1603553  
  9230.000000   1604626   1605841   1606458   1605764   1603261  
  9220.000000   1598956   1593371   1587486   1582440   1579168  
  9210.000000   1578186   1579444   1582544   1586893   1591999  
  9200.000000   1597490   1603110   1608579   1613467   1617220  
  9190.000000   1619168   1618826   1615986   1610981   1604523  
  9180.000000   1597615   1591234   1586152   1582837   1581374  
  9170.000000   1581639   1583283   1585953   1589231   1592734  
  9160.000000   1596062   1598873   1600941   1602166   1602621  
  9150.000000   1602417   1601738   1600695   1599406   1597947  
  9140.000000   1596432   1595036   1593970   1593458   1593593  
  9130.000000   1594350   1595509   1596798   1597914   1598674  
  9120.000000   1598994   1598907   1598477   1597744   1596718  
  9110.000000   1595379   1593747   1591881   1589887   1587860  
  9100.000000   1585840   1583791   1581636   1579330   1576958  
  9090.000000   1574743   1573013   1572051   1571954   1572547  
  9080.000000   1573411   1574049   1574102   1573526   1572664  
  9070.000000   1572123   1572562   1574363   1577467   1581302  
  9060.000000   1584992   1587596   1588466   1587415   1584823  
  9050.000000   1581459   1578248   1576000   1575187   1575887  
  9040.000000   1577770   1580308   1582906   1585129   1586734  
  9030.000000   1587750   1588350   1588775   1589172   1589536  
  9020.000000   1589708   1589415   1588403   1586528   1583872  
  9010.000000   1580719   1577463   1574524   1572193   1570603  
  9000.000000   1569690   1569280   1569166   1569177   1569196  
  8990.000000   1569136   1568922   1568458   1567668   1566529  
  8980.000000   1565156   1563779   1562729   1562304   1562683  
  8970.000000   1563821   1565458   1567200   1568670   1569624  
  8960.000000   1570017   1569968   1569696   1569383   1569124  
  8950.000000   1568885   1568581   1568126   1567523   1566855  
  8940.000000   1566266   1565888   1565781   1565929   1566261  
  8930.000000   1566710   1567256   1567920   1568763   1569795  
  8920.000000   1570962   1572115   1573055   1573616   1573727  
  8910.000000   1573490   1573158   1573088   1573600   1574901  
  8900.000000   1576955   1579523   1582164   1584388   1585751  
  8890.000000   1586004   1585157   1583446   1581256   1578961  
  8880.000000   1576840   1574942   1573138   1571179   1568889  
  8870.000000   1566262   1563513   1561069   1559403   1558932  
  8860.000000   1559808   1561956   1565073   1568763   1572634  
  8850.000000   1576357   1579718   1582513   1584566   1585656  
  8840.000000   1585650   1584507   1582416   1579735   1576966  
  8830.000000   1574599   1572974   1572223   1572252   1572884  
  8820.000000   1573927   1575296   1576954   1578882   1580965  
  8810.000000   1582964   1584553   1585423   1585454   1584767  
  8800.000000   1583754   1582902   1582644   1583157   1584322  
  8790.000000   1585785   1587117   1588010   1588371   1588357  
  8780.000000   1588249   1588339   1588780   1589563   1590548  
  8770.000000   1591558   1592477   1593259   1593913   1594422  
  8760.000000   1594706   1594638   1594105   1593123   1591871  
  8750.000000   1590694   1589989   1590061   1591005   1592648  
  8740.000000   1594607   1596409   1597659   1598144   1597892  
  8730.000000   1597102   1596071   1595083   1594358   1594046  
  8720.000000   1594231   1594964   1596245   1598034   1600213  
  8710.000000   1602605   1604983   1607135   1608901   1610198  
  8700.000000   1611023   1611393   1611338   1610858   1609977  
  8690.000000   1608759   1607369   1606064   1605145   1604880  
  8680.000000   1605389   1606620   1608327   1610174   1611817  
  8670.000000   1613028   1613749   1614096   1614299   1614601  
  8660.000000   1615188   1616118   1617346   1618725   1620094  
  8650.000000   1621285   1622200   1622785   1623061   1623097  
  8640.000000   1623008   1622938   1623038   1623456   1624315  
  8630.000000   1625685   1627548   1629811   1632298   1634815  
  8620.000000   1637155   1639181   1640856   1642242   1643496  
  8610.000000   1644764   1646152   1647600   1648912   1649761  
  8600.000000   1649843   1648986   1647280   1645113   1643099  
  8590.000000   1641940   1642173   1644046   1647382   1651690  
  8580.000000   1656275   1660492   1663901   1666374   1668059  
  8570.000000   1669238   1670180   1670998   1671647   1671956  
  8560.000000   1671775   1671047   1669889   1668557   1667364  
  8550.000000   1666596   1666398   1666783   1667618   1668723  
  8540.000000   1669904   1671028   1672017   1672862   1673596  
  8530.000000   1674281   1674993   1675807   1676778   1677919  
  8520.000000   1679192   1680490   1681675   1682593   1683135  
  8510.000000   1683253   1682986   1682428   1681711   1680968  
  8500.000000   1680324   1679878   1679699   1679839   1680304  
  8490.000000   1681072   1682056   1683144   1684222   1685216  
  8480.000000   1686123   1686988   1687898   1688881   1689890  
  8470.000000   1690752   1691261   1691226   1690609   1689562  
  8460.000000   1688427   1687650   1687630   1688598   1690523  
  8450.000000   1693143   1696048   1698818   1701132   1702834  
  8440.000000   1703935   1704549   1704825   1704897   1704883  
  8430.000000   1704891   1705048   1705484   1706301   1707512  
  8420.000000   1708990   1710502   1711751   1712512   1712685  
  8410.000000   1712375   1711842   1711420   1711372   1711813  
  8400.000000   1712661   1713706   1714685   1715402   1715778  
  8390.000000   1715869   1715794   1715669   1715540   1715365  
  8380.000000   1715045   1714485   1713645   1712565   1711344  
  8370.000000   1710119   1709004   1708105   1707476   1707176  
  8360.000000   1707242   1707706   1708543   1709646   1710818  
  8350.000000   1711790   1712302   1712152   1711284   1709785  
  8340.000000   1707891   1705890   1704063   1702605   1701611  
  8330.000000   1701089   1700986   1701242   1701787   1702565  
  8320.000000   1703499   1704496   1705429   1706164   1706599  
  8310.000000   1706673   1706407   1705862   1705149   1704370  
  8300.000000   1703613   1702933   1702346   1701867   1701492  
  8290.000000   1701241   1701121   1701155   1701350   1701701  
  8280.000000   1702157   1702625   1702956   1702981   1702538  
  8270.000000   1701521   1699926   1697883   1695655   1693570  
  8260.000000   1691936   1690947   1690616   1690774   1691116  
  8250.000000   1691305   1691071   1690317   1689129   1687756  
  8240.000000   1686494   1685609   1685243   1685403   1685966  
  8230.000000   1686739   1687513   1688101   1688366   1688213  
  8220.000000   1687586   1686465   1684869   1682872   1680606  
  8210.000000   1678257   1676026   1674099   1672590   1671549  
  8200.000000   1670922   1670608   1670458   1670332   1670099  
  8190.000000   1669663   1668957   1667934   1666584   1664913  
  8180.000000   1662977   1660853   1658658   1656515   1654545  
  8170.000000   1652850   1651492   1650508   1649882   1649580  
  8160.000000   1649524   1649626   1649774   1649862   1649793  
  8150.000000   1649490   1648909   1648023   1646832   1645334  
  8140.000000   1643544   1641483   1639200   1636784   1634365  
  8130.000000   1632100   1630145   1628620   1627566   1626941  
  8120.000000   1626614   1626402   1626121   1625625   1624866  
  8110.000000   1623882   1622806   1621797   1621014   1620548  
  8100.000000   1620415   1620549   1620830   1621130   1621347  
  8090.000000   1621447   1621445   1621398   1621351   1621304  
  8080.000000   1621196   1620912   1620325   1619335   1617924  
  8070.000000   1616165   1614213   1612265   1610502   1609053  
  8060.000000   1607953   1607165   1606594   1606139   1605719  
  8050.000000   1605301   1604883   1604484   1604117   1603767  
  8040.000000   1603397   1602953   1602399   1601718   1600939  
  8030.000000   1600113   1599305   1598572   1597943   1597414  
  8020.000000   1596951   1596502   1596011   1595436   1594749  
  8010.000000   1593947   1593044   1592070   1591071   1590095  
  8000.000000   1589194   1588415   1587789   1587329   1587020  
  7990.000000   1586827   1586694   1586569   1586405   1586187  
  7980.000000   1585927   1585654   1585413   1585220   1585068  
  7970.000000   1584894   1584609   1584108   1583319   1582228  
  7960.000000   1580904   1579493   1578190   1577196   1576659  
  7950.000000   1576640   1577090   1577863   1578756   1579552  
  7940.000000   1580079   1580235   1580012   1579473   1578735  
  7930.000000   1577929   1577179   1576577   1576190   1576040  
  7920.000000   1576132   1576433   1576886   1577408   1577888  
  7910.000000   1578220   1578311   1578125   1577699   1577153  
  7900.000000   1576666   1576436   1576620   1577283   1578366  
  7890.000000   1579689   1580999   1582025   1582561   1582503  
  7880.000000   1581890   1580865   1579649   1578469   1577517  
  7870.000000   1576916   1576711   1576889   1577385   1578124  
  7860.000000   1579011   1579963   1580890   1581728   1582419  
  7850.000000   1582938   1583281   1583457   1583482   1583350  
  7840.000000   1583052   1582553   1581835   1580901   1579794  
  7830.000000   1578600   1577426   1576387   1575564   1575013  
  7820.000000   1574737   1574725   1574943   1575367   1575965  
  7810.000000   1576707   1577534   1578363   1579087   1579582  
  7800.000000   1579753   1579530   1578913   1577950   1576746  
  7790.000000   1575424   1574112   1572920   1571922   1571164  
  7780.000000   1570655   1570383   1570310   1570388   1570552  
  7770.000000   1570732   1570853   1570847   1570666   1570285  
  7760.000000   1569720   1569014   1568245   1567501   1566861  
  7750.000000   1566382   1566076   1565921   1565861   1565831  
  7740.000000   1565772   1565645   1565424   1565092   1564630  
  7730.000000   1564006   1563189   1562166   1560965   1559668  
  7720.000000   1558407   1557334   1556577   1556200   1556168  
  7710.000000   1556369   1556630   1556787   1556722   1556404  
  7700.000000   1555887   1555282   1554719   1554291   1554039  
  7690.000000   1553928   1553874   1553763   1553494   1553002  
  7680.000000   1552281   1551389   1550432   1549552   1548883  
  7670.000000   1548531   1548538   1548866   1549406   1549997  
  7660.000000   1550469   1550683   1550576   1550161   1549527  
  7650.000000   1548794   1548082   1547466   1546983   1546621  
  7640.000000   1546364   1546194   1546119   1546156   1546316  
  7630.000000   1546588   1546925   1547266   1547550   1547759  
  7620.000000   1547928   1548136   1548484   1549038   1549802  
  7610.000000   1550683   1551522   1552126   1552349   1552137  
  7600.000000   1551557   1550785   1550048   1549564   1549475  
  7590.000000   1549812   1550487   1551330   1552136   1552733  
  7580.000000   1553017   1552976   1552673   1552223   1551752  
  7570.000000   1551374   1551167   1551163   1551351   1551681  
  7560.000000   1552083   1552474   1552781   1552947   1552952  
  7550.000000   1552814   1552589   1552355   1552199   1552184  
  7540.000000   1552351   1552700   1553211   1553836   1554529  
  7530.000000   1555237   1555919   1556536   1557067   1557502  
  7520.000000   1557859   1558175   1558517   1558952   1559539  
  7510.000000   1560299   1561216   1562230   1563268   1564260  
  7500.000000   1565164   1565979   1566735   1567477   1568248  
  7490.000000   1569066   1569931   1570822   1571719   1572600  
  7480.000000   1573454   1574272   1575053   1575791   1576495  
  7470.000000   1577181   1577894   1578678   1579582   1580619  
  7460.000000   1581773   1582983   1584181   1585317   1586396  
  7450.000000   1587481   1588681   1590111   1591847   1593889  
  7440.000000   1596144   1598456   1600659   1602614   1604263  
  7430.000000   1605614   1606747   1607756   1608730   1609717  
  7420.000000   1610730   1611762   1612803   1613864   1614975  
  7410.000000   1616179   1617511   1618990   1620599   1622296  
  7400.000000   1624017   1625697   1627284   1628745   1630083  
  7390.000000   1631313   1632478   1633609   1634733   1635850  
  7380.000000   1636945   1637998   1639006   1639999   1641043  
  7370.000000   1642228   1643639   1645323   1647258   1649356  
  7360.000000   1651487   1653518   1655360   1656990   1658456  
  7350.000000   1659844   1661239   1662687   1664179   1665666  
  7340.000000   1667093   1668438   1669723   1671004   1672343  
  7330.000000   1673770   1675263   1676753   1678150   1679389  
  7320.000000   1680451   1681381   1682267   1683207   1684273  
  7310.000000   1685491   1686838   1688260   1689697   1691103  
  7300.000000   1692458   1693765   1695032   1696273   1697493  
  7290.000000   1698697   1699891   1701076   1702253   1703411  
  7280.000000   1704528   1705572   1706514   1707336   1708048  
  7270.000000   1708680   1709280   1709903   1710595   1711390  
  7260.000000   1712311   1713361   1714540   1715827   1717197  
  7250.000000   1718600   1719992   1721326   1722589   1723794  
  7240.000000   1725001   1726274   1727686   1729267   1731023  
  7230.000000   1732914   1734902   1736944   1739034   1741176  
  7220.000000   1743394   1745691   1748064   1750480   1752914  
  7210.000000   1755340   1757768   1760213   1762712   1765275  
  7200.000000   1767905   1770575   1773268   1775977   1778732  
  7190.000000   1781582   1784591   1787792   1791191   1794732  
  7180.000000   1798342   1801929   1805436   1808821   1812089  
  7170.000000   1815244   1818314   1821309   1824265   1827214  
  7160.000000   1830226   1833365   1836700   1840257   1844031  
  7150.000000   1847961   1851979   1856009   1860019   1864001  
  7140.000000   1868000   1872052   1876201   1880448   1884800  
  7130.000000   1889242   1893799   1898494   1903382   1908475  
  7120.000000   1913765   1919174   1924609   1929959   1935169  
  7110.000000   1940228   1945210   1950206   1955330   1960644  
  7100.000000   1966178   1971896   1977749   1983671   1989627  
  7090.000000   1995592   2001570   2007566   2013593   2019656  
  7080.000000   2025763   2031917   2038127   2044385   2050681  
  7070.000000   2056978   2063239   2069420   2075500   2081475  
  7060.000000   2087372   2093231   2099103   2105033   2111054  
  7050.000000   2117178   2123396   2129674   2135955   2142169  
  7040.000000   2148244   2154130   2159810   2165320   2170734  
  7030.000000   2176147   2181632   2187228   2192906   2198605  
  7020.000000   2204234   2209738   2215091   2220328   2225493  
  7010.000000   2230639   2235767   2240851   2245825   2250633  
  7000.000000   2255241   2259665   2263947   2268151   2272310  
  6990.000000   2276446   2280539   2284585   2288573   2292535  
  6980.000000   2296500   2300504   2304539   2308573   2312528  
  6970.000000   2316335   2319934   2323313   2326489   2329518  
  6960.000000   2332443   2335312   2338143   2340957   2343760  
  6950.000000   2346571   2349388   2352207   2354982   2357666  
  6940.000000   2360194   2362537   2364694   2366712   2368649  
  6930.000000   2370562   2372468   2374350   2376160   2377858  
  6920.000000   2379427   2380904   2382347   2383829   2385390  
  6910.000000   2387035   2388719   2390388   2391987   2393496  
  6900.000000   2394917   2396281   2397604   2398898   2400146  
  6890.000000   2401334   2402448   2403496   2404491   2405453  
  6880.000000   2406383   2407269   2408084   2408816   2409468  
  6870.000000   2410077   2410689   2411348   2412067   2412827  
  6860.000000   2413581   2414284   2414907   2415459   2415971  
  6850.000000   2416486   2417032   2417616   2418222   2418834  
  6840.000000   2419443   2420066   2420727   2421449   2422224  
  6830.000000   2423027   2423804   2424516   2425141   2425694  
  6820.000000   2426204   2426695   2427158   2427551   2427804  
  6810.000000   2427863   2427709   2427384   2426974   2426584  
  6800.000000   2426290   2426127   2426063   2426041   2425991  
  6790.000000   2425874   2425678   2425427   2425143   2424844  
  6780.000000   2424526   2424181   2423807   2423423   2423063  
  6770.000000   2422771   2422571   2422459   2422398   2422341  
  6760.000000   2422241   2422079   2421862   2421614   2421361  
  6750.000000   2421114   2420870   2420616   2420348   2420074  
  6740.000000   2419816   2419593   2419410   2419245   2419054  
  6730.000000   2418796   2418444   2418011   2417542   2417101  
  6720.000000   2416744   2416502   2416369   2416314   2416290  
  6710.000000   2416262   2416199   2416082   2415887   2415586  
  6700.000000   2415143   2414534   2413756   2412839   2411838  
  6690.000000   2410823   2409850   2408958   2408147   2407410  
  6680.000000   2406723   2406081   2405473   2404897   2404329  
  6670.000000   2403728   2403035   2402194   2401172   2399975  
  6660.000000   2398646   2397257   2395881   2394578   2393377  
  6650.000000   2392283   2391281   2390352   2389467   2388600  
  6640.000000   2387713   2386765   2385715   2384543   2383253  
  6630.000000   2381885   2380495   2379141   2377854   2376635  
  6620.000000   2375447   2374244   2372982   2371652   2370267  
  6610.000000   2368866   2367480   2366127   2364793   2363447  
  6600.000000   2362052   2360587   2359052   2357464   2355850  
  6590.000000   2354232   2352620   2351020   2349435   2347876  
  6580.000000   2346363   2344920   2343560   2342280   2341056  
  6570.000000   2339853   2338635   2337378   2336077   2334743  
  6560.000000   2333397   2332058   2330739   2329440   2328158  
  6550.000000   2326882   2325600   2324299   2322967   2321595  
  6540.000000   2320180   2318732   2317270   2315820   2314401  
  6530.000000   2313021   2311669   2310325   2308973   2307618  
  6520.000000   2306287   2305031   2303897   2302908   2302046  
  6510.000000   2301250   2300434   2299514   2298442   2297216  
  6500.000000   2295883   2294514   2293180   2291922   2290752  
  6490.000000   2289653   2288599   2287576   2286582   2285637  
  6480.000000   2284756   2283946   2283189   2282451   2281687  
  6470.000000   2280856   2279930   2278896   2277759   2276532  
  6460.000000   2275240   2273912   2272587   2271306   2270105  
  6450.000000   2269009   2268022   2267129   2266299   2265500  
  6440.000000   2264707   2263912   2263118   2262334   2261571  
  6430.000000   2260827   2260101   2259387   2258691   2258018  
  6420.000000   2257386   2256797   2256253   2255733   2255222  
  6410.000000   2254702   2254180   2253671   2253208   2252813  
  6400.000000   2252499   2252252   2252050   2251865   2251681  
  6390.000000   2251494   2251314   2251148   2250993   2250828  
  6380.000000   2250625   2250354   2250006   2249593   2249149  
  6370.000000   2248714   2248318   2247974   2247668   2247379  
  6360.000000   2247079   2246752   2246387   2245979   2245515  
  6350.000000   2244977   2244344   2243605   2242770   2241878  
  6340.000000   2240983   2240146   2239404   2238765   2238199  
  6330.000000   2237660   2237090   2236456   2235740   2234957  
  6320.000000   2234129   2233285   2232441   2231608   2230783  
  6310.000000   2229967   2229153   2228339   2227512   2226658  
  6300.000000   2225754   2224785   2223739   2222624   2221457  
  6290.000000   2220265   2219065   2217873   2216685   2215492  
  6280.000000   2214282   2213044   2211771   2210458   2209099  
  6270.000000   2207691   2206228   2204717   2203171   2201622  
  6260.000000   2200099   2198633   2197234   2195902   2194611  
  6250.000000   2193335   2192042   2190712   2189330   2187887  
  6240.000000   2186375   2184785   2183109   2181348   2179516  
  6230.000000   2177639   2175754   2173898   2172101   2170380  
  6220.000000   2168744   2167194   2165733   2164364   2163085  
  6210.000000   2161889   2160754   2159644   2158520   2157342  
  6200.000000   2156090   2154761   2153374   2151957   2150543  
  6190.000000   2149155   2147811   2146520   2145283   2144100  
  6180.000000   2142965   2141864   2140779   2139689   2138577  
  6170.000000   2137439   2136283   2135129   2134001   2132916  
  6160.000000   2131874   2130866   2129872   2128876   2127869  
  6150.000000   2126851   2125826   2124789   2123724   2122603  
  6140.000000   2121395   2120082   2118672   2117197   2115710  
  6130.000000   2114267   2112911   2111662   2110512   2109436  
  6120.000000   2108402   2107381   2106358   2105323   2104278  
  6110.000000   2103224   2102168   2101120   2100101   2099128  
  6100.000000   2098228   2097411   2096683   2096028   2095429  
  6090.000000   2094861   2094314   2093784   2093284   2092825  
  6080.000000   2092421   2092074   2091786   2091546   2091353  
  6070.000000   2091198   2091083   2090995   2090935   2090886  
  6060.000000   2090852   2090830   2090845   2090916   2091082  
  6050.000000   2091358   2091762   2092287   2092935   2093692  
  6040.000000   2094570   2095571   2096715   2097993   2099399  
  6030.000000   2100892   2102441   2104002   2105568   2107134  
  6020.000000   2108732   2110386   2112130   2113969   2115911  
  6010.000000   2117934   2120031   2122182   2124389   2126639  
  6000.000000   2128938   2131273   2133653   2136073   2138557  
  5990.000000   2141116   2143785   2146572   2149492   2152531  
  5980.000000   2155680   2158917   2162244   2165657   2169177  
  5970.000000   2172805   2176549   2180381   2184280   2188204  
  5960.000000   2192135   2196053   2199969   2203884   2207814  
  5950.000000   2211755   2215712   2219681   2223679   2227728  
  5940.000000   2231868   2236134   2240549   2245112   2249794  
  5930.000000   2254547   2259310   2264026   2268648   2273142  
  5920.000000   2277482   2281652   2285641   2289445   2293072  
  5910.000000   2296542   2299881   2303123   2306287   2309394  
  5900.000000   2312445   2315455   2318425   2321384   2324348  
  5890.000000   2327351   2330397   2333491   2336606   2339715  
  5880.000000   2342779   2345771   2348665   2351449   2354109  
  5870.000000   2356642   2359043   2361320   2363490   2365582  
  5860.000000   2367629   2369661   2371693   2373731   2375771  
  5850.000000   2377815   2379869   2381960   2384116   2386365  
  5840.000000   2388713   2391144   2393625   2396111   2398569  
  5830.000000   2400978   2403338   2405656   2407942   2410193  
  5820.000000   2412406   2414571   2416695   2418797   2420912  
  5810.000000   2423079   2425319   2427636   2429997   2432371  
  5800.000000   2434705   2436989   2439207   2441396   2443561  
  5790.000000   2445731   2447869   2449941   2451839   2453465  
  5780.000000   2454671   2455347   2455375   2454705   2453323  
  5770.000000   2451304   2448763   2445885   2442849   2439836  
  5760.000000   2436961   2434306   2431874   2429661   2427631  
  5750.000000   2425775   2424081   2422558   2421197   2419982  
  5740.000000   2418880   2417847   2416851   2415861   2414875  
  5730.000000   2413887   2412907   2411927   2410947   2409960  
  5720.000000   2408974   2408007   2407088   2406244   2405491  
  5710.000000   2404819   2404206   2403615   2403016   2402390  
  5700.000000   2401736   2401064   2400384   2399708   2399037  
  5690.000000   2398381   2397748   2397164   2396647   2396220  
  5680.000000   2395865   2395555   2395215   2394772   2394139  
  5670.000000   2393259   2392083   2390600   2388807   2386726  
  5660.000000   2384384   2381834   2379137   2376379   2373636  
  5650.000000   2370984   2368461   2366082   2363822   2361653  
  5640.000000   2359539   2357464   2355426   2353435   2351501  
  5630.000000   2349625   2347806   2346034   2344311   2342645  
  5620.000000   2341059   2339563   2338168   2336856   2335599  
  5610.000000   2334361   2333117   2331858   2330600   2329369  
  5600.000000   2328193   2327085   2326046   2325058   2324099  
  5590.000000   2323148   2322195   2321233   2320258   2319263  
  5580.000000   2318238   2317176   2316076   2314947   2313810  
  5570.000000   2312685   2311588   2310518   2309462   2308400  
  5560.000000   2307307   2306174   2304996   2303783   2302547  
  5550.000000   2301299   2300048   2298800   2297563   2296345  
  5540.000000   2295155   2293999   2292874   2291769   2290671  
  5530.000000   2289570   2288461   2287357   2286273   2285228  
  5520.000000   2284229   2283274   2282350   2281435   2280508  
  5510.000000   2279550   2278543   2277474   2276326   2275092  
  5500.000000   2273769   2272375   2270942   2269516   2268134  
  5490.000000   2266817   2265549   2264291   2262986   2261591  
  5480.000000   2260078   2258462   2256773   2255058   2253346  
  5470.000000   2251654   2249968   2248271   2246546   2244790  
  5460.000000   2243009   2241216   2239413   2237596   2235748  
  5450.000000   2233855   2231912   2229933   2227943   2225968  
  5440.000000   2224028   2222126   2220265   2218443   2216675  
  5430.000000   2214982   2213392   2211912   2210535   2209220  
  5420.000000   2207929   2206623   2205304   2203995   2202759  
  5410.000000   2201642   2200687   2199882   2199208   2198618  
  5400.000000   2198098   2197638   2197275   2197030   2196938  
  5390.000000   2196988   2197175   2197458   2197839   2198314  
  5380.000000   2198933   2199720   2200724   2201932   2203339  
  5370.000000   2204890   2206574   2208353   2210261   2212294  
  5360.000000   2214507   2216887   2219477   2222252   2225266  
  5350.000000   2228526   2232126   2236094   2240523   2245399  
  5340.000000   2250762   2256542   2262759   2269343   2276338  
  5330.000000   2283695   2291478   2299638   2308237   2317227  
  5320.000000   2326692   2336613   2347113   2358187   2369962  
  5310.000000   2382407   2395612   2409507   2424156   2439490  
  5300.000000   2455589   2472409   2490059   2508513   2527880  
  5290.000000   2548113   2569264   2591218   2613940   2637263  
  5280.000000   2661138   2685455   2710261   2735564   2761490  
  5270.000000   2788066   2815324   2843140   2871355   2899738  
  5260.000000   2928107   2956354   2984474   3012541   3040623  
  5250.000000   3068765   3096874   3124816   3152333   3179262  
  5240.000000   3205416   3230811   3255439   3279460   3302915  
  5230.000000   3325928   3348433   3370431   3391753   3412365  
  5220.000000   3432130   3451111   3469283   3486811   3503718  
  5210.000000   3520155   3536068   3551489   3566251   3580319  
  5200.000000   3593533   3605939   3617491   3628337   3638482  
  5190.000000   3648058   3657011   3665389   3673081   3680123  
  5180.000000   3686435   3692105   3697098   3701513   3705299  
  5170.000000   3708515   3711092   3713094   3714492   3715398  
  5160.000000   3715822   3715879   3715554   3714906   3713876  
  5150.000000   3712497   3710718   3708591   3706093   3703283  
  5140.000000   3700136   3696693   3692923   3688868   3684523  
  5130.000000   3679950   3675160   3670207   3665080   3659803  
  5120.000000   3654348   3648735   3642961   3637074   3631096  
  5110.000000   3625079   3619034   3612985   3606923   3600857  
  5100.000000   3594786   3588733   3582708   3576736   3570818  
  5090.000000   3564956   3559131   3553332   3547539   3541745  
  5080.000000   3535936   3530108   3524246   3518341   3512379  
  5070.000000   3506362   3500292   3494193   3488077   3481968  
  5060.000000   3475869   3469781   3463683   3457561   3451380  
  5050.000000   3445125   3438769   3432303   3425712   3419003  
  5040.000000   3412182   3405272   3398299   3391295   3384286  
  5030.000000   3377291   3370321   3363379   3356464   3349576  
  5020.000000   3342720   3335905   3329144   3322448   3315833  
  5010.000000   3309307   3302891   3296590   3290427   3284399  
  5000.000000   3278521   3272772   3267156   3261645   3256252  
  4990.000000   3250968   3245836   3240869   3236123   3231604  
  4980.000000   3227351   3223342   3219599   3216087   3212833  
  4970.000000   3209819   3207089   3204635   3202503   3200671  
  4960.000000   3199174   3197976   3197109   3196544   3196328  
  4950.000000   3196441   3196939   3197800   3199072   3200721  
  4940.000000   3202785   3205223   3208066   3211267   3214855  
  4930.000000   3218776   3223057   3227648   3232587   3237842  
  4920.000000   3243463   3249429   3255783   3262491   3269573  
  4910.000000   3276981   3284717   3292734   3301034   3309581  
  4900.000000   3318367   3327355   3336522   3345822   3355217  
  4890.000000   3364665   3374115   3383528   3392839   3402000  
  4880.000000   3410927   3419574   3427856   3435743   3443167  
  4870.000000   3450125   3456566   3462504   3467897   3472775  
  4860.000000   3477107   3480938   3484251   3487105   3489495  
  4850.000000   3491484   3493081   3494360   3495343   3496112  
  4840.000000   3496693   3497157   3497521   3497831   3498091  
  4830.000000   3498333   3498562   3498809   3499085   3499411  
  4820.000000   3499791   3500226   3500707   3501227   3501781  
  4810.000000   3502371   3503007   3503700   3504463   3505297  
  4800.000000   3506205   3507178   3508216   3509315   3510481  
  4790.000000   3511716   3513023   3514392   3515811   3517256  
  4780.000000   3518706   3520145   3521567   3522976   3524385  
  4770.000000   3525810   3527259   3528737   3530232   3531728  
  4760.000000   3533201   3534626   3535980   3537248   3538420  
  4750.000000   3539499   3540490   3541407   3542259   3543059  
  4740.000000   3543802   3544491   3545110   3545655   3546115  
  4730.000000   3546495   3546797   3547034   3547218   3547361  
  4720.000000   3547474   3547561   3547632   3547692   3547754  
  4710.000000   3547827   3547931   3548078   3548295   3548599  
  4700.000000   3549027   3549603   3550368   3551345   3552561  
  4690.000000   3554019   3555719   3557635   3559749   3562019  
  4680.000000   3564419   3566901   3569438   3571976   3574485  
  4670.000000   3576915   3579253   3581474   3583604   3585665  
  4660.000000   3587715   3589804   3591998   3594338   3596867  
  4650.000000   3599599   3602544   3605691   3609027   3612525  
  4640.000000   3616155   3619888   3623693   3627548   3631428  
  4630.000000   3635321   3639204   3643061   3646857   3650565  
  4620.000000   3654136   3657538   3660725   3663681   3666376  
  4610.000000   3668814   3670980   3672893   3674545   3675963  
  4600.000000   3677140   3678112   3678879   3679479   3679913  
  4590.000000   3680218   3680384   3680432   3680338   3680106  
  4580.000000   3679706   3679138   3678375   3677429   3676290  
  4570.000000   3674982   3673515   3671925   3670230   3668467  
  4560.000000   3666654   3664822   3662977   3661137   3659298  
  4550.000000   3657461   3655611   3653740   3651829   3649872  
  4540.000000   3647865   3645816   3643744   3641674   3639635  
  4530.000000   3637645   3635727   3633876   3632099   3630381  
  4520.000000   3628734   3627148   3625654   3624247   3622971  
  4510.000000   3621812   3620815   3619964   3619324   3618897  
  4500.000000   3618788   3619026   3619738   3620954   3622790  
  4490.000000   3625251   3628427   3632296   3636934   3642302  
  4480.000000   3648466   3655373   3663072   3671492   3680663  
  4470.000000   3690499   3701018   3712125   3723824   3736013  
  4460.000000   3748680   3761717   3775107   3788756   3802655  
  4450.000000   3816740   3831016   3845446   3860039   3874774  
  4440.000000   3889645   3904630   3919700   3934828   3949958  
  4430.000000   3965058   3980050   3994898   4009512   4023858  
  4420.000000   4037845   4051449   4064582   4077231   4089308  
  4410.000000   4100799   4111615   4121748   4131126   4139778  
  4400.000000   4147687   4154943   4161591   4167768   4173549  
  4390.000000   4179074   4184408   4189666   4194886   4200145  
  4380.000000   4205449   4210840   4216299   4221842   4227444  
  4370.000000   4233122   4238867   4244701   4250622   4256642  
  4360.000000   4262739   4268904   4275084   4281264   4287360  
  4350.000000   4293363   4299169   4304786   4310121   4315229  
  4340.000000   4320067   4324721   4329129   4333247   4336805  
  4330.000000   4339465   4340697   4340006   4336941   4331334  
  4320.000000   4323294   4313309   4302092   4290510   4279348  
  4310.000000   4269242   4260529   4253319   4247493   4242850  
  4300.000000   4239156   4236229   4233949   4232228   4231037  
  4290.000000   4230301   4230001   4230062   4230492   4231258  
  4280.000000   4232400   4233911   4235799   4238030   4240549  
  4270.000000   4243294   4246175   4249104   4251934   4254479  
  4260.000000   4256472   4257610   4257576   4256131   4253155  
  4250.000000   4248725   4243076   4236614   4229780   4223038  
  4240.000000   4216727   4211090   4206188   4201993   4198359  
  4230.000000   4195132   4192137   4189238   4186342   4183394  
  4220.000000   4180408   4177406   4174482   4171703   4169193  
  4210.000000   4167009   4165234   4163864   4162908   4162297  
  4200.000000   4161989   4161900   4161998   4162230   4162610  
  4190.000000   4163117   4163792   4164618   4165623   4166769  
  4180.000000   4168069   4169477   4171018   4172675   4174510  
  4170.000000   4176542   4178862   4181496   4184522   4187942  
  4160.000000   4191806   4196085   4200813   4205952   4211529  
  4150.000000   4217501   4223891   4230647   4237791   4245273  
  4140.000000   4253131   4261329   4269918   4278863   4288203  
  4130.000000   4297883   4307921   4318255   4328916   4339878  
  4120.000000   4351206   4362914   4375080   4387713   4400864  
  4110.000000   4414508   4428655   4443252   4458273   4473634  
  4100.000000   4489274   4505087   4520997   4536923   4552832  
  4090.000000   4568717   4584610   4600561   4616613   4632804  
  4080.000000   4649117   4665538   4681983   4698402   4714682  
  4070.000000   4730768   4746538   4761949   4776886   4791333  
  4060.000000   4805199   4818503   4831174   4843253   4854678  
  4050.000000   4865506   4875689   4885316   4894356   4902910  
  4040.000000   4910932   4918490   4925503   4932013   4937932  
  4030.000000   4943313   4948088   4952315   4955932   4958974  
  4020.000000   4961356   4963134   4964313   4964993   4965174  
  4010.000000   4964992   4964514   4963726   4962401   4960542  
  4000.000000   4958407  
##END= 
