##TITLE= Sample 032 By ssteindl date Montag, November 19 2018
##JCAMP-DX= 4.24
##DATA TYPE= INFRARED SPECTRUM
##ORIGIN= Exported PE Spectrum Data File
##OWNER= Sandra Steindl
##DATE= 18/11/19
##TIME= 18:01:24.00
##SPECTROMETER/DATA SYSTEM= PERKIN-ELMER Frontier FT-IR/NIR IR
##INSTRUMENT PARAMETERS=
  APODIZATION=stark
  DETECTOR=INGAAS
##RESOLUTION= 16.000000
##DELTAX= -2.000000
##XUNITS= 1/CM
##YUNITS= A
##XFACTOR= 1.00
##YFACTOR= 0.00000011920928955078
##FIRSTX= 10000.00
##LASTX= 4000.00
##NPOINTS= 3001
##FIRSTY= 0.234469
##MAXY= 0.621670
##MINY= 0.205217
##XYDATA= (X++(Y..Y))
 10000.000000   1966869   1953860   1941061   1929089   1918954  
  9990.000000   1911329   1906339   1903557   1902648   1903229  
  9980.000000   1904986   1907298   1909589   1911104   1911350  
  9970.000000   1910034   1907486   1904424   1901912   1900969  
  9960.000000   1902332   1906268   1912489   1920347   1928911  
  9950.000000   1937313   1944793   1950852   1955159   1957500  
  9940.000000   1957713   1955680   1951394   1944998   1936834  
  9930.000000   1927411   1917373   1907463   1898421   1890966  
  9920.000000   1885554   1882366   1881092   1881081   1881441  
  9910.000000   1881344   1880317   1878338   1875910   1873717  
  9900.000000   1872457   1872403   1873440   1875008   1876522  
  9890.000000   1877538   1878098   1878607   1879738   1882042  
  9880.000000   1885708   1890439   1895521   1900119   1903553  
  9870.000000   1905563   1906374   1906584   1906937   1908060  
  9860.000000   1910238   1913365   1916907   1920115   1922127  
  9850.000000   1922315   1920377   1916603   1911715   1906832  
  9840.000000   1903004   1900983   1900862   1902051   1903435  
  9830.000000   1903685   1901762   1897172   1890194   1881654  
  9820.000000   1872675   1864241   1857027   1851324   1847216  
  9810.000000   1844755   1844083   1845412   1848868   1854325  
  9800.000000   1861298   1868989   1876487   1882957   1887911  
  9790.000000   1891157   1892852   1893207   1892510   1890961  
  9780.000000   1888882   1886683   1884947   1884245   1884936  
  9770.000000   1886990   1889870   1892775   1894832   1895583  
  9760.000000   1895093   1894069   1893503   1894340   1897023  
  9750.000000   1901336   1906434   1911171   1914478   1915709  
  9740.000000   1914769   1912062   1908247   1904027   1899926  
  9730.000000   1896272   1893181   1890662   1888631   1886960  
  9720.000000   1885448   1883864   1881973   1879656   1876940  
  9710.000000   1874054   1871325   1869079   1867502   1866576  
  9700.000000   1866130   1865928   1865822   1865797   1865968  
  9690.000000   1866444   1867227   1868127   1868810   1868900  
  9680.000000   1868146   1866508   1864214   1861669   1859344  
  9670.000000   1857610   1856631   1856349   1856516   1856830  
  9660.000000   1857004   1856851   1856281   1855304   1854009  
  9650.000000   1852551   1851119   1849883   1848950   1848309  
  9640.000000   1847837   1847341   1846622   1845582   1844261  
  9630.000000   1842862   1841668   1840938   1840788   1841106  
  9620.000000   1841606   1841875   1841565   1840449   1838520  
  9610.000000   1835947   1833036   1830154   1827660   1825857  
  9600.000000   1824954   1825048   1826127   1828042   1830548  
  9590.000000   1833258   1835749   1837569   1838408   1838123  
  9580.000000   1836841   1834907   1832836   1831219   1830574  
  9570.000000   1831301   1833520   1837129   1841745   1846851  
  9560.000000   1851870   1856273   1859650   1861676   1862142  
  9550.000000   1860897   1857927   1853361   1847566   1841151  
  9540.000000   1834920   1829784   1826512   1825629   1827153  
  9530.000000   1830688   1835384   1840265   1844376   1847067  
  9520.000000   1848060   1847427   1845532   1842796   1839670  
  9510.000000   1836439   1833313   1830341   1827539   1824878  
  9500.000000   1822348   1819994   1817909   1816307   1815415  
  9490.000000   1815513   1816739   1819093   1822304   1825925  
  9480.000000   1829399   1832225   1834093   1834935   1834923  
  9470.000000   1834323   1833376   1832154   1830552   1828344  
  9460.000000   1825333   1821484   1816975   1812194   1807593  
  9450.000000   1803593   1800436   1798172   1796675   1795719  
  9440.000000   1795075   1794535   1793952   1793206   1792229  
  9430.000000   1791016   1789688   1788501   1787825   1788048  
  9420.000000   1789437   1792028   1795553   1799486   1803177  
  9410.000000   1806021   1807638   1807912   1807019   1805242  
  9400.000000   1802912   1800217   1797246   1793974   1790410  
  9390.000000   1786690   1783096   1780082   1778070   1777438  
  9380.000000   1778305   1780617   1784074   1788264   1792680  
  9370.000000   1796791   1800090   1802117   1802551   1801219  
  9360.000000   1798217   1793860   1788738   1783540   1778970  
  9350.000000   1775519   1773367   1772353   1772049   1771959  
  9340.000000   1771665   1771003   1770057   1769148   1768664  
  9330.000000   1768921   1770044   1771917   1774289   1776829  
  9320.000000   1779270   1781408   1783122   1784327   1784959  
  9310.000000   1784985   1784440   1783451   1782264   1781178  
  9300.000000   1780460   1780209   1780272   1780286   1779794  
  9290.000000   1778475   1776277   1773496   1770697   1768534  
  9280.000000   1767534   1767868   1769294   1771240   1773036  
  9270.000000   1774145   1774302   1773582   1772324   1771046  
  9260.000000   1770259   1770342   1771443   1773479   1776161  
  9250.000000   1779048   1781594   1783251   1783579   1782393  
  9240.000000   1779819   1776286   1772401   1768793   1765921  
  9230.000000   1763941   1762682   1761759   1760759   1759419  
  9220.000000   1757690   1755739   1753826   1752195   1750975  
  9210.000000   1750160   1749676   1749441   1749459   1749773  
  9200.000000   1750438   1751423   1752596   1753747   1754681  
  9190.000000   1755301   1755667   1755942   1756326   1756905  
  9180.000000   1757630   1758285   1758614   1758398   1757571  
  9170.000000   1756254   1754717   1753288   1752249   1751808  
  9160.000000   1752076   1753098   1754809   1757065   1759586  
  9150.000000   1761999   1763870   1764847   1764784   1763828  
  9140.000000   1762388   1760990   1760094   1759881   1760203  
  9130.000000   1760622   1760628   1759852   1758230   1756028  
  9120.000000   1753703   1751728   1750399   1749770   1749693  
  9110.000000   1749966   1750458   1751170   1752173   1753506  
  9100.000000   1755068   1756622   1757871   1758599   1758792  
  9090.000000   1758641   1758460   1758503   1758826   1759225  
  9080.000000   1759325   1758779   1757444   1755507   1753391  
  9070.000000   1751622   1750562   1750303   1750616   1751100  
  9060.000000   1751352   1751124   1750386   1749260   1747913  
  9050.000000   1746417   1744734   1742776   1740552   1738233  
  9040.000000   1736157   1734708   1734163   1734547   1735612  
  9030.000000   1736924   1738072   1738800   1739102   1739156  
  9020.000000   1739212   1739414   1739728   1739979   1740004  
  9010.000000   1739788   1739539   1739642   1740476   1742228  
  9000.000000   1744709   1747423   1749691   1750925   1750816  
  8990.000000   1749446   1747255   1744807   1742576   1740750  
  8980.000000   1739224   1737691   1735841   1733538   1730934  
  8970.000000   1728429   1726522   1725639   1725961   1727399  
  8960.000000   1729602   1732106   1734449   1736305   1737545  
  8950.000000   1738230   1738568   1738812   1739207   1739883  
  8940.000000   1740860   1741986   1743004   1743563   1743344  
  8930.000000   1742143   1739978   1737110   1734009   1731256  
  8920.000000   1729400   1728807   1729538   1731356   1733779  
  8910.000000   1736264   1738328   1739731   1740495   1740886  
  8900.000000   1741275   1741985   1743182   1744785   1746532  
  8890.000000   1748020   1748880   1748843   1747834   1745973  
  8880.000000   1743528   1740872   1738373   1736397   1735207  
  8870.000000   1734979   1735708   1737242   1739265   1741370  
  8860.000000   1743135   1744199   1744379   1743664   1742247  
  8850.000000   1740388   1738372   1736399   1734608   1733091  
  8840.000000   1731947   1731344   1731483   1732566   1734663  
  8830.000000   1737656   1741206   1744800   1747879   1749958  
  8820.000000   1750781   1750335   1748873   1746791   1744555  
  8810.000000   1742588   1741220   1740666   1741011   1742220  
  8800.000000   1744126   1746450   1748837   1750904   1752338  
  8790.000000   1752943   1752714   1751797   1750472   1749048  
  8780.000000   1747823   1747033   1746857   1747421   1748790  
  8770.000000   1750977   1753880   1757294   1760875   1764214  
  8760.000000   1766930   1768751   1769618   1769640   1769079  
  8750.000000   1768211   1767274   1766406   1765662   1765085  
  8740.000000   1764753   1764829   1765501   1766915   1769045  
  8730.000000   1771665   1774349   1776590   1777935   1778128  
  8720.000000   1777212   1775494   1773507   1771807   1770868  
  8710.000000   1770924   1771964   1773736   1775856   1777909  
  8700.000000   1779570   1780689   1781322   1781708   1782183  
  8690.000000   1783077   1784609   1786821   1789574   1792589  
  8680.000000   1795537   1798141   1800237   1801826   1803010  
  8670.000000   1803943   1804733   1805419   1805978   1806332  
  8660.000000   1806416   1806173   1805606   1804728   1803565  
  8650.000000   1802167   1800616   1799091   1797841   1797208  
  8640.000000   1797522   1799028   1801748   1805455   1809683  
  8630.000000   1813846   1817393   1819925   1821314   1821667  
  8620.000000   1821301   1820568   1819784   1819120   1818641  
  8610.000000   1818327   1818167   1818195   1818499   1819189  
  8600.000000   1820304   1821811   1823560   1825373   1827078  
  8590.000000   1828604   1830002   1831413   1832998   1834838  
  8580.000000   1836884   1838926   1840681   1841878   1842396  
  8570.000000   1842290   1841799   1841243   1840918   1840994  
  8560.000000   1841452   1842145   1842866   1843486   1843988  
  8550.000000   1844514   1845279   1846485   1848199   1850312  
  8540.000000   1852567   1854612   1856127   1856883   1856832  
  8530.000000   1856073   1854834   1853414   1852145   1851341  
  8520.000000   1851248   1852012   1853635   1855965   1858689  
  8510.000000   1861419   1863790   1865569   1866709   1867355  
  8500.000000   1867778   1868245   1868923   1869816   1870812  
  8490.000000   1871750   1872529   1873164   1873780   1874543  
  8480.000000   1875542   1876736   1877944   1878922   1879481  
  8470.000000   1879570   1879329   1879012   1878894   1879149  
  8460.000000   1879805   1880758   1881856   1883000   1884204  
  8450.000000   1885579   1887257   1889301   1891632   1894055  
  8440.000000   1896310   1898200   1899653   1900757   1901699  
  8430.000000   1902669   1903773   1904986   1906165   1907121  
  8420.000000   1907682   1907771   1907389   1906628   1905602  
  8410.000000   1904473   1903411   1902624   1902301   1902599  
  8400.000000   1903555   1905044   1906756   1908279   1909217  
  8390.000000   1909334   1908633   1907376   1905995   1904945  
  8380.000000   1904537   1904860   1905766   1906970   1908150  
  8370.000000   1909072   1909617   1909796   1909664   1909287  
  8360.000000   1908685   1907860   1906832   1905645   1904399  
  8350.000000   1903178   1902052   1901002   1899938   1898738  
  8340.000000   1897314   1895694   1894015   1892525   1891483  
  8330.000000   1891125   1891560   1892767   1894569   1896685  
  8320.000000   1898791   1900556   1901718   1902070   1901541  
  8310.000000   1900159   1898082   1895542   1892824   1890213  
  8300.000000   1887956   1886260   1885249   1884997   1885479  
  8290.000000   1886606   1888169   1889889   1891420   1892427  
  8280.000000   1892666   1892051   1890690   1888833   1886818  
  8270.000000   1884939   1883394   1882235   1881402   1880787  
  8260.000000   1880290   1879878   1879539   1879281   1879043  
  8250.000000   1878728   1878208   1877404   1876334   1875118  
  8240.000000   1873945   1872975   1872270   1871744   1871191  
  8230.000000   1870373   1869135   1867496   1865657   1863932  
  8220.000000   1862622   1861902   1861747   1861954   1862209  
  8210.000000   1862218   1861800   1860947   1859801   1858577  
  8200.000000   1857473   1856603   1855974   1855498   1855037  
  8190.000000   1854455   1853648   1852578   1851256   1849759  
  8180.000000   1848177   1846633   1845222   1844014   1843023  
  8170.000000   1842200   1841448   1840633   1839620   1838297  
  8160.000000   1836598   1834510   1832071   1829373   1826552  
  8150.000000   1823785   1821277   1819225   1817776   1816967  
  8140.000000   1816708   1816773   1816866   1816686   1816034  
  8130.000000   1814845   1813226   1811385   1809584   1808035  
  8120.000000   1806871   1806110   1805700   1805541   1805535  
  8110.000000   1805598   1805657   1805653   1805525   1805237  
  8100.000000   1804785   1804210   1803593   1803021   1802554  
  8090.000000   1802175   1801801   1801295   1800532   1799449  
  8080.000000   1798080   1796553   1795043   1793724   1792705  
  8070.000000   1792014   1791601   1791375   1791231   1791090  
  8060.000000   1790888   1790582   1790133   1789510   1788707  
  8050.000000   1787754   1786729   1785730   1784851   1784131  
  8040.000000   1783531   1782941   1782220   1781261   1780041  
  8030.000000   1778654   1777281   1776136   1775379   1775060  
  8020.000000   1775094   1775282   1775393   1775224   1774680  
  8010.000000   1773770   1772608   1771338   1770091   1768941  
  8000.000000   1767898   1766942   1766053   1765261   1764643  
  7990.000000   1764314   1764369   1764839   1765645   1766603  
  7980.000000   1767457   1767945   1767888   1767226   1766059  
  7970.000000   1764593   1763090   1761769   1760760   1760074  
  7960.000000   1759625   1759291   1758972   1758635   1758318  
  7950.000000   1758107   1758073   1758242   1758561   1758923  
  7940.000000   1759203   1759305   1759207   1758948   1758617  
  7930.000000   1758299   1758047   1757856   1757681   1757462  
  7920.000000   1757154   1756753   1756288   1755804   1755335  
  7910.000000   1754884   1754422   1753909   1753314   1752642  
  7900.000000   1751940   1751285   1750759   1750415   1750259  
  7890.000000   1750241   1750276   1750269   1750148   1749890  
  7880.000000   1749531   1749154   1748869   1748775   1748937  
  7870.000000   1749356   1749976   1750687   1751362   1751885  
  7860.000000   1752186   1752254   1752136   1751919   1751702  
  7850.000000   1751560   1751532   1751607   1751737   1751855  
  7840.000000   1751896   1751821   1751620   1751322   1750977  
  7830.000000   1750657   1750428   1750349   1750445   1750717  
  7820.000000   1751120   1751595   1752063   1752459   1752737  
  7810.000000   1752882   1752899   1752799   1752585   1752237  
  7800.000000   1751722   1751000   1750062   1748941   1747721  
  7790.000000   1746527   1745492   1744726   1744283   1744159  
  7780.000000   1744288   1744580   1744931   1745264   1745516  
  7770.000000   1745660   1745684   1745589   1745391   1745109  
  7760.000000   1744776   1744414   1744035   1743618   1743115  
  7750.000000   1742459   1741595   1740511   1739262   1737980  
  7740.000000   1736838   1736013   1735616   1735661   1736036  
  7730.000000   1736547   1736962   1737097   1736864   1736298  
  7720.000000   1735539   1734772   1734160   1733785   1733623  
  7710.000000   1733561   1733448   1733155   1732627   1731900  
  7700.000000   1731083   1730320   1729727   1729359   1729185  
  7690.000000   1729108   1729003   1728759   1728320   1727700  
  7680.000000   1726966   1726216   1725538   1724983   1724566  
  7670.000000   1724264   1724042   1723863   1723706   1723559  
  7660.000000   1723414   1723260   1723083   1722872   1722632  
  7650.000000   1722382   1722160   1722005   1721944   1721977  
  7640.000000   1722077   1722194   1722281   1722300   1722245  
  7630.000000   1722137   1722006   1721885   1721792   1721731  
  7620.000000   1721704   1721719   1721800   1721973   1722254  
  7610.000000   1722620   1723010   1723324   1723459   1723352  
  7600.000000   1723005   1722502   1721983   1721605   1721487  
  7590.000000   1721678   1722131   1722730   1723324   1723778  
  7580.000000   1724013   1724010   1723812   1723485   1723099  
  7570.000000   1722710   1722361   1722083   1721919   1721912  
  7560.000000   1722103   1722515   1723135   1723914   1724770  
  7550.000000   1725609   1726357   1726964   1727427   1727765  
  7540.000000   1728022   1728229   1728418   1728600   1728791  
  7530.000000   1729006   1729279   1729646   1730151   1730817  
  7520.000000   1731648   1732615   1733663   1734720   1735721  
  7510.000000   1736619   1737408   1738112   1738795   1739527  
  7500.000000   1740381   1741388   1742542   1743788   1745045  
  7490.000000   1746233   1747299   1748240   1749107   1749986  
  7480.000000   1750972   1752125   1753456   1754909   1756390  
  7470.000000   1757784   1759002   1759998   1760792   1761446  
  7460.000000   1762054   1762705   1763476   1764410   1765522  
  7450.000000   1766804   1768236   1769792   1771440   1773146  
  7440.000000   1774875   1776595   1778292   1779956   1781600  
  7430.000000   1783235   1784880   1786536   1788196   1789836  
  7420.000000   1791438   1792994   1794517   1796044   1797625  
  7410.000000   1799303   1801100   1802995   1804926   1806801  
  7400.000000   1808524   1810024   1811281   1812331   1813271  
  7390.000000   1814217   1815276   1816513   1817928   1819464  
  7380.000000   1821025   1822521   1823897   1825164   1826380  
  7370.000000   1827641   1829035   1830614   1832374   1834259  
  7360.000000   1836182   1838051   1839795   1841377   1842794  
  7350.000000   1844070   1845243   1846356   1847454   1848580  
  7340.000000   1849769   1851041   1852392   1853791   1855190  
  7330.000000   1856535   1857789   1858949   1860051   1861156  
  7320.000000   1862322   1863585   1864945   1866368   1867806  
  7310.000000   1869227   1870630   1872048   1873524   1875089  
  7300.000000   1876729   1878387   1879978   1881425   1882695  
  7290.000000   1883815   1884854   1885898   1887000   1888160  
  7280.000000   1889323   1890404   1891334   1892092   1892721  
  7270.000000   1893312   1893970   1894760   1895690   1896705  
  7260.000000   1897720   1898650   1899466   1900197   1900936  
  7250.000000   1901795   1902887   1904267   1905939   1907837  
  7240.000000   1909867   1911912   1913892   1915746   1917482  
  7230.000000   1919131   1920777   1922498   1924381   1926471  
  7220.000000   1928791   1931313   1933997   1936783   1939631  
  7210.000000   1942507   1945407   1948320   1951238   1954130  
  7200.000000   1956961   1959694   1962333   1964914   1967527  
  7190.000000   1970270   1973230   1976432   1979833   1983312  
  7180.000000   1986718   1989910   1992819   1995450   1997898  
  7170.000000   2000287   2002758   2005394   2008241   2011270  
  7160.000000   2014444   2017707   2021047   2024469   2028022  
  7150.000000   2031752   2035711   2039922   2044397   2049108  
  7140.000000   2054032   2059109   2064298   2069532   2074772  
  7130.000000   2079961   2085084   2090114   2095075   2099979  
  7120.000000   2104879   2109805   2114810   2119917   2125156  
  7110.000000   2130536   2136064   2141735   2147548   2153485  
  7100.000000   2159533   2165657   2171826   2177990   2184108  
  7090.000000   2190134   2196054   2201865   2207606   2213325  
  7080.000000   2219095   2224968   2230981   2237130   2243387  
  7070.000000   2249700   2256027   2262335   2268617   2274876  
  7060.000000   2281117   2287327   2293481   2299541   2305484  
  7050.000000   2311308   2317050   2322767   2328520   2334350  
  7040.000000   2340259   2346219   2352179   2358102   2363969  
  7030.000000   2369804   2375647   2381543   2387506   2393516  
  7020.000000   2399508   2405398   2411099   2416557   2421752  
  7010.000000   2426716   2431509   2436221   2440936   2445734  
  7000.000000   2450644   2455666   2460735   2465768   2470652  
  6990.000000   2475310   2479699   2483859   2487869   2491852  
  6980.000000   2495900   2500066   2504313   2508554   2512657  
  6970.000000   2516527   2520102   2523409   2526510   2529510  
  6960.000000   2532476   2535453   2538419   2541339   2544157  
  6950.000000   2546849   2549408   2551865   2554251   2556607  
  6940.000000   2558946   2561273   2563566   2565800   2567935  
  6930.000000   2569941   2571789   2573475   2575016   2576461  
  6920.000000   2577871   2579319   2580851   2582488   2584209  
  6910.000000   2585972   2587721   2589419   2591041   2592584  
  6900.000000   2594042   2595412   2596673   2597818   2598853  
  6890.000000   2599824   2600803   2601873   2603081   2604428  
  6880.000000   2605840   2607211   2608426   2609423   2610202  
  6870.000000   2610840   2611439   2612088   2612819   2613600  
  6860.000000   2614355   2615008   2615522   2615921   2616271  
  6850.000000   2616658   2617134   2617708   2618336   2618957  
  6840.000000   2619525   2620027   2620486   2620940   2621413  
  6830.000000   2621900   2622365   2622770   2623095   2623365  
  6820.000000   2623634   2623973   2624421   2624966   2625542  
  6810.000000   2626052   2626401   2626539   2626470   2626256  
  6800.000000   2625977   2625714   2625513   2625388   2625322  
  6790.000000   2625290   2625269   2625246   2625212   2625163  
  6780.000000   2625087   2624976   2624821   2624629   2624410  
  6770.000000   2624178   2623943   2623705   2623458   2623199  
  6760.000000   2622934   2622684   2622475   2622325   2622233  
  6750.000000   2622170   2622091   2621953   2621732   2621441  
  6740.000000   2621124   2620839   2620635   2620531   2620512  
  6730.000000   2620533   2620540   2620490   2620362   2620159  
  6720.000000   2619899   2619607   2619295   2618976   2618655  
  6710.000000   2618341   2618040   2617763   2617505   2617256  
  6700.000000   2616988   2616675   2616289   2615820   2615266  
  6690.000000   2614637   2613940   2613185   2612370   2611503  
  6680.000000   2610592   2609659   2608726   2607820   2606944  
  6670.000000   2606093   2605237   2604347   2603394   2602370  
  6660.000000   2601280   2600148   2599003   2597871   2596769  
  6650.000000   2595707   2594680   2593683   2592696   2591705  
  6640.000000   2590691   2589645   2588568   2587483   2586417  
  6630.000000   2585398   2584436   2583512   2582575   2581556  
  6620.000000   2580392   2579049   2577536   2575909   2574245  
  6610.000000   2572625   2571096   2569670   2568321   2567006  
  6600.000000   2565687   2564348   2562996   2561656   2560344  
  6590.000000   2559069   2557813   2556550   2555244   2553868  
  6580.000000   2552408   2550862   2549238   2547550   2545819  
  6570.000000   2544070   2542336   2540650   2539041   2537520  
  6560.000000   2536080   2534701   2533354   2532020   2530693  
  6550.000000   2529388   2528128   2526926   2525784   2524674  
  6540.000000   2523560   2522399   2521163   2519842   2518450  
  6530.000000   2517014   2515566   2514139   2512765   2511474  
  6520.000000   2510296   2509249   2508333   2507521   2506755  
  6510.000000   2505963   2505074   2504046   2502879   2501617  
  6500.000000   2500331   2499092   2497943   2496888   2495896  
  6490.000000   2494917   2493907   2492846   2491742   2490623  
  6480.000000   2489520   2488457   2487439   2486458   2485502  
  6470.000000   2484556   2483612   2482659   2481681   2480659  
  6460.000000   2479574   2478418   2477204   2475963   2474744  
  6450.000000   2473591   2472535   2471577   2470701   2469874  
  6440.000000   2469074   2468291   2467535   2466823   2466169  
  6430.000000   2465569   2465004   2464442   2463854   2463219  
  6420.000000   2462542   2461838   2461138   2460464   2459834  
  6410.000000   2459252   2458717   2458222   2457762   2457334  
  6400.000000   2456941   2456587   2456285   2456046   2455885  
  6390.000000   2455808   2455806   2455854   2455911   2455930  
  6380.000000   2455871   2455718   2455485   2455210   2454944  
  6370.000000   2454723   2454556   2454420   2454262   2454028  
  6360.000000   2453673   2453187   2452589   2451922   2451231  
  6350.000000   2450558   2449923   2449340   2448810   2448338  
  6340.000000   2447917   2447544   2447194   2446833   2446412  
  6330.000000   2445887   2445227   2444426   2443502   2442499  
  6320.000000   2441462   2440438   2439453   2438522   2437637  
  6310.000000   2436787   2435946   2435092   2434200   2433253  
  6300.000000   2432237   2431157   2430023   2428859   2427683  
  6290.000000   2426514   2425351   2424187   2423008   2421806  
  6280.000000   2420578   2419333   2418078   2416818   2415543  
  6270.000000   2414236   2412873   2411441   2409942   2408403  
  6260.000000   2406857   2405342   2403879   2402473   2401103  
  6250.000000   2399744   2398365   2396949   2395487   2393981  
  6240.000000   2392434   2390851   2389236   2387600   2385958  
  6230.000000   2384338   2382768   2381270   2379852   2378502  
  6220.000000   2377189   2375875   2374522   2373101   2371604  
  6210.000000   2370033   2368409   2366757   2365115   2363515  
  6200.000000   2361990   2360559   2359230   2357989   2356809  
  6190.000000   2355651   2354488   2353305   2352113   2350939  
  6180.000000   2349819   2348775   2347812   2346907   2346022  
  6170.000000   2345114   2344154   2343132   2342062   2340973  
  6160.000000   2339893   2338842   2337823   2336823   2335818  
  6150.000000   2334785   2333699   2332547   2331323   2330033  
  6140.000000   2328695   2327335   2325989   2324688   2323459  
  6130.000000   2322306   2321219   2320170   2319129   2318065  
  6120.000000   2316972   2315856   2314742   2313661   2312644  
  6110.000000   2311706   2310859   2310094   2309404   2308773  
  6100.000000   2308194   2307655   2307154   2306689   2306266  
  6090.000000   2305892   2305577   2305323   2305131   2304980  
  6080.000000   2304853   2304716   2304555   2304359   2304141  
  6070.000000   2303916   2303714   2303547   2303431   2303361  
  6060.000000   2303345   2303383   2303499   2303716   2304072  
  6050.000000   2304583   2305268   2306115   2307114   2308235  
  6040.000000   2309463   2310771   2312154   2313588   2315070  
  6030.000000   2316578   2318114   2319670   2321269   2322919  
  6020.000000   2324653   2326475   2328397   2330406   2332493  
  6010.000000   2334637   2336832   2339065   2341344   2343659  
  6000.000000   2346021   2348425   2350889   2353419   2356048  
  5990.000000   2358790   2361671   2364681   2367819   2371050  
  5980.000000   2374360   2377727   2381157   2384656   2388248  
  5970.000000   2391932   2395712   2399561   2403463   2407391  
  5960.000000   2411351   2415344   2419394   2423505   2427684  
  5950.000000   2431908   2436159   2440414   2444676   2448962  
  5940.000000   2453315   2457778   2462380   2467131   2472002  
  5930.000000   2476945   2481892   2486777   2491540   2496137  
  5920.000000   2500539   2504736   2508728   2512533   2516172  
  5910.000000   2519673   2523056   2526337   2529512   2532581  
  5900.000000   2535533   2538382   2541144   2543866   2546581  
  5890.000000   2549333   2552130   2554971   2557826   2560669  
  5880.000000   2563469   2566212   2568887   2571491   2574013  
  5870.000000   2576442   2578764   2580974   2583086   2585131  
  5860.000000   2587152   2589191   2591282   2593441   2595666  
  5850.000000   2597954   2600298   2602698   2605156   2607667  
  5840.000000   2610214   2612767   2615293   2617762   2620168  
  5830.000000   2622523   2624861   2627215   2629611   2632054  
  5820.000000   2634532   2637027   2639524   2642025   2644540  
  5810.000000   2647086   2649661   2652253   2654817   2657323  
  5800.000000   2659723   2662024   2664224   2666376   2668494  
  5790.000000   2670616   2672708   2674738   2676603   2678214  
  5780.000000   2679432   2680154   2680264   2679711   2678466  
  5770.000000   2676593   2674189   2671427   2668471   2665497  
  5760.000000   2662616   2659909   2657380   2655029   2652825  
  5750.000000   2650768   2648857   2647114   2645545   2644146  
  5740.000000   2642893   2641743   2640658   2639596   2638539  
  5730.000000   2637469   2636385   2635280   2634160   2633030  
  5720.000000   2631909   2630819   2629785   2628817   2627912  
  5710.000000   2627044   2626182   2625297   2624382   2623450  
  5700.000000   2622537   2621679   2620898   2620200   2619560  
  5690.000000   2618955   2618355   2617755   2617155   2616572  
  5680.000000   2616000   2615433   2614824   2614129   2613284  
  5670.000000   2612244   2610964   2609421   2607596   2605489  
  5660.000000   2603107   2600490   2597696   2594817   2591940  
  5650.000000   2589159   2586522   2584054   2581735   2579534  
  5640.000000   2577411   2575346   2573328   2571362   2569454  
  5630.000000   2567598   2565785   2563995   2562224   2560471  
  5620.000000   2558755   2557088   2555484   2553938   2552441  
  5610.000000   2550973   2549529   2548115   2546753   2545466  
  5600.000000   2544274   2543176   2542159   2541192   2540252  
  5590.000000   2539320   2538398   2537490   2536607   2535747  
  5580.000000   2534903   2534058   2533195   2532304   2531381  
  5570.000000   2530428   2529446   2528432   2527381   2526288  
  5560.000000   2525154   2523988   2522804   2521616   2520429  
  5550.000000   2519242   2518043   2516825   2515585   2514337  
  5540.000000   2513097   2511885   2510705   2509552   2508406  
  5530.000000   2507250   2506074   2504887   2503707   2502560  
  5520.000000   2501461   2500412   2499399   2498399   2497385  
  5510.000000   2496344   2495265   2494150   2492997   2491804  
  5500.000000   2490566   2489285   2487969   2486638   2485309  
  5490.000000   2483996   2482691   2481369   2479992   2478529  
  5480.000000   2476959   2475296   2473567   2471817   2470082  
  5470.000000   2468388   2466734   2465113   2463505   2461899  
  5460.000000   2460281   2458641   2456959   2455215   2453384  
  5450.000000   2451455   2449435   2447356   2445267   2443217  
  5440.000000   2441248   2439374   2437594   2435891   2434255  
  5430.000000   2432676   2431157   2429694   2428282   2426900  
  5420.000000   2425539   2424189   2422876   2421632   2420518  
  5410.000000   2419564   2418796   2418182   2417688   2417254  
  5400.000000   2416856   2416478   2416150   2415896   2415766  
  5390.000000   2415769   2415926   2416223   2416674   2417273  
  5380.000000   2418053   2419010   2420162   2421475   2422934  
  5370.000000   2424486   2426129   2427837   2429653   2431578  
  5360.000000   2433674   2435940   2438432   2441144   2444147  
  5350.000000   2447447   2451127   2455182   2459669   2464536  
  5340.000000   2469806   2475408   2481387   2487704   2494440  
  5330.000000   2501567   2509158   2517157   2525612   2534462  
  5320.000000   2543788   2553575   2563961   2574957   2586706  
  5310.000000   2599182   2612472   2626498   2641311   2656830  
  5300.000000   2673129   2690162   2708034   2726716   2746309  
  5290.000000   2766752   2788078   2810154   2832933   2856240  
  5280.000000   2880032   2904212   2928845   2953961   2979705  
  5270.000000   3006118   3033236   3060942   3089071   3117391  
  5260.000000   3145712   3173919   3201992   3229993   3257972  
  5250.000000   3285956   3313842   3341495   3368672   3395228  
  5240.000000   3421006   3446043   3470349   3494089   3517300  
  5230.000000   3540095   3562399   3584207   3605349   3625795  
  5220.000000   3645415   3664274   3682346   3699787   3716612  
  5210.000000   3732959   3748770   3764074   3778709   3792649  
  5200.000000   3805743   3818044   3829509   3840286   3850379  
  5190.000000   3859915   3868834   3877180   3884836   3891834  
  5180.000000   3898097   3903718   3908678   3913094   3916934  
  5170.000000   3920273   3923047   3925308   3927004   3928212  
  5160.000000   3928908   3929173   3928974   3928364   3927293  
  5150.000000   3925810   3923884   3921587   3918912   3915931  
  5140.000000   3912629   3909054   3905180   3901053   3896661  
  5130.000000   3892065   3887267   3882318   3877209   3871966  
  5120.000000   3866572   3861053   3855405   3849667   3843847  
  5110.000000   3837972   3832042   3826070   3820055   3814017  
  5100.000000   3807976   3801965   3796005   3790115   3784292  
  5090.000000   3778529   3772814   3767147   3761536   3756000  
  5080.000000   3750554   3745205   3739938   3734726   3729527  
  5070.000000   3724303   3719020   3713660   3708207   3702658  
  5060.000000   3697005   3691253   3685398   3679458   3673441  
  5050.000000   3667368   3661243   3655070   3648829   3642504  
  5040.000000   3636069   3629521   3622858   3616102   3609272  
  5030.000000   3602394   3595484   3588561   3581640   3574744  
  5020.000000   3567902   3561146   3554507   3547997   3541623  
  5010.000000   3535367   3529219   3523155   3517184   3511304  
  5000.000000   3505551   3499937   3494498   3489231   3484161  
  4990.000000   3479270   3474582   3470083   3465808   3461748  
  4980.000000   3457939   3454366   3451060   3447999   3445219  
  4970.000000   3442697   3440473   3438523   3436883   3435521  
  4960.000000   3434473   3433712   3433287   3433183   3433459  
  4950.000000   3434098   3435145   3436558   3438362   3440500  
  4940.000000   3442998   3445808   3448972   3452454   3456294  
  4930.000000   3460449   3464948   3469745   3474876   3480313  
  4920.000000   3486113   3492264   3498820   3505760   3513108  
  4910.000000   3520819   3528892   3537270   3545942   3554855  
  4900.000000   3563987   3573291   3582738   3592290   3601923  
  4890.000000   3611611   3621326   3631040   3640692   3650229  
  4880.000000   3659556   3668614   3677310   3685615   3693464  
  4870.000000   3700862   3707758   3714162   3720016   3725333  
  4860.000000   3730062   3734239   3737845   3740944   3743538  
  4850.000000   3745701   3747443   3748841   3749917   3750758  
  4840.000000   3751399   3751926   3752368   3752780   3753163  
  4830.000000   3753536   3753883   3754216   3754530   3754847  
  4820.000000   3755179   3755552   3755980   3756478   3757056  
  4810.000000   3757721   3758481   3759336   3760292   3761337  
  4800.000000   3762465   3763659   3764911   3766208   3767555  
  4790.000000   3768955   3770421   3771959   3773575   3775260  
  4780.000000   3777003   3778781   3780571   3782347   3784086  
  4770.000000   3785771   3787386   3788926   3790387   3791774  
  4760.000000   3793089   3794341   3795531   3796668   3797753  
  4750.000000   3798794   3799798   3800777   3801736   3802683  
  4740.000000   3803609   3804508   3805359   3806148   3806860  
  4730.000000   3807491   3808045   3808534   3808972   3809371  
  4720.000000   3809744   3810096   3810436   3810770   3811115  
  4710.000000   3811480   3811888   3812350   3812890   3813521  
  4700.000000   3814274   3815170   3816251   3817542   3819079  
  4690.000000   3820870   3822921   3825203   3827687   3830317  
  4680.000000   3833048   3835819   3838590   3841310   3843954  
  4670.000000   3846483   3848892   3851165   3853326   3855396  
  4660.000000   3857434   3859496   3861658   3863983   3866532  
  4650.000000   3869339   3872416   3875749   3879306   3883038  
  4640.000000   3886892   3890819   3894774   3898725   3902640  
  4630.000000   3906499   3910273   3913940   3917467   3920832  
  4620.000000   3924004   3926968   3929695   3932181   3934403  
  4610.000000   3936371   3938074   3939542   3940785   3941857  
  4600.000000   3942778   3943604   3944343   3945029   3945639  
  4590.000000   3946175   3946592   3946870   3946954   3946825  
  4580.000000   3946436   3945784   3944853   3943674   3942266  
  4570.000000   3940690   3938985   3937212   3935397   3933576  
  4560.000000   3931747   3929916   3928067   3926198   3924294  
  4550.000000   3922356   3920372   3918342   3916254   3914105  
  4540.000000   3911894   3909628   3907328   3905015   3902726  
  4530.000000   3900479   3898305   3896203   3894187   3892241  
  4520.000000   3890377   3888581   3886885   3885287   3883845  
  4510.000000   3882569   3881534   3880751   3880304   3880198  
  4500.000000   3880521   3881265   3882516   3884258   3886577  
  4490.000000   3889452   3892975   3897124   3901989   3907541  
  4480.000000   3913856   3920890   3928703   3937234   3946529  
  4470.000000   3956515   3967216   3978538   3990480   4002934  
  4460.000000   4015882   4029218   4042925   4056908   4071151  
  4450.000000   4085574   4100157   4114838   4129608   4144439  
  4440.000000   4159334   4174294   4189312   4204379   4219445  
  4430.000000   4234472   4249369   4264087   4278530   4292670  
  4420.000000   4306426   4319795   4332705   4345157   4357069  
  4410.000000   4368430   4379149   4389216   4398554   4407183  
  4400.000000   4415078   4422318   4428943   4435090   4440846  
  4390.000000   4446363   4451728   4457064   4462413   4467844  
  4380.000000   4473348   4478950   4484622   4490378   4496205  
  4370.000000   4502127   4508141   4514266   4520482   4526779  
  4360.000000   4533114   4539468   4545786   4552070   4558254  
  4350.000000   4564350   4570262   4575992   4581428   4586601  
  4340.000000   4591437   4596000   4600218   4604052   4607246  
  4330.000000   4609493   4610295   4609194   4605774   4599893  
  4320.000000   4591681   4581629   4570442   4558969   4547970  
  4310.000000   4538055   4529536   4522506   4516836   4512320  
  4300.000000   4508728   4505874   4503646   4501953   4500766  
  4290.000000   4500008   4499661   4499650   4499991   4500655  
  4280.000000   4501690   4503094   4504874   4506990   4509375  
  4270.000000   4511956   4514631   4517310   4519850   4522080  
  4260.000000   4523749   4524581   4524273   4522602   4519450  
  4250.000000   4514893   4509157   4502636   4495763   4488993  
  4240.000000   4482655   4476986   4472037   4467773   4464040  
  4230.000000   4460677   4457506   4454391   4451241   4448006  
  4220.000000   4444703   4441360   4438075   4434923   4432033  
  4210.000000   4429472   4427332   4425620   4424351   4423467  
  4200.000000   4422928   4422647   4422583   4422665   4422880  
  4190.000000   4423185   4423599   4424094   4424708   4425424  
  4180.000000   4426288   4427294   4428498   4429903   4431576  
  4170.000000   4433524   4435814   4438449   4441482   4444890  
  4160.000000   4448702   4452867   4457400   4462245   4467429  
  4150.000000   4472920   4478778   4484994   4491643   4498716  
  4140.000000   4506274   4514279   4522757   4531637   4540922  
  4130.000000   4550530   4560465   4570666   4581169   4591949  
  4120.000000   4603073   4614547   4626451   4638798   4651658  
  4110.000000   4665032   4678961   4693411   4708368   4723750  
  4100.000000   4739488   4755466   4771600   4787798   4804015  
  4090.000000   4820218   4836406   4852586   4868762   4884953  
  4080.000000   4901149   4917370   4933593   4949828   4966010  
  4070.000000   4982106   4997985   5013570   5028703   5043337  
  4060.000000   5057366   5070817   5083641   5095903   5107556  
  4050.000000   5118655   5129134   5139046   5148324   5157028  
  4040.000000   5165082   5172529   5179277   5185372   5190749  
  4030.000000   5195505   5199629   5203243   5206340   5208997  
  4020.000000   5211139   5212809   5213978   5214706   5214948  
  4010.000000   5214815   5214364   5213576   5212215   5210286  
  4000.000000   5208065  
##END= 
