##TITLE= Sample 003 By ssteindl date Montag, November 19 2018
##JCAMP-DX= 4.24
##DATA TYPE= INFRARED SPECTRUM
##ORIGIN= Exported PE Spectrum Data File
##OWNER= Sandra Steindl
##DATE= 18/11/19
##TIME= 15:40:09.00
##SPECTROMETER/DATA SYSTEM= PERKIN-ELMER Frontier FT-IR/NIR IR
##INSTRUMENT PARAMETERS=
  APODIZATION=stark
  DETECTOR=INGAAS
##RESOLUTION= 16.000000
##DELTAX= -2.000000
##XUNITS= 1/CM
##YUNITS= A
##XFACTOR= 1.00
##YFACTOR= 0.00000000023841857910
##FIRSTX= 10000.00
##LASTX= 4000.00
##NPOINTS= 3001
##FIRSTY= -0.223105
##MAXY= 0.197905
##MINY= -0.245577
##XYDATA= (X++(Y..Y))
 10000.000000  -00935771413  -00930495105  -00924913844  -00919100325  -00914185891  
  9990.000000  -00911602108  -00912049554  -00915276103  -00920504462  -00926692021  
  9980.000000  -00932715220  -00937643940  -00941184559  -00943521763  -00945163077  
  9970.000000  -00946466028  -00947585813  -00948233029  -00947955686  -00946296795  
  9960.000000  -00943219821  -00939149094  -00934990441  -00931815714  -00930500171  
  9950.000000  -00931481270  -00934558827  -00939120879  -00944291436  -00949315892  
  9940.000000  -00953708624  -00957333495  -00960356507  -00963048350  -00965678072  
  9930.000000  -00968327391  -00970882383  -00973042945  -00974443394  -00974808714  
  9920.000000  -00974079681  -00972520349  -00970674567  -00969292935  -00969082351  
  9910.000000  -00970527120  -00973620940  -00977837374  -00982149725  -00985339392  
  9900.000000  -00986337846  -00984623588  -00980420893  -00974683509  -00968800163  
  9890.000000  -00964184482  -00961824668  -00962019036  -00964320468  -00967745298  
  9880.000000  -00971134590  -00973531346  -00974436271  -00973894688  -00972339395  
  9870.000000  -00970408997  -00968639703  -00967375127  -00966687874  -00966502467  
  9860.000000  -00966707655  -00967232655  -00968068369  -00969168980  -00970390866  
  9850.000000  -00971429184  -00971877996  -00971317232  -00969478250  -00966308551  
  9840.000000  -00962058836  -00957187017  -00952305332  -00948010374  -00944794444  
  9830.000000  -00942973672  -00942657785  -00943799091  -00946181031  -00949498273  
  9820.000000  -00953330214  -00957239348  -00960779540  -00963618895  -00965574747  
  9810.000000  -00966655430  -00967049741  -00967006128  -00966807434  -00966575193  
  9800.000000  -00966344123  -00965937052  -00965149897  -00963734007  -00961555129  
  9790.000000  -00958619895  -00955083361  -00951279732  -00947612321  -00944612006  
  9780.000000  -00942793722  -00942688541  -00944650930  -00948803941  -00954869654  
  9770.000000  -00962168324  -00969676877  -00976214218  -00980736803  -00982561505  
  9760.000000  -00981600898  -00978319686  -00973637325  -00968602860  -00964140395  
  9750.000000  -00960815841  -00958792055  -00957901014  -00957809168  -00958185833  
  9740.000000  -00958786505  -00959469905  -00960107313  -00960539493  -00960544387  
  9730.000000  -00959920026  -00958601577  -00956743894  -00954772740  -00953260325  
  9720.000000  -00952809515  -00953828254  -00956431850  -00960381945  -00965164783  
  9710.000000  -00970140223  -00974687198  -00978358656  -00980900473  -00982282777  
  9700.000000  -00982613023  -00982127658  -00981132644  -00979994635  -00979086898  
  9690.000000  -00978701806  -00978963492  -00979731270  -00980615046  -00981045410  
  9680.000000  -00980464425  -00978507043  -00975155057  -00970769058  -00965992622  
  9670.000000  -00961587027  -00958205150  -00956267385  -00955877737  -00956904384  
  9660.000000  -00959072650  -00962092335  -00965714694  -00969724867  -00973894906  
  9650.000000  -00977919013  -00981418727  -00983980022  -00985304818  -00985283438  
  9640.000000  -00984127609  -00982276789  -00980353216  -00978930838  -00978409456  
  9630.000000  -00978888469  -00980152223  -00981779879  -00983261892  -00984210827  
  9620.000000  -00984430116  -00984007361  -00983207098  -00982413185  -00981954585  
  9610.000000  -00982037453  -00982694028  -00983790759  -00985122506  -00986452891  
  9600.000000  -00987605192  -00988467081  -00988958469  -00989039332  -00988637272  
  9590.000000  -00987754692  -00986462494  -00985017887  -00983813413  -00983304108  
  9580.000000  -00983830296  -00985438963  -00987802485  -00990226204  -00991857455  
  9570.000000  -00991897530  -00989920944  -00985977529  -00980664578  -00974909477  
  9560.000000  -00969744938  -00966004262  -00964131917  -00964149946  -00965723574  
  9550.000000  -00968376486  -00971638569  -00975187961  -00978853472  -00982553327  
  9540.000000  -00986220335  -00989694614  -00992757378  -00995110237  -00996528323  
  9530.000000  -00996870237  -00996195001  -00994727694  -00992849381  -00991056009  
  9520.000000  -00989829449  -00989624989  -00990669190  -00992985255  -00996250900  
  9510.000000  -00999921793  -01003277979  -01005629929  -01006466823  -01005574871  
  9500.000000  -01003077066  -00999338437  -00994877230  -00990182169  -00985687970  
  9490.000000  -00981690209  -00978431437  -00976089569  -00974799052  -00974618701  
  9480.000000  -00975445610  -00977048629  -00979048756  -00981083333  -00982897631  
  9470.000000  -00984472198  -00986031074  -00987910520  -00990399771  -00993509437  
  9460.000000  -00996939039  -01000095288  -01002346488  -01003228765  -01002672817  
  9450.000000  -01001015673  -00998886484  -00996967946  -00995733842  -00995324243  
  9440.000000  -00995514004  -00995895543  -00996052430  -00995766339  -00995047837  
  9430.000000  -00994099264  -00993165756  -00992430864  -00991950566  -00991666353  
  9420.000000  -00991482108  -00991308195  -00991146160  -00991021210  -00991002079  
  9410.000000  -00991086832  -00991260879  -00991483890  -00991785118  -00992274533  
  9400.000000  -00993111204  -00994443199  -00996296791  -00998588706  -01001125511  
  9390.000000  -01003744090  -01006350041  -01008985876  -01011740683  -01014676257  
  9380.000000  -01017690201  -01020476872  -01022549933  -01023379978  -01022597591  
  9370.000000  -01020156372  -01016409269  -01011980615  -01007579959  -01003765683  
  9360.000000  -01000824967  -00998758211  -00997335087  -00996271186  -00995300196  
  9350.000000  -00994347665  -00993462325  -00992850672  -00992714714  -00993232072  
  9340.000000  -00994500124  -00996525082  -00999235526  -01002383916  -01005576671  
  9330.000000  -01008213481  -01009683496  -01009475544  -01007447341  -01003863359  
  9320.000000  -00999440852  -00995149005  -00991976124  -00990613139  -00991223034  
  9310.000000  -00993437879  -00996476927  -00999489753  -01001794593  -01003126612  
  9300.000000  -01003643088  -01003821259  -01004215284  -01005176878  -01006731626  
  9290.000000  -01008538360  -01010108166  -01010934732  -01010739467  -01009501311  
  9280.000000  -01007512829  -01005270980  -01003340965  -01002218795  -01002182176  
  9270.000000  -01003306932  -01005424765  -01008227603  -01011272078  -01014123911  
  9260.000000  -01016423984  -01017997809  -01018878619  -01019265336  -01019463403  
  9250.000000  -01019720151  -01020160374  -01020651608  -01020890143  -01020487103  
  9240.000000  -01019180032  -01016961435  -01014122878  -01011245349  -01009010530  
  9230.000000  -01008056133  -01008712751  -01010950767  -01014351986  -01018281312  
  9220.000000  -01022043703  -01025054038  -01026939083  -01027593454  -01027153072  
  9210.000000  -01025917251  -01024235109  -01022446415  -01020844855  -01019665392  
  9200.000000  -01019051126  -01019016024  -01019426133  -01020028807  -01020500820  
  9190.000000  -01020525392  -01019857219  -01018400948  -01016246210  -01013629593  
  9180.000000  -01010871919  -01008266552  -01006057891  -01004396431  -01003384245  
  9170.000000  -01003075164  -01003489693  -01004616753  -01006368226  -01008587009  
  9160.000000  -01011017311  -01013380144  -01015442059  -01017076331  -01018318946  
  9150.000000  -01019291115  -01020170154  -01021021587  -01021786644  -01022243805  
  9140.000000  -01022133332  -01021259502  -01019620957  -01017472509  -01015273185  
  9130.000000  -01013570539  -01012791261  -01013141407  -01014507172  -01016538122  
  9120.000000  -01018723592  -01020589877  -01021808017  -01022282708  -01022119074  
  9110.000000  -01021555888  -01020867313  -01020279908  -01019934233  -01019855391  
  9100.000000  -01019989165  -01020203894  -01020356651  -01020293095  -01019909360  
  9090.000000  -01019169554  -01018133199  -01016949272  -01015800666  -01014883999  
  9080.000000  -01014328718  -01014191232  -01014429643  -01014969937  -01015753775  
  9070.000000  -01016767117  -01018030019  -01019541870  -01021233794  -01022907705  
  9060.000000  -01024256598  -01024935201  -01024693389  -01023480857  -01021498522  
  9050.000000  -01019176486  -01017050567  -01015621549  -01015182330  -01015766370  
  9040.000000  -01017131223  -01018864148  -01020490087  -01021601276  -01021941930  
  9030.000000  -01021425851  -01020130349  -01018227567  -01015966836  -01013610179  
  9020.000000  -01011439959  -01009687616  -01008539686  -01008082133  -01008314448  
  9010.000000  -01009134117  -01010363438  -01011810861  -01013308217  -01014768007  
  9000.000000  -01016158047  -01017501770  -01018831230  -01020169822  -01021514708  
  8990.000000  -01022832650  -01024080041  -01025207114  -01026177282  -01026944060  
  8980.000000  -01027451786  -01027626530  -01027396909  -01026714596  -01025573932  
  8970.000000  -01024038777  -01022233285  -01020327576  -01018498509  -01016911773  
  8960.000000  -01015700973  -01014953560  -01014696123  -01014896773  -01015465586  
  8950.000000  -01016264184  -01017124953  -01017890497  -01018467522  -01018855595  
  8940.000000  -01019158034  -01019540497  -01020179266  -01021183499  -01022558477  
  8930.000000  -01024183667  -01025864648  -01027387463  -01028596522  -01029422653  
  8920.000000  -01029877773  -01030026267  -01029930471  -01029630188  -01029132606  
  8910.000000  -01028452895  -01027649177  -01026836302  -01026159270  -01025749316  
  8900.000000  -01025651753  -01025813054  -01026054681  -01026179143  -01026011803  
  8890.000000  -01025526889  -01024824892  -01024138485  -01023710283  -01023719803  
  8880.000000  -01024189988  -01024986492  -01025844600  -01026450423  -01026520888  
  8870.000000  -01025880844  -01024498523  -01022472011  -01019999961  -01017325628  
  8860.000000  -01014715419  -01012398396  -01010544473  -01009213256  -01008348375  
  8850.000000  -01007785171  -01007296742  -01006677257  -01005816183  -01004761971  
  8840.000000  -01003721681  -01002999396  -01002891576  -01003549489  -01004918606  
  8830.000000  -01006713276  -01008530151  -01009949656  -01010700288  -01010716870  
  8820.000000  -01010167326  -01009365727  -01008653415  -01008277435  -01008316776  
  8810.000000  -01008690845  -01009221535  -01009720396  -01010052633  -01010168475  
  8800.000000  -01010074143  -01009804235  -01009366617  -01008753116  -01007949270  
  8790.000000  -01006978326  -01005921851  -01004912357  -01004088701  -01003541991  
  8780.000000  -01003257908  -01003136536  -01003016751  -01002774327  -01002367426  
  8770.000000  -01001874041  -01001452006  -01001261471  -01001376792  -01001726019  
  8760.000000  -01002097892  -01002208614  -01001814203  -01000808716  -00999282430  
  8750.000000  -00997493544  -00995789179  -00994487893  -00993777845  -00993666708  
  8740.000000  -00993982665  -00994449918  -00994775408  -00994749686  -00994291878  
  8730.000000  -00993461025  -00992411086  -00991340286  -00990428353  -00989795718  
  8720.000000  -00989477355  -00989417246  -00989492008  -00989537337  -00989400731  
  8710.000000  -00988974977  -00988234772  -00987240654  -00986122392  -00985039950  
  8700.000000  -00984128540  -00983455284  -00982998587  -00982662682  -00982328434  
  8690.000000  -00981900317  -00981357878  -00980757312  -00980211881  -00979836326  
  8680.000000  -00979685332  -00979730839  -00979852228  -00979899427  -00979739946  
  8670.000000  -00979331317  -00978738273  -00978115566  -00977653296  -00977490286  
  8660.000000  -00977661078  -00978056122  -00978453102  -00978565580  -00978136534  
  8650.000000  -00977020849  -00975242691  -00973006961  -00970642447  -00968542028  
  8640.000000  -00967042649  -00966363411  -00966521959  -00967352823  -00968542136  
  8630.000000  -00969718973  -00970550662  -00970804365  -00970400769  -00969392537  
  8620.000000  -00967944314  -00966248437  -00964487566  -00962788582  -00961243354  
  8610.000000  -00959914908  -00958866226  -00958171326  -00957893249  -00958071592  
  8600.000000  -00958659265  -00959545643  -00960534182  -00961416342  -00961991970  
  8590.000000  -00962139181  -00961829703  -00961127050  -00960157109  -00959055559  
  8580.000000  -00957934908  -00956849379  -00955797142  -00954730577  -00953585061  
  8570.000000  -00952298702  -00950835772  -00949199599  -00947437145  -00945631066  
  8560.000000  -00943873925  -00942261414  -00940860472  -00939713033  -00938817008  
  8550.000000  -00938154845  -00937704783  -00937457954  -00937424257  -00937613503  
  8540.000000  -00938025067  -00938593456  -00939192215  -00939620282  -00939680160  
  8530.000000  -00939204337  -00938150078  -00936601355  -00934793441  -00933031524  
  8520.000000  -00931617592  -00930765210  -00930537365  -00930859701  -00931530761  
  8510.000000  -00932326479  -00933041488  -00933570076  -00933891789  -00934061719  
  8500.000000  -00934151937  -00934204161  -00934203690  -00934065394  -00933673433  
  8490.000000  -00932910552  -00931718669  -00930116419  -00928214619  -00926201811  
  8480.000000  -00924302564  -00922733747  -00921635384  -00921054661  -00920916953  
  8470.000000  -00921061393  -00921262117  -00921308581  -00921049004  -00920443968  
  8460.000000  -00919561174  -00918556310  -00917623084  -00916920416  -00916536441  
  8450.000000  -00916439696  -00916518034  -00916581807  -00916447058  -00915963633  
  8440.000000  -00915075998  -00913821191  -00912325749  -00910775626  -00909379315  
  8430.000000  -00908322427  -00907732170  -00907655214  -00908056354  -00908822455  
  8420.000000  -00909781381  -00910743674  -00911535463  -00912041544  -00912215097  
  8410.000000  -00912093417  -00911781512  -00911413401  -00911117795  -00910968233  
  8400.000000  -00910980988  -00911084859  -00911161624  -00911059277  -00910666950  
  8390.000000  -00909928440  -00908880881  -00907630547  -00906339414  -00905177165  
  8380.000000  -00904284920  -00903747374  -00903587835  -00903789255  -00904317545  
  8370.000000  -00905147503  -00906257946  -00907630962  -00909217647  -00910930365  
  8360.000000  -00912631954  -00914160286  -00915375154  -00916184562  -00916588658  
  8350.000000  -00916650537  -00916488041  -00916206647  -00915874024  -00915494856  
  8340.000000  -00915030330  -00914440892  -00913724336  -00912949804  -00912234665  
  8330.000000  -00911722177  -00911508603  -00911620600  -00911984877  -00912471611  
  8320.000000  -00912936492  -00913279582  -00913477903  -00913580384  -00913682194  
  8310.000000  -00913865767  -00914170981  -00914568785  -00914997301  -00915381670  
  8300.000000  -00915688953  -00915921932  -00916124395  -00916339901  -00916591572  
  8290.000000  -00916866360  -00917124579  -00917330217  -00917481130  -00917627281  
  8280.000000  -00917858783  -00918266808  -00918898412  -00919727147  -00920654469  
  8270.000000  -00921537571  -00922242675  -00922687779  -00922880596  -00922901229  
  8260.000000  -00922874921  -00922912223  -00923077353  -00923368092  -00923739028  
  8250.000000  -00924129000  -00924504695  -00924873457  -00925282681  -00925791386  
  8240.000000  -00926431745  -00927195733  -00928023216  -00928836397  -00929565986  
  8230.000000  -00930189407  -00930743602  -00931303816  -00931952745  -00932729723  
  8220.000000  -00933611442  -00934504187  -00935276516  -00935798275  -00935995573  
  8210.000000  -00935876282  -00935542154  -00935153404  -00934884848  -00934872569  
  8200.000000  -00935177992  -00935782609  -00936597380  -00937503914  -00938386398  
  8190.000000  -00939171522  -00939840654  -00940428539  -00941001915  -00941627527  
  8180.000000  -00942350073  -00943169517  -00944046540  -00944905662  -00945662955  
  8170.000000  -00946245709  -00946621159  -00946811461  -00946893872  -00946984171  
  8160.000000  -00947200057  -00947626389  -00948284049  -00949120384  -00950022642  
  8150.000000  -00950847704  -00951469984  -00951818973  -00951906828  -00951821546  
  8140.000000  -00951699734  -00951682246  -00951875550  -00952324337  -00953011022  
  8130.000000  -00953868847  -00954812242  -00955763114  -00956666694  -00957498551  
  8120.000000  -00958252373  -00958935847  -00959561448  -00960145899  -00960714659  
  8110.000000  -00961292987  -00961906133  -00962559487  -00963233345  -00963880167  
  8100.000000  -00964433690  -00964837969  -00965067974  -00965156976  -00965190804  
  8090.000000  -00965290487  -00965565924  -00966077467  -00966801628  -00967638408  
  8080.000000  -00968436019  -00969049016  -00969386338  -00969448483  -00969326069  
  8070.000000  -00969168577  -00969129520  -00969314809  -00969747070  -00970364022  
  8060.000000  -00971045029  -00971656336  -00972100039  -00972341917  -00972418857  
  8050.000000  -00972416496  -00972434749  -00972552076  -00972802442  -00973171161  
  8040.000000  -00973610321  -00974059919  -00974473760  -00974831766  -00975143196  
  8030.000000  -00975438837  -00975755614  -00976123834  -00976559207  -00977056461  
  8020.000000  -00977599010  -00978153573  -00978686446  -00979158217  -00979537789  
  8010.000000  -00979806636  -00979966270  -00980048715  -00980109710  -00980227986  
  8000.000000  -00980482969  -00980938644  -00981620759  -00982506590  -00983520186  
  7990.000000  -00984550256  -00985463951  -00986148142  -00986523621  -00986579795  
  7980.000000  -00986369665  -00986009210  -00985647256  -00985428532  -00985455353  
  7970.000000  -00985751074  -00986250308  -00986808001  -00987239016  -00987371707  
  7960.000000  -00987104257  -00986443160  -00985511235  -00984518732  -00983704448  
  7950.000000  -00983269609  -00983315966  -00983825820  -00984667918  -00985652623  
  7940.000000  -00986590511  -00987354695  -00987908930  -00988302196  -00988631110  
  7930.000000  -00988987634  -00989414021  -00989882341  -00990305204  -00990572363  
  7920.000000  -00990599304  -00990365154  -00989928828  -00989415793  -00988974970  
  7910.000000  -00988734460  -00988747343  -00988980488  -00989311614  -00989577422  
  7900.000000  -00989618401  -00989339317  -00988735818  -00987904840  -00987009701  
  7890.000000  -00986238009  -00985740353  -00985591973  -00985774393  -00986184943  
  7880.000000  -00986676954  -00987097506  -00987332793  -00987327624  -00987088944  
  7870.000000  -00986674470  -00986167099  -00985656962  -00985226408  -00984938718  
  7860.000000  -00984839926  -00984943837  -00985234404  -00985653006  -00986106390  
  7850.000000  -00986480743  -00986667957  -00986599789  -00986273111  -00985755562  
  7840.000000  -00985176221  -00984679789  -00984393899  -00984378033  -00984617463  
  7830.000000  -00985022819  -00985467932  -00985829066  -00986026128  -00986044712  
  7820.000000  -00985939136  -00985810200  -00985774638  -00985925326  -00986304574  
  7810.000000  -00986889355  -00987597744  -00988312550  -00988915799  -00989324973  
  7800.000000  -00989520309  -00989551024  -00989520787  -00989547890  -00989723576  
  7790.000000  -00990068796  -00990527868  -00990977673  -00991279500  -00991325925  
  7780.000000  -00991086918  -00990627289  -00990082267  -00989624153  -00989396404  
  7770.000000  -00989485369  -00989893238  -00990555900  -00991368408  -00992216736  
  7760.000000  -00993002748  -00993649268  -00994101621  -00994321271  -00994293259  
  7750.000000  -00994032301  -00993600708  -00993100801  -00992667202  -00992422993  
  7740.000000  -00992449663  -00992751713  -00993258186  -00993846408  -00994385421  
  7730.000000  -00994786231  -00995023246  -00995142244  -00995224101  -00995355242  
  7720.000000  -00995586649  -00995927701  -00996352654  -00996824444  -00997317264  
  7710.000000  -00997819842  -00998328460  -00998826038  -00999269179  -00999591175  
  7700.000000  -00999720105  -00999610854  -00999270188  -00998765246  -00998209555  
  7690.000000  -00997728231  -00997417951  -00997321180  -00997413157  -00997627743  
  7680.000000  -00997877825  -00998098945  -00998258152  -00998364504  -00998449454  
  7670.000000  -00998549433  -00998688477  -00998866310  -00999064916  -00999247732  
  7660.000000  -00999379085  -00999424590  -00999368122  -00999212114  -00998982533  
  7650.000000  -00998728688  -00998510271  -00998391384  -00998417262  -00998607419  
  7640.000000  -00998944420  -00999379072  -00999840922  -01000254482  -01000555690  
  7630.000000  -01000703772  -01000685824  -01000514793  -01000225385  -00999867054  
  7620.000000  -00999501229  -00999192524  -00998998645  -00998958981  -00999075963  
  7610.000000  -00999317227  -00999610130  -00999873662  -01000033733  -01000057889  
  7600.000000  -00999959613  -00999792873  -00999628778  -00999520786  -00999484658  
  7590.000000  -00999484294  -00999446897  -00999291576  -00998962333  -00998459450  
  7580.000000  -00997839535  -00997210157  -00996690062  -00996385275  -00996347297  
  7570.000000  -00996567743  -00996966782  -00997420314  -00997783268  -00997929661  
  7560.000000  -00997783246  -00997334008  -00996643645  -00995823470  -00995006806  
  7550.000000  -00994306021  -00993781188  -00993423740  -00993167258  -00992921715  
  7540.000000  -00992612488  -00992216719  -00991766511  -00991342677  -00991028131  
  7530.000000  -00990880199  -00990890520  -00990995325  -00991091429  -00991081546  
  7520.000000  -00990908079  -00990572441  -00990129121  -00989654916  -00989214848  
  7510.000000  -00988833652  -00988490175  -00988130002  -00987690757  -00987127857  
  7500.000000  -00986428551  -00985617880  -00984744392  -00983872830  -00983061027  
  7490.000000  -00982362430  -00981809144  -00981419424  -00981180491  -00981054958  
  7480.000000  -00980974614  -00980860199  -00980634938  -00980249772  -00979694582  
  7470.000000  -00979002443  -00978235967  -00977462761  -00976729507  -00976047990  
  7460.000000  -00975393286  -00974724483  -00973999592  -00973206022  -00972357284  
  7450.000000  -00971498135  -00970674838  -00969927487  -00969265538  -00968670812  
  7440.000000  -00968095739  -00967482214  -00966774358  -00965932678  -00964941413  
  7430.000000  -00963815484  -00962597870  -00961357572  -00960167542  -00959097257  
  7420.000000  -00958184545  -00957433987  -00956807339  -00956240267  -00955661785  
  7410.000000  -00955013489  -00954267391  -00953418823  -00952482376  -00951468143  
  7400.000000  -00950378528  -00949201934  -00947932347  -00946587780  -00945224369  
  7390.000000  -00943936967  -00942829175  -00941992467  -00941462767  -00941214110  
  7380.000000  -00941151803  -00941144449  -00941059651  -00940793500  -00940292433  
  7370.000000  -00939539880  -00938552681  -00937354923  -00935983675  -00934481550  
  7360.000000  -00932914761  -00931370569  -00929953726  -00928763058  -00927858510  
  7350.000000  -00927247261  -00926866237  -00926610571  -00926352026  -00925990809  
  7340.000000  -00925476689  -00924818087  -00924066023  -00923278296  -00922501557  
  7330.000000  -00921745048  -00920994116  -00920213392  -00919377111  -00918476285  
  7320.000000  -00917530130  -00916576381  -00915659719  -00914820200  -00914080181  
  7310.000000  -00913444682  -00912896166  -00912403616  -00911925297  -00911420451  
  7300.000000  -00910855905  -00910216502  -00909507671  -00908758394  -00908010202  
  7290.000000  -00907308899  -00906684505  -00906143140  -00905660518  -00905191847  
  7280.000000  -00904685569  -00904098022  -00903405528  -00902606642  -00901719995  
  7270.000000  -00900771687  -00899785622  -00898777427  -00897755332  -00896728135  
  7260.000000  -00895707549  -00894718486  -00893787940  -00892950304  -00892222690  
  7250.000000  -00891614571  -00891106148  -00890668942  -00890255411  -00889821060  
  7240.000000  -00889320852  -00888722498  -00888001965  -00887146470  -00886147526  
  7230.000000  -00885006337  -00883728006  -00882331672  -00880841325  -00879297883  
  7220.000000  -00877742878  -00876226191  -00874780433  -00873429932  -00872166632  
  7210.000000  -00870968282  -00869784465  -00868565523  -00867260259  -00865842921  
  7200.000000  -00864308892  -00862682180  -00861000534  -00859308069  -00857638594  
  7190.000000  -00856013172  -00854429465  -00852875848  -00851324876  -00849758371  
  7180.000000  -00848158535  -00846530800  -00844889339  -00843266925  -00841693379  
  7170.000000  -00840193911  -00838763736  -00837369343  -00835936372  -00834378904  
  7160.000000  -00832612205  -00830595957  -00828340038  -00825922489  -00823459157  
  7150.000000  -00821085857  -00818901751  -00816951244  -00815189201  -00813509725  
  7140.000000  -00811762863  -00809823037  -00807612778  -00805142651  -00802481171  
  7130.000000  -00799743340  -00797029554  -00794414914  -00791915508  -00789511265  
  7120.000000  -00787147869  -00784773807  -00782343245  -00779836243  -00777240200  
  7110.000000  -00774558952  -00771790654  -00768945414  -00766032824  -00763080081  
  7100.000000  -00760118276  -00757184730  -00754302755  -00751479893  -00748696791  
  7090.000000  -00745922986  -00743119956  -00740265781  -00737353938  -00734403111  
  7080.000000  -00731442273  -00728504754  -00725612802  -00722773405  -00719976174  
  7070.000000  -00717198937  -00714415525  -00711603148  -00708748885  -00705851672  
  7060.000000  -00702923883  -00699988681  -00697077205  -00694221105  -00691445658  
  7050.000000  -00688760890  -00686158409  -00683612336  -00681087231  -00678549656  
  7040.000000  -00675978839  -00673373789  -00670753369  -00668146155  -00665582610  
  7030.000000  -00663077361  -00660631244  -00658219209  -00655809093  -00653357845  
  7020.000000  -00650838326  -00648232956  -00645553258  -00642827070  -00640106540  
  7010.000000  -00637449784  -00634917637  -00632555105  -00630387405  -00628409818  
  7000.000000  -00626594530  -00624893024  -00623254796  -00621632239  -00619997242  
  6990.000000  -00618332019  -00616636704  -00614908373  -00613151691  -00611359279  
  6980.000000  -00609533218  -00607670162  -00605785066  -00603892265  -00602020131  
  6970.000000  -00600189097  -00598421344  -00596725511  -00595107881  -00593565772  
  6960.000000  -00592098674  -00590700884  -00589370749  -00588099911  -00586886714  
  6950.000000  -00585724120  -00584616324  -00583562446  -00582569809  -00581631744  
  6940.000000  -00580740696  -00579871149  -00579002615  -00578113168  -00577203411  
  6930.000000  -00576288008  -00575401398  -00574576903  -00573839483  -00573188799  
  6920.000000  -00572606670  -00572057994  -00571513549  -00570952244  -00570372046  
  6910.000000  -00569776326  -00569167600  -00568534055  -00567854372  -00567106801  
  6900.000000  -00566290366  -00565433401  -00564595252  -00563845916  -00563241026  
  6890.000000  -00562794519  -00562468909  -00562184125  -00561848342  -00561390864  
  6880.000000  -00560790183  -00560075862  -00559313918  -00558576262  -00557913789  
  6870.000000  -00557340755  -00556839054  -00556375246  -00555924881  -00555481440  
  6860.000000  -00555058968  -00554672471  -00554326213  -00553998530  -00553649677  
  6850.000000  -00553233835  -00552722704  -00552116790  -00551450898  -00550779567  
  6840.000000  -00550163182  -00549647068  -00549255775  -00548989098  -00548830453  
  6830.000000  -00548750364  -00548713535  -00548677340  -00548597930  -00548431323  
  6820.000000  -00548149801  -00547748524  -00547259919  -00546741621  -00546268466  
  6810.000000  -00545901070  -00545673957  -00545576740  -00545566214  -00545579083  
  6800.000000  -00545560619  -00545481486  -00545345633  -00545183369  -00545034392  
  6790.000000  -00544931508  -00544889693  -00544905147  -00544964028  -00545047888  
  6780.000000  -00545144121  -00545240332  -00545327083  -00545387809  -00545403717  
  6770.000000  -00545355196  -00545231716  -00545037663  -00544793522  -00544532571  
  6760.000000  -00544291544  -00544103324  -00543988845  -00543957655  -00544004899  
  6750.000000  -00544117742  -00544271138  -00544434913  -00544570959  -00544644134  
  6740.000000  -00544626723  -00544509967  -00544306926  -00544050680  -00543784507  
  6730.000000  -00543546389  -00543356793  -00543211348  -00543084327  -00542941187  
  6720.000000  -00542751493  -00542503948  -00542207119  -00541888207  -00541579990  
  6710.000000  -00541310792  -00541097232  -00540940049  -00540830310  -00540748871  
  6700.000000  -00540676792  -00540592081  -00540479574  -00540328175  -00540141026  
  6690.000000  -00539933654  -00539738022  -00539593049  -00539537857  -00539595423  
  6680.000000  -00539768478  -00540031623  -00540345465  -00540660664  -00540941403  
  6670.000000  -00541163732  -00541328449  -00541443804  -00541528363  -00541592739  
  6660.000000  -00541648367  -00541701132  -00541765990  -00541862726  -00542021681  
  6650.000000  -00542270561  -00542630412  -00543102418  -00543669685  -00544295838  
  6640.000000  -00544938979  -00545555288  -00546115744  -00546601422  -00547015582  
  6630.000000  -00547369709  -00547691644  -00548009259  -00548355639  -00548754613  
  6620.000000  -00549224194  -00549767168  -00550377573  -00551039097  -00551735365  
  6610.000000  -00552451146  -00553178653  -00553912755  -00554651008  -00555384941  
  6600.000000  -00556104634  -00556794851  -00557449096  -00558067308  -00558666503  
  6590.000000  -00559269767  -00559904253  -00560586972  -00561321022  -00562094450  
  6580.000000  -00562885755  -00563675202  -00564451017  -00565214827  -00565977173  
  6570.000000  -00566750443  -00567541269  -00568343767  -00569142300  -00569913028  
  6560.000000  -00570634749  -00571291007  -00571878169  -00572401788  -00572879465  
  6550.000000  -00573335332  -00573799325  -00574302603  -00574871165  -00575521955  
  6540.000000  -00576254407  -00577053028  -00577887825  -00578727046  -00579544956  
  6530.000000  -00580331977  -00581093457  -00581844357  -00582597017  -00583351582  
  6520.000000  -00584092436  -00584792777  -00585427251  -00585983430  -00586470562  
  6510.000000  -00586916407  -00587358417  -00587827847  -00588339895  -00588887485  
  6500.000000  -00589448752  -00589995243  -00590506894  -00590976298  -00591412935  
  6490.000000  -00591835836  -00592269529  -00592737145  -00593259203  -00593852829  
  6480.000000  -00594531534  -00595302466  -00596163126  -00597096368  -00598072650  
  6470.000000  -00599052348  -00599998022  -00600880757  -00601689017  -00602425626  
  6460.000000  -00603104385  -00603740018  -00604344176  -00604923258  -00605482587  
  6450.000000  -00606031989  -00606585925  -00607163936  -00607777521  -00608428749  
  6440.000000  -00609097989  -00609756719  -00610368227  -00610910619  -00611376804  
  6430.000000  -00611785087  -00612163490  -00612544319  -00612944842  -00613366838  
  6420.000000  -00613792394  -00614198301  -00614560796  -00614869208  -00615121642  
  6410.000000  -00615327781  -00615497179  -00615641573  -00615767747  -00615885600  
  6400.000000  -00616003363  -00616133388  -00616282358  -00616453214  -00616636608  
  6390.000000  -00616819073  -00616983043  -00617120106  -00617230423  -00617327019  
  6380.000000  -00617425776  -00617539336  -00617668010  -00617798441  -00617908884  
  6370.000000  -00617977584  -00617994363  -00617963073  -00617903013  -00617838355  
  6360.000000  -00617792864  -00617779488  -00617802287  -00617856143  -00617935940  
  6350.000000  -00618037408  -00618162885  -00618314972  -00618499384  -00618716716  
  6340.000000  -00618969024  -00619253510  -00619571056  -00619917568  -00620291194  
  6330.000000  -00620681895  -00621081484  -00621477143  -00621865207  -00622247257  
  6320.000000  -00622637878  -00623054899  -00623516467  -00624029535  -00624589369  
  6310.000000  -00625177398  -00625772049  -00626352823  -00626912018  -00627449302  
  6300.000000  -00627973015  -00628485574  -00628984910  -00629457494  -00629891103  
  6290.000000  -00630277476  -00630625445  -00630957289  -00631308286  -00631713157  
  6280.000000  -00632198770  -00632774594  -00633433391  -00634154225  -00634911520  
  6270.000000  -00635679795  -00636440496  -00637179355  -00637890561  -00638570552  
  6260.000000  -00639223687  -00639856251  -00640481261  -00641110326  -00641754529  
  6250.000000  -00642416703  -00643094061  -00643778230  -00644461961  -00645142845  
  6240.000000  -00645825152  -00646517325  -00647226319  -00647951412  -00648682256  
  6230.000000  -00649400084  -00650085653  -00650726302  -00651321679  -00651884366  
  6220.000000  -00652433949  -00652992287  -00653574548  -00654189675  -00654837158  
  6210.000000  -00655514123  -00656213623  -00656928337  -00657645314  -00658346788  
  6200.000000  -00659009703  -00659611302  -00660135735  -00660581078  -00660960628  
  6190.000000  -00661300966  -00661630783  -00661975422  -00662346613  -00662747850  
  6180.000000  -00663174219  -00663624266  -00664098888  -00664603873  -00665140269  
  6170.000000  -00665698852  -00666255301  -00666773523  -00667217167  -00667560722  
  6160.000000  -00667802904  -00667967063  -00668098514  -00668249014  -00668463929  
  6150.000000  -00668771007  -00669176225  -00669668179  -00670222818  -00670814118  
  6140.000000  -00671417017  -00672012040  -00672583116  -00673119363  -00673614199  
  6130.000000  -00674067289  -00674483465  -00674871789  -00675242364  -00675603030  
  6120.000000  -00675957220  -00676305200  -00676644717  -00676976474  -00677300478  
  6110.000000  -00677620190  -00677933041  -00678234680  -00678512414  -00678755475  
  6100.000000  -00678954574  -00679112814  -00679240419  -00679357563  -00679480068  
  6090.000000  -00679619585  -00679771808  -00679927044  -00680067887  -00680186360  
  6080.000000  -00680278721  -00680355115  -00680423010  -00680490590  -00680549876  
  6070.000000  -00680588815  -00680584572  -00680524372  -00680398609  -00680216579  
  6060.000000  -00679988086  -00679731849  -00679452428  -00679154362  -00678825820  
  6050.000000  -00678461993  -00678050642  -00677593878  -00677086848  -00676534362  
  6040.000000  -00675927401  -00675263240  -00674527959  -00673721588  -00672842025  
  6030.000000  -00671904647  -00670920155  -00669906611  -00668866748  -00667803343  
  6020.000000  -00666703604  -00665562577  -00664369493  -00663130797  -00661849609  
  6010.000000  -00660544106  -00659222234  -00657900753  -00656581094  -00655272453  
  6000.000000  -00653967946  -00652667390  -00651352230  -00650008485  -00648606545  
  5990.000000  -00647127454  -00645547985  -00643865314  -00642078510  -00640204414  
  5980.000000  -00638252321  -00636236638  -00634154722  -00632008669  -00629790633  
  5970.000000  -00627511071  -00625179111  -00622825137  -00620468599  -00618134952  
  5960.000000  -00615823220  -00613530508  -00611232534  -00608913394  -00606551699  
  5950.000000  -00604141749  -00601676800  -00599157196  -00596576578  -00593928802  
  5940.000000  -00591207264  -00588412566  -00585556733  -00582661497  -00579757543  
  5930.000000  -00576872237  -00574028607  -00571236617  -00568501655  -00565824669  
  5920.000000  -00563213216  -00560678777  -00558239498  -00555908792  -00553696240  
  5910.000000  -00551596897  -00549602758  -00547695312  -00545863714  -00544089631  
  5900.000000  -00542364092  -00540662919  -00538968452  -00537246910  -00535481687  
  5890.000000  -00533655898  -00531784780  -00529890773  -00528019171  -00526206296  
  5880.000000  -00524487128  -00522874446  -00521373460  -00519978163  -00518687412  
  5870.000000  -00517501580  -00516424846  -00515452973  -00514569695  -00513739839  
  5860.000000  -00512919484  -00512062125  -00511137956  -00510134606  -00509064027  
  5850.000000  -00507946512  -00506805666  -00505652447  -00504486773  -00503298586  
  5840.000000  -00502078167  -00500824200  -00499544744  -00498257423  -00496976842  
  5830.000000  -00495713901  -00494465413  -00493225003  -00491981804  -00490734644  
  5820.000000  -00489488046  -00488254971  -00487045829  -00485863844  -00484700899  
  5810.000000  -00483537815  -00482356441  -00481138392  -00479884845  -00478597769  
  5800.000000  -00477300100  -00475999606  -00474716072  -00473444246  -00472194741  
  5790.000000  -00470962116  -00469770917  -00468641801  -00467630663  -00466787421  
  5780.000000  -00466183218  -00465866216  -00465882055  -00466235969  -00466916316  
  5770.000000  -00467869068  -00469032306  -00470321599  -00471671958  -00473020475  
  5760.000000  -00474340884  -00475611512  -00476837495  -00478010389  -00479130334  
  5750.000000  -00480175997  -00481135763  -00481992033  -00482748065  -00483415435  
  5740.000000  -00484021598  -00484597869  -00485172472  -00485769246  -00486399352  
  5730.000000  -00487072599  -00487789203  -00488552766  -00489358523  -00490201522  
  5720.000000  -00491066217  -00491934979  -00492785304  -00493599729  -00494365201  
  5710.000000  -00495077566  -00495737001  -00496347386  -00496912637  -00497438025  
  5700.000000  -00497931689  -00498406024  -00498878608  -00499365101  -00499877681  
  5690.000000  -00500412450  -00500956538  -00501481596  -00501964969  -00502387316  
  5680.000000  -00502754290  -00503084830  -00503421334  -00503807421  -00504292882  
  5670.000000  -00504913138  -00505698402  -00506660084  -00507801375  -00509105925  
  5660.000000  -00510546786  -00512078653  -00513652315  -00515215245  -00516731614  
  5650.000000  -00518181407  -00519570614  -00520916061  -00522241488  -00523558172  
  5640.000000  -00524864244  -00526141720  -00527367536  -00528524462  -00529606017  
  5630.000000  -00530622469  -00531586775  -00532515623  -00533410702  -00534270832  
  5620.000000  -00535083105  -00535844946  -00536555614  -00537230759  -00537883491  
  5610.000000  -00538529851  -00539169932  -00539799398  -00540402178  -00540969433  
  5600.000000  -00541494529  -00541984372  -00542446255  -00542889869  -00543315632  
  5590.000000  -00543720857  -00544098957  -00544450102  -00544780962  -00545106570  
  5580.000000  -00545441628  -00545795176  -00546164726  -00546538873  -00546903292  
  5570.000000  -00547249992  -00547582532  -00547915418  -00548268335  -00548655898  
  5560.000000  -00549083165  -00549542034  -00550018861  -00550499291  -00550976773  
  5550.000000  -00551451645  -00551929515  -00552413783  -00552903718  -00553393800  
  5540.000000  -00553879770  -00554363157  -00554853198  -00555362394  -00555898818  
  5530.000000  -00556457395  -00557020278  -00557559264  -00558051381  -00558485116  
  5520.000000  -00558869746  -00559226456  -00559580436  -00559945736  -00560322191  
  5510.000000  -00560697401  -00561061488  -00561417658  -00561791346  -00562221511  
  5500.000000  -00562748225  -00563389008  -00564129629  -00564920147  -00565696267  
  5490.000000  -00566399737  -00567005469  -00567524601  -00568001906  -00568491098  
  5480.000000  -00569040477  -00569672718  -00570389253  -00571170897  -00571995656  
  5470.000000  -00572839577  -00573684710  -00574509499  -00575293898  -00576016873  
  5460.000000  -00576670834  -00577266902  -00577840187  -00578441847  -00579121679  
  5450.000000  -00579910445  -00580805811  -00581774376  -00582767038  -00583741566  
  5440.000000  -00584678872  -00585586135  -00586478090  -00587360295  -00588207011  
  5430.000000  -00588971218  -00589599490  -00590070720  -00590410938  -00590701680  
  5420.000000  -00591044233  -00591531848  -00592193813  -00592991456  -00593809279  
  5410.000000  -00594516612  -00595003792  -00595242342  -00595272181  -00595193667  
  5400.000000  -00595100713  -00595063747  -00595083167  -00595122336  -00595107032  
  5390.000000  -00594991034  -00594752626  -00594426598  -00594053492  -00593681254  
  5380.000000  -00593308780  -00592912976  -00592427024  -00591799398  -00590983073  
  5370.000000  -00589981687  -00588809258  -00587513794  -00586119422  -00584664109  
  5360.000000  -00583147476  -00581593937  -00579995586  -00578378893  -00576727949  
  5350.000000  -00575049919  -00573292252  -00571425016  -00569368220  -00567093357  
  5340.000000  -00564546516  -00561743203  -00558667372  -00555357821  -00551797058  
  5330.000000  -00548010765  -00543961824  -00539668801  -00535096954  -00530278466  
  5320.000000  -00525185951  -00519853059  -00514236533  -00508350355  -00502124923  
  5310.000000  -00495559992  -00488582568  -00481203574  -00473371212  -00465118483  
  5300.000000  -00456417722  -00447317467  -00437800323  -00427914741  -00417637954  
  5290.000000  -00407006693  -00395990004  -00384618616  -00372872610  -00360797293  
  5280.000000  -00348396909  -00335730269  -00322808464  -00309678852  -00296336215  
  5270.000000  -00282804854  -00269077198  -00255180040  -00241136136  -00226991543  
  5260.000000  -00212794033  -00198584782  -00184399991  -00170253294  -00156166530  
  5250.000000  -00142144693  -00128226495  -00114433103  -00100834566  -00087461159  
  5240.000000  -00074390156  -00061632270  -00049242253  -00037196099  -00025515433  
  5230.000000  -00014144923  -00003086974   00007715482   00018237019   00028496860  
  5220.000000   00038424412   00048010336   00057178852   00065946725   00074285187  
  5210.000000   00082263814   00089892501   00097251235   00104327091   00111158208  
  5200.000000   00117686977   00123924866   00129810728   00135369477   00140561683  
  5190.000000   00145426352   00149931495   00154114282   00157942865   00161458453  
  5180.000000   00164640318   00167539267   00170139284   00172481717   00174534526  
  5170.000000   00176319023   00177794352   00178985847   00179872409   00180502870  
  5160.000000   00180876127   00181044498   00180997418   00180764641   00180316491  
  5150.000000   00179669020   00178795214   00177719289   00176429374   00174957680  
  5140.000000   00173299399   00171485670   00169513866   00167414715   00165190129  
  5130.000000   00162869782   00160453579   00157961568   00155386465   00152742274  
  5120.000000   00150026690   00147264152   00144469919   00141678196   00138905609  
  5110.000000   00136169689   00133463542   00130776009   00128082110   00125364629  
  5100.000000   00122610412   00119823139   00117014294   00114205551   00111416939  
  5090.000000   00108668014   00105969478   00103328663   00100743632   00098210919  
  5080.000000   00095718447   00093254573   00090800515   00088342141   00085862587  
  5070.000000   00083354585   00080810543   00078231595   00075614651   00072960119  
  5060.000000   00070260366   00067511336   00064704011   00061838952   00058915840  
  5050.000000   00055945973   00052937028   00049903095   00046848685   00043780391  
  5040.000000   00040694996   00037593226   00034471229   00031332173   00028178497  
  5030.000000   00025018531   00021860002   00018712511   00015584457   00012482326  
  5020.000000   00009411967   00006374537   00003372576   00000402703  -00002533214  
  5010.000000  -00005438741  -00008307679  -00011139374  -00013921189  -00016649369  
  5000.000000  -00019308859  -00021898521  -00024405960  -00026835365  -00029176607  
  4990.000000  -00031436087  -00033602275  -00035680969  -00037658815  -00039542638  
  4980.000000  -00041319402  -00042998299  -00044565216  -00046028496  -00047368944  
  4970.000000  -00048592075  -00049675595  -00050628234  -00051433020  -00052108792  
  4960.000000  -00052645654  -00053066896  -00053357640  -00053530822  -00053555190  
  4950.000000  -00053429714  -00053113807  -00052607554  -00051879206  -00050944304  
  4940.000000  -00049785183  -00048427699  -00046855786  -00045091656  -00043112197  
  4930.000000  -00040935094  -00038537301  -00035941421  -00033131977  -00030136604  
  4920.000000  -00026941270  -00023567464  -00019993878  -00016231618  -00012257273  
  4910.000000  -00008081864  -00003693882   00000885135   00005649125   00010567709  
  4900.000000   00015623089   00020784395   00026028367   00031327482   00036652940  
  4890.000000   00041978880   00047269091   00052499016   00057627080   00062633313  
  4880.000000   00067474348   00072136077   00076572247   00080770698   00084679461  
  4870.000000   00088287459   00091543014   00094446009   00096959554   00099105552  
  4860.000000   00100868071   00102286747   00103355851   00104117305   00104563987  
  4850.000000   00104734453   00104624349   00104277560   00103703076   00102955051  
  4840.000000   00102054375   00101055733   00099978850   00098865339   00097725161  
  4830.000000   00096583885   00095444645   00094323096   00093222265   00092153775  
  4820.000000   00091123995   00090142517   00089218864   00088359826   00087575751  
  4810.000000   00086868506   00086245950   00085703146   00085243658   00084857214  
  4800.000000   00084545833   00084299489   00084123891   00084013894   00083980320  
  4790.000000   00084021513   00084148626   00084357335   00084652560   00085023088  
  4780.000000   00085466322   00085966582   00086518521   00087108021   00087732612  
  4770.000000   00088383478   00089062200   00089763605   00090489889   00091235161  
  4760.000000   00091998299   00092770325   00093546556   00094317145   00095077766  
  4750.000000   00095822760   00096552937   00097269915   00097980225   00098690371  
  4740.000000   00099408405   00100139705   00100888317   00101653612   00102434072  
  4730.000000   00103223216   00104017018   00104806913   00105591241   00106363142  
  4720.000000   00107125800   00107875542   00108621390   00109364135   00110119858  
  4710.000000   00110896430   00111719530   00112605739   00113587278   00114682935  
  4700.000000   00115920464   00117308357   00118857208   00120557149   00122401529  
  4690.000000   00124369372   00126450190   00128625854   00130893477   00133240129  
  4680.000000   00135663459   00138141746   00140659102   00143177235   00145669043  
  4670.000000   00148095647   00150443406   00152700826   00154886714   00157023656  
  4660.000000   00159154038   00161314840   00163546527   00165876050   00168323946  
  4650.000000   00170897135   00173593279   00176400702   00179297794   00182259658  
  4640.000000   00185253988   00188255031   00191235946   00194185799   00197094091  
  4630.000000   00199965949   00202797246   00205591056   00208328380   00210993495  
  4620.000000   00213545761   00215957465   00218184694   00220211290   00222010870  
  4610.000000   00223591719   00224947980   00226106374   00227070149   00227871974  
  4600.000000   00228515440   00229033840   00229428995   00229731726   00229938083  
  4590.000000   00230068716   00230106630   00230056035   00229887654   00229595681  
  4580.000000   00229151721   00228555330   00227793618   00226881844   00225826388  
  4570.000000   00224656837   00223392709   00222069592   00220709805   00219344473  
  4560.000000   00217988445   00216659349   00215357567   00214084148   00212827620  
  4550.000000   00211580601   00210332453   00209080621   00207826502   00206577925  
  4540.000000   00205347404   00204146391   00202987683   00201875015   00200811987  
  4530.000000   00199789630   00198803115   00197836711   00196887837   00195945716  
  4520.000000   00195020787   00194112433   00193243355   00192415429   00191653484  
  4510.000000   00190952453   00190335779   00189795547   00189364161   00189043682  
  4500.000000   00188883809   00188897405   00189142544   00189628496   00190406854  
  4490.000000   00191474366   00192875346   00194600229   00196693208   00199142204  
  4480.000000   00201987027   00205203722   00208815858   00212781275   00217108597  
  4470.000000   00221748387   00226709280   00231949656   00237485901   00243284469  
  4460.000000   00249360265   00255676185   00262233224   00268984812   00275917640  
  4450.000000   00282983178   00290165068   00297426439   00304758763   00312143198  
  4440.000000   00319577769   00327053752   00334562298   00342089674   00349607861  
  4430.000000   00357091868   00364497915   00371800453   00378956644   00385955283  
  4420.000000   00392765287   00399389988   00405803280   00412008417   00417971402  
  4410.000000   00423686411   00429113778   00434250200   00439069549   00443590939  
  4400.000000   00447816223   00451791022   00455538593   00459116674   00462553924  
  4390.000000   00465907139   00469202545   00472491406   00475792894   00479144624  
  4380.000000   00482548434   00486018416   00489535970   00493097319   00496677593  
  4370.000000   00500271748   00503860752   00507441033   00510991889   00514502018  
  4360.000000   00517941124   00521297691   00524543088   00527687298   00530711990  
  4350.000000   00533648635   00536473811   00539218471   00541843261   00544374239  
  4340.000000   00546770899   00549056268   00551175837   00553097715   00554681863  
  4330.000000   00555772128   00556122632   00555515231   00553753777   00550780530  
  4320.000000   00546670233   00541673790   00536143200   00530495568   00525100495  
  4310.000000   00520247858   00516083425   00512642254   00509857183   00507625082  
  4300.000000   00505839165   00504417932   00503322018   00502524252   00502028979  
  4290.000000   00501813688   00501880909   00502195938   00502759654   00503545045  
  4280.000000   00504555943   00505772616   00507181696   00508752702   00510444983  
  4270.000000   00512215677   00514005285   00515753799   00517370328   00518750832  
  4260.000000   00519755210   00520242710   00520072198   00519156738   00517464853  
  4250.000000   00515064283   00512084802   00508732775   00505214045   00501743664  
  4240.000000   00498464543   00495482691   00492811974   00490437173   00488287068  
  4230.000000   00486295735   00484387319   00482509092   00480624913   00478715619  
  4220.000000   00476789460   00474856032   00472957643   00471123391   00469413289  
  4210.000000   00467859235   00466511329   00465379500   00464480480   00463790938  
  4200.000000   00463296541   00462955173   00462747248   00462636057   00462616462  
  4190.000000   00462664377   00462787551   00462966343   00463211852   00463504261  
  4180.000000   00463858799   00464263110   00464744224   00465303733   00465980573  
  4170.000000   00466785153   00467758491   00468908037   00470266784   00471830987  
  4160.000000   00473621412   00475620467   00477837151   00480242727   00482840800  
  4150.000000   00485600498   00488530120   00491605985   00494847301   00498239406  
  4140.000000   00501809082   00505543383   00509467778   00513564149   00517853144  
  4130.000000   00522312873   00526962102   00531780094   00536786146   00541962160  
  4120.000000   00547326913   00552865912   00558601426   00564530002   00570684640  
  4110.000000   00577075187   00583737615   00590674725   00597895481   00605366405  
  4100.000000   00613051859   00620884512   00628807138   00636758471   00644703436  
  4090.000000   00652620592   00660507522   00668372247   00676219278   00684058446  
  4080.000000   00691878336   00699679325   00707433464   00715135432   00722743465  
  4070.000000   00730244571   00737581679   00744736622   00751648511   00758309794  
  4060.000000   00764671644   00770743147   00776483847   00781908300   00786976598  
  4050.000000   00791711376   00796087659   00800153323   00803906377   00807407518  
  4040.000000   00810647948   00813663759   00816414062   00818908431   00821098191  
  4030.000000   00823005099   00824608903   00825958517   00827060001   00827964558  
  4020.000000   00828666056   00829208274   00829601043   00829879173   00830024567  
  4010.000000   00830074806   00830042967   00829900485   00829526783   00828908595  
  4000.000000   00828164349  
##END= 
