##TITLE= Sample 007 By ssteindl date Montag, November 26 2018
##JCAMP-DX= 4.24
##DATA TYPE= INFRARED SPECTRUM
##ORIGIN= Exported PE Spectrum Data File
##OWNER= Sandra Steindl
##DATE= 18/11/26
##TIME= 12:57:23.00
##SPECTROMETER/DATA SYSTEM= PERKIN-ELMER Frontier FT-IR/NIR IR
##INSTRUMENT PARAMETERS=
  APODIZATION=stark
  DETECTOR=INGAAS
##RESOLUTION= 16.000000
##DELTAX= -2.000000
##XUNITS= 1/CM
##YUNITS= A
##XFACTOR= 1.00
##YFACTOR= 0.00000011920928955078
##FIRSTX= 10000.00
##LASTX= 4000.00
##NPOINTS= 3001
##FIRSTY= 0.220721
##MAXY= 0.626668
##MINY= 0.191884
##XYDATA= (X++(Y..Y))
 10000.000000   1851539   1849186   1847886   1848563   1850291  
  9990.000000   1851131   1849892   1846519   1841565   1835766  
  9980.000000   1830102   1825254   1821308   1817747   1813983  
  9970.000000   1809645   1804803   1800002   1796098   1793960  
  9960.000000   1794165   1796901   1801860   1808440   1815760  
  9950.000000   1822893   1828938   1833190   1835292   1835298  
  9940.000000   1833696   1831202   1828514   1825971   1823433  
  9930.000000   1820267   1815730   1809311   1801126   1791967  
  9920.000000   1783037   1775556   1770207   1767024   1765387  
  9910.000000   1764505   1763812   1763309   1763552   1765296  
  9900.000000   1769060   1774643   1781113   1786960   1790754  
  9890.000000   1791559   1789396   1785097   1780063   1775704  
  9880.000000   1773045   1772546   1774082   1777208   1781270  
  9870.000000   1785635   1789683   1792859   1794688   1794837  
  9860.000000   1793245   1790129   1786036   1781581   1777353  
  9850.000000   1773632   1770453   1767681   1765251   1763377  
  9840.000000   1762502   1763239   1765979   1770769   1777119  
  9830.000000   1784191   1790994   1796707   1800862   1803366  
  9820.000000   1804422   1804290   1803222   1801344   1798801  
  9810.000000   1795741   1792432   1789131   1786044   1783205  
  9800.000000   1780481   1777713   1774803   1771955   1769551  
  9790.000000   1768178   1768276   1770083   1773456   1778007  
  9780.000000   1783190   1788476   1793414   1797591   1800616  
  9770.000000   1802033   1801448   1798609   1793616   1786967  
  9760.000000   1779520   1772287   1766134   1761582   1758657  
  9750.000000   1757056   1756251   1755813   1755423   1754975  
  9740.000000   1754398   1753612   1752491   1750904   1748885  
  9730.000000   1746611   1744449   1742697   1741510   1740718  
  9720.000000   1739969   1738845   1737156   1735045   1733018  
  9710.000000   1731719   1731679   1733020   1735410   1738147  
  9700.000000   1740484   1741915   1742365   1742191   1741926  
  9690.000000   1742107   1742990   1744624   1746840   1749474  
  9680.000000   1752387   1755466   1758520   1761135   1762682  
  9670.000000   1762390   1759631   1754140   1746240   1736799  
  9660.000000   1727059   1718308   1711558   1707377   1705794  
  9650.000000   1706474   1708799   1712124   1715821   1719410  
  9640.000000   1722550   1725045   1726865   1728052   1728774  
  9630.000000   1729137   1729269   1729137   1728712   1727884  
  9620.000000   1726660   1725139   1723577   1722303   1721592  
  9610.000000   1721604   1722279   1723459   1724907   1726496  
  9600.000000   1728191   1730098   1732347   1735009   1738001  
  9590.000000   1741054   1743753   1745621   1746257   1745438  
  9580.000000   1743203   1739861   1735925   1732022   1728725  
  9570.000000   1726467   1725375   1725300   1725798   1726329  
  9560.000000   1726372   1725650   1724149   1722126   1719946  
  9550.000000   1717926   1716233   1714821   1713543   1712199  
  9540.000000   1710685   1708974   1707141   1705285   1703492  
  9530.000000   1701833   1700355   1699168   1698394   1698193  
  9520.000000   1698636   1699669   1701082   1702543   1703720  
  9510.000000   1704353   1704318   1703587   1702153   1699979  
  9500.000000   1696997   1693189   1688729   1684045   1679809  
  9490.000000   1676725   1675255   1675366   1676474   1677592  
  9480.000000   1677742   1676278   1673240   1669257   1665409  
  9470.000000   1662710   1661792   1662634   1664692   1667196  
  9460.000000   1669575   1671715   1673982   1676994   1681255  
  9450.000000   1686888   1693476   1700217   1706124   1710367  
  9440.000000   1712500   1712555   1711008   1708547   1705859  
  9430.000000   1703434   1701458   1699862   1698332   1696473  
  9420.000000   1693875   1690335   1685927   1681123   1676626  
  9410.000000   1673241   1671532   1671660   1673274   1675610  
  9400.000000   1677766   1678972   1678880   1677608   1675674  
  9390.000000   1673704   1672217   1671421   1671275   1671555  
  9380.000000   1672067   1672688   1673381   1674114   1674775  
  9370.000000   1675200   1675217   1674829   1674229   1673818  
  9360.000000   1674002   1675017   1676760   1678773   1680397  
  9350.000000   1681013   1680294   1678308   1675439   1672185  
  9340.000000   1668919   1665768   1662677   1659562   1656518  
  9330.000000   1653855   1651999   1651261   1651608   1652627  
  9320.000000   1653639   1654017   1653466   1652233   1651016  
  9310.000000   1650658   1651730   1654254   1657657   1660986  
  9300.000000   1663278   1663926   1662890   1660630   1657860  
  9290.000000   1655189   1652914   1650957   1649025   1646794  
  9280.000000   1644107   1641026   1637808   1634771   1632161  
  9270.000000   1630132   1628738   1628051   1628158   1629149  
  9260.000000   1631028   1633615   1636573   1639448   1641834  
  9250.000000   1643470   1644315   1644515   1644331   1643994  
  9240.000000   1643652   1643339   1643068   1642863   1642797  
  9230.000000   1642917   1643183   1643431   1643393   1642806  
  9220.000000   1641505   1639578   1637358   1635386   1634202  
  9210.000000   1634178   1635390   1637630   1640498   1643502  
  9200.000000   1646161   1648082   1649010   1648832   1647578  
  9190.000000   1645441   1642816   1640244   1638307   1637445  
  9180.000000   1637801   1639166   1641013   1642671   1643510  
  9170.000000   1643210   1641830   1639781   1637615   1635849  
  9160.000000   1634817   1634581   1634968   1635636   1636229  
  9150.000000   1636429   1636028   1634928   1633176   1630973  
  9140.000000   1628657   1626655   1625352   1625012   1625643  
  9130.000000   1627026   1628744   1630388   1631682   1632608  
  9120.000000   1633330   1634069   1634914   1635708   1636083  
  9110.000000   1635548   1633755   1630636   1626541   1622087  
  9100.000000   1617983   1614785   1612741   1611787   1611613  
  9090.000000   1611888   1612371   1613020   1613896   1615101  
  9080.000000   1616649   1618439   1620287   1621969   1623342  
  9070.000000   1624310   1624875   1625008   1624687   1623830  
  9060.000000   1622399   1620462   1618239   1616091   1614391  
  9050.000000   1613463   1613447   1614304   1615794   1617619  
  9040.000000   1619482   1621177   1622565   1623559   1624104  
  9030.000000   1624150   1623677   1622711   1621380   1619870  
  9020.000000   1618411   1617182   1616288   1615722   1615395  
  9010.000000   1615185   1614975   1614714   1614399   1614085  
  9000.000000   1613849   1613774   1613946   1614426   1615250  
  8990.000000   1616379   1617697   1619005   1620075   1620717  
  8980.000000   1620852   1620564   1620079   1619716   1619768  
  8970.000000   1620401   1621582   1623093   1624591   1625723  
  8960.000000   1626204   1625908   1624870   1623263   1621327  
  8950.000000   1619324   1617503   1616057   1615103   1614657  
  8940.000000   1614641   1614883   1615142   1615188   1614856  
  8930.000000   1614132   1613143   1612142   1611415   1611192  
  8920.000000   1611578   1612504   1613770   1615076   1616130  
  8910.000000   1616694   1616658   1616025   1614919   1613531  
  8900.000000   1612107   1610876   1610023   1609643   1609751  
  8890.000000   1610269   1611066   1611995   1612940   1613853  
  8880.000000   1614726   1615610   1616557   1617621   1618817  
  8870.000000   1620134   1621550   1623009   1624442   1625725  
  8860.000000   1626733   1627285   1627237   1626477   1625033  
  8850.000000   1623040   1620747   1618477   1616572   1615359  
  8840.000000   1615058   1615824   1617674   1620552   1624258  
  8830.000000   1628505   1632902   1637013   1640420   1642765  
  8820.000000   1643855   1643642   1642297   1640082   1637357  
  8810.000000   1634461   1631704   1629336   1627523   1626395  
  8800.000000   1626006   1626401   1627546   1629380   1631753  
  8790.000000   1634468   1637271   1639869   1641989   1643390  
  8780.000000   1643980   1643787   1643042   1642078   1641303  
  8770.000000   1641059   1641522   1642669   1644276   1646049  
  8760.000000   1647727   1649198   1650511   1651814   1653238  
  8750.000000   1654780   1656262   1657365   1657788   1657375  
  8740.000000   1656271   1654879   1653767   1653441   1654167  
  8730.000000   1655887   1658247   1660769   1663017   1664772  
  8720.000000   1666070   1667154   1668318   1669770   1671532  
  8710.000000   1673454   1675288   1676797   1677853   1678446  
  8700.000000   1678673   1678669   1678559   1678434   1678353  
  8690.000000   1678357   1678473   1678712   1679061   1679467  
  8680.000000   1679872   1680233   1680587   1681048   1681801  
  8670.000000   1683022   1684809   1687116   1689742   1692415  
  8660.000000   1694875   1696996   1698808   1700497   1702316  
  8650.000000   1704465   1706998   1709771   1712499   1714809  
  8640.000000   1716386   1717026   1716729   1715659   1714118  
  8630.000000   1712467   1711053   1710181   1710046   1710747  
  8620.000000   1712253   1714453   1717159   1720171   1723280  
  8610.000000   1726316   1729138   1731646   1733771   1735474  
  8600.000000   1736773   1737728   1738459   1739105   1739807  
  8590.000000   1740656   1741662   1742758   1743814   1744715  
  8580.000000   1745388   1745860   1746223   1746612   1747139  
  8570.000000   1747858   1748741   1749700   1750628   1751448  
  8560.000000   1752135   1752725   1753299   1753949   1754762  
  8550.000000   1755791   1757062   1758541   1760156   1761771  
  8540.000000   1763235   1764396   1765172   1765581   1765784  
  8530.000000   1766029   1766598   1767696   1769391   1771581  
  8520.000000   1774021   1776433   1778599   1780470   1782142  
  8510.000000   1783838   1785761   1788034   1790617   1793319  
  8500.000000   1795856   1797933   1799346   1799993   1799899  
  8490.000000   1799164   1797944   1796413   1794754   1793156  
  8480.000000   1791817   1790921   1790595   1790903   1791815  
  8470.000000   1793244   1795041   1797064   1799178   1801296  
  8460.000000   1803367   1805345   1807208   1808913   1810449  
  8450.000000   1811775   1812856   1813631   1814036   1814024  
  8440.000000   1813598   1812875   1812088   1811581   1811686  
  8430.000000   1812650   1814480   1816945   1819568   1821788  
  8420.000000   1823125   1823347   1822548   1821103   1819529  
  8410.000000   1818299   1817685   1817688   1818075   1818516  
  8400.000000   1818743   1818661   1818372   1818117   1818141  
  8390.000000   1818599   1819462   1820548   1821590   1822347  
  8380.000000   1822702   1822678   1822426   1822153   1822043  
  8370.000000   1822201   1822619   1823199   1823798   1824272  
  8360.000000   1824514   1824462   1824109   1823498   1822709  
  8350.000000   1821850   1821042   1820400   1820015   1819930  
  8340.000000   1820123   1820515   1820987   1821425   1821739  
  8330.000000   1821905   1821956   1821972   1822040   1822221  
  8320.000000   1822516   1822869   1823181   1823353   1823318  
  8310.000000   1823077   1822689   1822254   1821868   1821586  
  8300.000000   1821402   1821239   1820978   1820493   1819701  
  8290.000000   1818586   1817209   1815693   1814207   1812942  
  8280.000000   1812068   1811722   1811954   1812731   1813917  
  8270.000000   1815302   1816632   1817673   1818266   1818370  
  8260.000000   1818063   1817504   1816865   1816270   1815749  
  8250.000000   1815246   1814660   1813917   1813018   1812059  
  8240.000000   1811173   1810482   1809997   1809617   1809128  
  8230.000000   1808303   1806991   1805210   1803152   1801136  
  8220.000000   1799483   1798416   1797964   1797979   1798170  
  8210.000000   1798224   1797904   1797120   1795927   1794479  
  8200.000000   1792947   1791452   1790041   1788691   1787342  
  8190.000000   1785944   1784477   1782977   1781504   1780139  
  8180.000000   1778942   1777956   1777182   1776589   1776112  
  8170.000000   1775648   1775069   1774239   1773054   1771475  
  8160.000000   1769555   1767435   1765317   1763408   1761865  
  8150.000000   1760755   1760034   1759572   1759179   1758681  
  8140.000000   1757942   1756917   1755634   1754186   1752699  
  8130.000000   1751285   1750029   1748937   1747959   1746965  
  8120.000000   1745805   1744333   1742475   1740266   1737870  
  8110.000000   1735555   1733624   1732335   1731818   1732035  
  8100.000000   1732777   1733728   1734549   1734968   1734857  
  8090.000000   1734236   1733263   1732139   1731056   1730116  
  8080.000000   1729327   1728611   1727853   1726961   1725897  
  8070.000000   1724707   1723493   1722391   1721513   1720915  
  8060.000000   1720568   1720359   1720124   1719685   1718917  
  8050.000000   1717781   1716359   1714833   1713448   1712439  
  8040.000000   1711964   1712055   1712601   1713378   1714110  
  8030.000000   1714548   1714534   1714039   1713152   1712043  
  8020.000000   1710895   1709857   1709003   1708340   1707824  
  8010.000000   1707395   1707007   1706634   1706264   1705876  
  8000.000000   1705428   1704851   1704076   1703045   1701763  
  7990.000000   1700292   1698760   1697326   1696136   1695297  
  7980.000000   1694845   1694760   1694979   1695435   1696067  
  7970.000000   1696826   1697661   1698484   1699175   1699562  
  7960.000000   1699492   1698847   1697626   1695940   1694020  
  7950.000000   1692149   1690593   1689539   1689039   1689030  
  7940.000000   1689353   1689827   1690299   1690673   1690916  
  7930.000000   1691019   1690982   1690765   1690325   1689605  
  7920.000000   1688609   1687396   1686115   1684956   1684121  
  7910.000000   1683765   1683953   1684652   1685734   1687014  
  7900.000000   1688290   1689379   1690152   1690542   1690555  
  7890.000000   1690253   1689748   1689174   1688666   1688337  
  7880.000000   1688256   1688444   1688867   1689460   1690128  
  7870.000000   1690783   1691328   1691688   1691786   1691574  
  7860.000000   1691027   1690167   1689071   1687857   1686675  
  7850.000000   1685654   1684874   1684339   1683978   1683684  
  7840.000000   1683357   1682957   1682514   1682134   1681938  
  7830.000000   1682022   1682403   1683010   1683700   1684311  
  7820.000000   1684710   1684836   1684711   1684415   1684054  
  7810.000000   1683710   1683418   1683157   1682860   1682448  
  7800.000000   1681850   1681033   1680006   1678826   1677578  
  7790.000000   1676367   1675278   1674367   1673631   1673024  
  7780.000000   1672460   1671855   1671156   1670370   1669563  
  7770.000000   1668832   1668271   1667917   1667741   1667640  
  7760.000000   1667489   1667179   1666666   1665981   1665215  
  7750.000000   1664476   1663846   1663352   1662973   1662660  
  7740.000000   1662374   1662105   1661871   1661693   1661564  
  7730.000000   1661435   1661225   1660858   1660304   1659606  
  7720.000000   1658873   1658234   1657789   1657554   1657457  
  7710.000000   1657371   1657166   1656775   1656219   1655596  
  7700.000000   1655035   1654635   1654415   1654311   1654206  
  7690.000000   1653979   1653566   1652974   1652282   1651591  
  7680.000000   1650984   1650491   1650087   1649725   1649363  
  7670.000000   1649000   1648675   1648450   1648383   1648489  
  7660.000000   1648736   1649042   1649306   1649428   1649337  
  7650.000000   1649001   1648438   1647704   1646893   1646122  
  7640.000000   1645516   1645185   1645194   1645539   1646135  
  7630.000000   1646829   1647434   1647782   1647773   1647406  
  7620.000000   1646773   1646030   1645349   1644861   1644635  
  7610.000000   1644654   1644850   1645124   1645391   1645603  
  7600.000000   1645754   1645879   1646020   1646219   1646498  
  7590.000000   1646851   1647254   1647666   1648052   1648377  
  7580.000000   1648627   1648792   1648875   1648876   1648802  
  7570.000000   1648660   1648468   1648254   1648064   1647942  
  7560.000000   1647934   1648061   1648322   1648693   1649144  
  7550.000000   1649656   1650242   1650929   1651767   1652771  
  7540.000000   1653923   1655138   1656300   1657280   1658003  
  7530.000000   1658465   1658766   1659061   1659531   1660303  
  7520.000000   1661419   1662815   1664351   1665853   1667179  
  7510.000000   1668254   1669092   1669771   1670404   1671094  
  7500.000000   1671918   1672899   1674028   1675264   1676566  
  7490.000000   1677893   1679222   1680538   1681845   1683157  
  7480.000000   1684501   1685901   1687380   1688940   1690578  
  7470.000000   1692261   1693962   1695645   1697291   1698889  
  7460.000000   1700444   1701966   1703477   1704999   1706567  
  7450.000000   1708212   1709972   1711869   1713912   1716076  
  7440.000000   1718320   1720582   1722812   1724975   1727067  
  7430.000000   1729104   1731119   1733145   1735211   1737333  
  7420.000000   1739522   1741784   1744116   1746504   1748912  
  7410.000000   1751285   1753560   1755686   1757646   1759468  
  7400.000000   1761220   1762983   1764816   1766731   1768684  
  7390.000000   1770604   1772421   1774114   1775718   1777326  
  7380.000000   1779042   1780945   1783043   1785279   1787555  
  7370.000000   1789775   1791884   1793875   1795783   1797642  
  7360.000000   1799458   1801189   1802775   1804164   1805365  
  7350.000000   1806462   1807610   1808986   1810719   1812853  
  7340.000000   1815316   1817963   1820610   1823112   1825388  
  7330.000000   1827434   1829298   1831045   1832730   1834380  
  7320.000000   1835991   1837541   1839012   1840399   1841716  
  7310.000000   1843000   1844291   1845641   1847082   1848640  
  7300.000000   1850300   1852021   1853730   1855343   1856790  
  7290.000000   1858033   1859084   1859997   1860843   1861682  
  7280.000000   1862535   1863385   1864187   1864905   1865539  
  7270.000000   1866135   1866774   1867534   1868453   1869505  
  7260.000000   1870612   1871665   1872591   1873371   1874074  
  7250.000000   1874812   1875720   1876883   1878329   1880004  
  7240.000000   1881832   1883727   1885664   1887647   1889727  
  7230.000000   1891925   1894233   1896575   1898859   1900988  
  7220.000000   1902932   1904716   1906445   1908241   1910233  
  7210.000000   1912489   1915021   1917771   1920655   1923576  
  7200.000000   1926471   1929301   1932077   1934820   1937578  
  7190.000000   1940389   1943300   1946334   1949516   1952834  
  7180.000000   1956273   1959788   1963343   1966903   1970464  
  7170.000000   1974043   1977682   1981415   1985272   1989229  
  7160.000000   1993246   1997234   2001119   2004833   2008369  
  7150.000000   2011757   2015091   2018483   2022071   2025950  
  7140.000000   2030185   2034762   2039633   2044699   2049876  
  7130.000000   2055079   2060277   2065449   2070623   2075813  
  7120.000000   2081059   2086369   2091771   2097271   2102899  
  7110.000000   2108668   2114607   2120715   2126989   2133389  
  7100.000000   2139879   2146400   2152921   2159403   2165840  
  7090.000000   2172218   2178544   2184821   2191076   2197342  
  7080.000000   2203680   2210147   2216794   2223627   2230609  
  7070.000000   2237646   2244626   2251441   2258028   2264384  
  7060.000000   2270566   2276666   2282783   2288989   2295325  
  7050.000000   2301792   2308367   2315019   2321712   2328418  
  7040.000000   2335100   2341727   2348266   2354706   2361055  
  7030.000000   2367356   2373658   2380011   2386424   2392866  
  7020.000000   2399256   2405501   2411513   2417254   2422732  
  7010.000000   2428014   2433173   2438287   2443388   2448482  
  7000.000000   2453530   2458496   2463336   2468038   2472594  
  6990.000000   2477025   2481341   2485569   2489719   2493820  
  6980.000000   2497889   2501964   2506064   2510213   2514402  
  6970.000000   2518617   2522809   2526930   2530914   2534713  
  6960.000000   2538283   2541617   2544724   2547655   2550464  
  6950.000000   2553222   2555965   2558722   2561469   2564180  
  6940.000000   2566808   2569332   2571738   2574048   2576272  
  6930.000000   2578423   2580484   2582433   2584233   2585880  
  6920.000000   2587387   2588810   2590207   2591644   2593148  
  6910.000000   2594724   2596336   2597952   2599531   2601057  
  6900.000000   2602512   2603886   2605156   2606298   2607292  
  6890.000000   2608143   2608885   2609582   2610306   2611116  
  6880.000000   2612037   2613058   2614141   2615254   2616378  
  6870.000000   2617526   2618726   2620001   2621343   2622714  
  6860.000000   2624046   2625274   2626360   2627303   2628139  
  6850.000000   2628920   2629688   2630462   2631231   2631981  
  6840.000000   2632704   2633415   2634145   2634928   2635770  
  6830.000000   2636654   2637525   2638328   2639021   2639600  
  6820.000000   2640091   2640541   2640981   2641420   2641833  
  6810.000000   2642187   2642449   2642627   2642753   2642884  
  6800.000000   2643064   2643309   2643588   2643843   2643999  
  6790.000000   2644007   2643851   2643557   2643179   2642786  
  6780.000000   2642436   2642176   2642034   2642024   2642145  
  6770.000000   2642384   2642709   2643074   2643423   2643706  
  6760.000000   2643886   2643954   2643923   2643819   2643671  
  6750.000000   2643499   2643317   2643134   2642964   2642832  
  6740.000000   2642757   2642759   2642823   2642914   2642971  
  6730.000000   2642931   2642747   2642407   2641934   2641374  
  6720.000000   2640779   2640188   2639619   2639077   2638561  
  6710.000000   2638086   2637671   2637349   2637134   2637026  
  6700.000000   2636991   2636977   2636921   2636774   2636505  
  6690.000000   2636105   2635580   2634945   2634212   2633390  
  6680.000000   2632490   2631529   2630527   2629514   2628512  
  6670.000000   2627548   2626628   2625762   2624942   2624167  
  6660.000000   2623416   2622666   2621874   2620996   2619985  
  6650.000000   2618816   2617489   2616042   2614537   2613050  
  6640.000000   2611642   2610356   2609199   2608156   2607188  
  6630.000000   2606256   2605312   2604319   2603236   2602035  
  6620.000000   2600699   2599232   2597665   2596052   2594457  
  6610.000000   2592939   2591528   2590220   2588975   2587734  
  6600.000000   2586435   2585039   2583527   2581916   2580233  
  6590.000000   2578516   2576795   2575089   2573408   2571752  
  6580.000000   2570116   2568492   2566872   2565250   2563624  
  6570.000000   2562005   2560413   2558876   2557417   2556050  
  6560.000000   2554768   2553544   2552338   2551105   2549818  
  6550.000000   2548466   2547060   2545627   2544201   2542807  
  6540.000000   2541464   2540177   2538943   2537754   2536600  
  6530.000000   2535468   2534349   2533234   2532120   2531007  
  6520.000000   2529900   2528807   2527731   2526673   2525629  
  6510.000000   2524593   2523565   2522547   2521550   2520579  
  6500.000000   2519633   2518697   2517749   2516765   2515738  
  6490.000000   2514678   2513615   2512588   2511622   2510717  
  6480.000000   2509844   2508950   2507986   2506921   2505762  
  6470.000000   2504547   2503329   2502156   2501050   2500003  
  6460.000000   2498988   2497972   2496937   2495886   2494840  
  6450.000000   2493823   2492854   2491933   2491047   2490180  
  6440.000000   2489327   2488489   2487681   2486914   2486195  
  6430.000000   2485513   2484855   2484203   2483552   2482906  
  6420.000000   2482282   2481694   2481152   2480654   2480194  
  6410.000000   2479763   2479362   2478992   2478658   2478354  
  6400.000000   2478066   2477773   2477462   2477133   2476807  
  6390.000000   2476516   2476291   2476145   2476057   2475984  
  6380.000000   2475870   2475672   2475375   2475000   2474593  
  6370.000000   2474201   2473855   2473558   2473286   2473006  
  6360.000000   2472691   2472332   2471938   2471528   2471113  
  6350.000000   2470697   2470265   2469804   2469308   2468784  
  6340.000000   2468250   2467728   2467230   2466758   2466298  
  6330.000000   2465841   2465374   2464900   2464417   2463925  
  6320.000000   2463400   2462812   2462121   2461304   2460355  
  6310.000000   2459308   2458204   2457097   2456012   2454957  
  6300.000000   2453905   2452828   2451698   2450514   2449283  
  6290.000000   2448029   2446758   2445468   2444134   2442735  
  6280.000000   2441253   2439700   2438104   2436506   2434935  
  6270.000000   2433405   2431902   2430396   2428853   2427254  
  6260.000000   2425593   2423884   2422141   2420380   2418598  
  6250.000000   2416794   2414959   2413101   2411232   2409379  
  6240.000000   2407558   2405781   2404036   2402305   2400560  
  6230.000000   2398777   2396944   2395061   2393137   2391185  
  6220.000000   2389220   2387256   2385308   2383397   2381539  
  6210.000000   2379754   2378052   2376434   2374895   2373418  
  6200.000000   2371986   2370576   2369165   2367726   2366233  
  6190.000000   2364655   2362979   2361204   2359354   2357475  
  6180.000000   2355627   2353866   2352236   2350757   2349420  
  6170.000000   2348196   2347045   2345927   2344810   2343673  
  6160.000000   2342505   2341304   2340070   2338810   2337531  
  6150.000000   2336240   2334946   2333651   2332353   2331045  
  6140.000000   2329722   2328377   2327013   2325637   2324261  
  6130.000000   2322896   2321551   2320231   2318941   2317683  
  6120.000000   2316467   2315299   2314191   2313144   2312159  
  6110.000000   2311223   2310326   2309452   2308591   2307733  
  6100.000000   2306880   2306031   2305196   2304384   2303615  
  6090.000000   2302905   2302272   2301719   2301242   2300813  
  6080.000000   2300409   2299993   2299559   2299109   2298678  
  6070.000000   2298301   2298025   2297866   2297835   2297910  
  6060.000000   2298077   2298310   2298611   2298980   2299442  
  6050.000000   2300001   2300673   2301443   2302312   2303260  
  6040.000000   2304295   2305411   2306625   2307934   2309342  
  6030.000000   2310833   2312402   2314036   2315747   2317537  
  6020.000000   2319425   2321403   2323467   2325581   2327716  
  6010.000000   2329832   2331918   2333967   2336004   2338049  
  6000.000000   2340135   2342276   2344489   2346768   2349115  
  5990.000000   2351512   2353956   2356431   2358935   2361464  
  5980.000000   2364035   2366665   2369393   2372246   2375252  
  5970.000000   2378410   2381708   2385108   2388580   2392086  
  5960.000000   2395618   2399164   2402734   2406319   2409915  
  5950.000000   2413500   2417065   2420606   2424146   2427717  
  5940.000000   2431360   2435105   2438960   2442908   2446910  
  5930.000000   2450927   2454922   2458877   2462777   2466611  
  5920.000000   2470354   2473973   2477429   2480694   2483761  
  5910.000000   2486654   2489416   2492101   2494750   2497393  
  5900.000000   2500033   2502672   2505308   2507961   2510650  
  5890.000000   2513409   2516248   2519165   2522128   2525096  
  5880.000000   2528023   2530873   2533624   2536263   2538784  
  5870.000000   2541179   2543443   2545574   2547593   2549534  
  5860.000000   2551454   2553409   2555448   2557597   2559862  
  5850.000000   2562232   2564693   2567240   2569875   2572604  
  5840.000000   2575427   2578329   2581281   2584241   2587179  
  5830.000000   2590074   2592930   2595762   2598591   2601428  
  5820.000000   2604269   2607097   2609889   2612626   2615293  
  5810.000000   2617893   2620418   2622877   2625251   2627550  
  5800.000000   2629759   2631908   2634002   2636086   2638151  
  5790.000000   2640207   2642185   2644028   2645615   2646854  
  5780.000000   2647626   2647860   2647492   2646521   2644967  
  5770.000000   2642919   2640486   2637828   2635089   2632418  
  5760.000000   2629904   2627610   2625533   2623657   2621938  
  5750.000000   2620352   2618874   2617502   2616233   2615062  
  5740.000000   2613984   2612980   2612041   2611148   2610301  
  5730.000000   2609481   2608686   2607893   2607091   2606266  
  5720.000000   2605424   2604580   2603767   2603015   2602353  
  5710.000000   2601791   2601331   2600958   2600660   2600423  
  5700.000000   2600237   2600091   2599971   2599856   2599721  
  5690.000000   2599551   2599332   2599076   2598794   2598508  
  5680.000000   2598225   2597946   2597645   2597296   2596852  
  5670.000000   2596280   2595540   2594603   2593442   2592046  
  5660.000000   2590413   2588574   2586571   2584477   2582359  
  5650.000000   2580283   2578284   2576380   2574563   2572820  
  5640.000000   2571139   2569521   2567969   2566490   2565081  
  5630.000000   2563731   2562425   2561153   2559920   2558741  
  5620.000000   2557643   2556638   2555732   2554897   2554102  
  5610.000000   2553303   2552480   2551624   2550756   2549899  
  5600.000000   2549077   2548296   2547545   2546799   2546033  
  5590.000000   2545230   2544382   2543496   2542582   2541651  
  5580.000000   2540710   2539768   2538831   2537908   2537001  
  5570.000000   2536106   2535205   2534274   2533284   2532220  
  5560.000000   2531079   2529885   2528669   2527467   2526304  
  5550.000000   2525187   2524110   2523059   2522020   2520988  
  5540.000000   2519966   2518959   2517967   2516985   2516005  
  5530.000000   2515022   2514042   2513077   2512145   2511252  
  5520.000000   2510394   2509546   2508677   2507757   2506770  
  5510.000000   2505720   2504623   2503505   2502378   2501248  
  5500.000000   2500109   2498957   2497788   2496619   2495461  
  5490.000000   2494327   2493208   2492079   2490900   2489637  
  5480.000000   2488267   2486798   2485254   2483677   2482097  
  5470.000000   2480535   2478988   2477443   2475876   2474268  
  5460.000000   2472601   2470859   2469025   2467085   2465031  
  5450.000000   2462873   2460645   2458401   2456203   2454101  
  5440.000000   2452121   2450258   2448487   2446775   2445100  
  5430.000000   2443449   2441825   2440225   2438647   2437069  
  5420.000000   2435492   2433915   2432385   2430956   2429703  
  5410.000000   2428661   2427843   2427195   2426657   2426152  
  5400.000000   2425651   2425143   2424673   2424278   2424012  
  5390.000000   2423881   2423891   2424014   2424255   2424611  
  5380.000000   2425124   2425807   2426690   2427743   2428947  
  5370.000000   2430239   2431603   2433004   2434483   2436043  
  5360.000000   2437750   2439609   2441678   2443953   2446503  
  5350.000000   2449341   2452554   2456152   2460203   2464669  
  5340.000000   2469579   2474867   2480569   2486640   2493139  
  5330.000000   2500020   2507334   2515011   2523090   2531513  
  5320.000000   2540371   2549665   2559544   2570028   2581252  
  5310.000000   2593180   2605879   2619251   2633336   2648048  
  5300.000000   2663463   2679548   2696427   2714099   2732690  
  5290.000000   2752176   2772622   2793919   2816028   2838767  
  5280.000000   2862065   2885788   2909968   2934607   2959841  
  5270.000000   2985712   3012270   3039406   3066957   3094685  
  5260.000000   3122393   3149965   3177396   3204771   3232168  
  5250.000000   3259638   3287078   3314334   3341121   3367254  
  5240.000000   3392535   3416989   3440624   3463625   3486048  
  5230.000000   3508026   3529487   3550417   3570625   3590062  
  5220.000000   3608577   3626230   3642998   3659055   3674440  
  5210.000000   3689321   3703662   3717511   3730707   3743214  
  5200.000000   3754860   3765677   3775606   3784792   3793249  
  5190.000000   3801127   3808399   3815140   3821260   3826802  
  5180.000000   3831689   3835998   3839692   3842856   3845440  
  5170.000000   3847494   3848948   3849853   3850170   3849995  
  5160.000000   3849334   3848292   3846856   3845088   3842936  
  5150.000000   3840432   3837533   3834295   3830709   3826850  
  5140.000000   3822719   3818377   3813817   3809085   3804173  
  5130.000000   3799125   3793935   3788632   3783203   3777663  
  5120.000000   3772001   3766246   3760414   3754556   3748702  
  5110.000000   3742889   3737121   3731397   3725691   3719991  
  5100.000000   3714285   3708581   3702894   3697248   3691659  
  5090.000000   3686139   3680691   3675316   3670010   3664777  
  5080.000000   3659613   3654518   3649472   3644458   3639443  
  5070.000000   3634398   3629294   3624115   3618844   3613478  
  5060.000000   3608012   3602451   3596794   3591058   3585247  
  5050.000000   3579384   3573471   3567521   3561520   3555464  
  5040.000000   3549330   3543109   3536790   3530380   3523890  
  5030.000000   3517345   3510769   3504192   3497640   3491135  
  5020.000000   3484695   3478327   3472035   3465808   3459643  
  5010.000000   3453525   3447462   3441454   3435531   3429710  
  5000.000000   3424032   3418509   3413177   3408028   3403088  
  4990.000000   3398342   3393820   3389513   3385460   3381651  
  4980.000000   3378122   3374849   3371860   3369122   3366668  
  4970.000000   3364473   3362590   3361006   3359781   3358897  
  4960.000000   3358400   3358257   3358501   3359091   3360062  
  4950.000000   3361378   3363081   3365138   3367591   3370398  
  4940.000000   3373593   3377129   3381037   3385267   3389853  
  4930.000000   3394751   3399995   3405547   3411448   3417668  
  4920.000000   3424252   3431176   3438480   3446134   3454163  
  4910.000000   3462529   3471240   3480250   3489552   3499097  
  4900.000000   3508864   3518806   3528896   3539092   3549369  
  4890.000000   3559694   3570033   3580353   3590599   3600731  
  4880.000000   3610681   3620419   3629883   3639064   3647910  
  4870.000000   3656420   3664535   3672243   3679480   3686243  
  4860.000000   3692484   3698235   3703485   3708296   3712678  
  4850.000000   3716705   3720393   3723813   3726979   3729956  
  4840.000000   3732750   3735408   3737920   3740316   3742582  
  4830.000000   3744747   3746815   3748827   3750801   3752776  
  4820.000000   3754758   3756758   3758762   3760763   3762745  
  4810.000000   3764706   3766646   3768573   3770495   3772420  
  4800.000000   3774356   3776306   3778278   3780281   3782324  
  4790.000000   3784415   3786557   3788747   3790980   3793249  
  4780.000000   3795545   3797867   3800207   3802558   3804901  
  4770.000000   3807216   3809469   3811635   3813687   3815623  
  4760.000000   3817438   3819154   3820777   3822330   3823806  
  4750.000000   3825207   3826508   3827700   3828750   3829655  
  4740.000000   3830393   3830972   3831386   3831653   3831776  
  4730.000000   3831775   3831657   3831441   3831136   3830763  
  4720.000000   3830335   3829875   3829403   3828939   3828497  
  4710.000000   3828087   3827719   3827397   3827132   3826937  
  4700.000000   3826834   3826844   3826994   3827302   3827785  
  4690.000000   3828445   3829282   3830280   3831425   3832680  
  4680.000000   3834014   3835375   3836724   3838004   3839194  
  4670.000000   3840265   3841230   3842103   3842931   3843750  
  4660.000000   3844617   3845571   3846662   3847921   3849388  
  4650.000000   3851081   3853014   3855178   3857550   3860089  
  4640.000000   3862746   3865473   3868233   3871000   3873763  
  4630.000000   3876519   3879263   3881990   3884682   3887317  
  4620.000000   3889859   3892277   3894530   3896586   3898408  
  4610.000000   3899982   3901289   3902353   3903192   3903870  
  4600.000000   3904431   3904947   3905447   3905969   3906499  
  4590.000000   3907031   3907517   3907931   3908222   3908370  
  4580.000000   3908338   3908125   3907717   3907135   3906391  
  4570.000000   3905528   3904570   3903560   3902509   3901433  
  4560.000000   3900317   3899152   3897910   3896584   3895162  
  4550.000000   3893652   3892062   3890410   3888707   3886970  
  4540.000000   3885217   3883463   3881732   3880041   3878410  
  4530.000000   3876844   3875354   3873927   3872577   3871297  
  4520.000000   3870120   3869049   3868132   3867364   3866787  
  4510.000000   3866375   3866171   3866160   3866421   3866975  
  4500.000000   3867942   3869355   3871332   3873869   3877046  
  4490.000000   3880823   3885264   3890334   3896118   3902600  
  4480.000000   3909873   3917905   3926748   3936324   3946639  
  4470.000000   3957582   3969145   3981225   3993820   4006841  
  4460.000000   4020285   4034059   4048139   4062427   4076885  
  4450.000000   4091428   4106033   4120654   4135290   4149934  
  4440.000000   4164588   4179249   4193898   4208522   4223072  
  4430.000000   4237535   4251852   4266022   4279979   4293721  
  4420.000000   4307164   4320290   4332990   4345236   4356914  
  4410.000000   4368004   4378404   4388110   4397042   4405218  
  4400.000000   4412588   4419205   4425064   4430264   4434856  
  4390.000000   4438978   4442722   4446241   4449628   4453014  
  4380.000000   4456459   4460044   4463785   4467725   4471867  
  4370.000000   4476242   4480863   4485757   4490929   4496378  
  4360.000000   4502073   4507971   4514004   4520119   4526233  
  4350.000000   4532319   4538300   4544182   4549909   4555523  
  4340.000000   4560991   4566359   4571555   4576510   4580979  
  4330.000000   4584667   4587137   4587989   4586867   4583650  
  4320.000000   4578437   4571639   4563834   4555733   4547962  
  4310.000000   4541034   4535203   4530548   4526946   4524226  
  4300.000000   4522176   4520645   4519526   4518754   4518296  
  4290.000000   4518100   4518143   4518366   4518765   4519316  
  4280.000000   4520043   4520952   4522052   4523342   4524791  
  4270.000000   4526381   4528050   4529743   4531333   4532664  
  4260.000000   4533499   4533586   4532662   4530550   4527169  
  4250.000000   4522613   4517094   4510959   4504564   4498282  
  4240.000000   4492364   4486996   4482207   4477971   4474163  
  4230.000000   4470664   4467325   4464032   4460691   4457237  
  4220.000000   4453654   4449937   4446144   4442325   4438587  
  4210.000000   4435000   4431665   4428624   4425928   4423567  
  4200.000000   4421540   4419800   4418323   4417050   4415964  
  4190.000000   4415007   4414173   4413412   4412736   4412108  
  4180.000000   4411569   4411108   4410801   4410669   4410815  
  4170.000000   4411278   4412165   4413500   4415362   4417735  
  4160.000000   4420658   4424075   4427998   4432358   4437174  
  4150.000000   4442388   4448041   4454091   4460595   4467516  
  4140.000000   4474914   4482753   4491091   4499886   4509190  
  4130.000000   4518948   4529195   4539867   4550990   4562508  
  4120.000000   4574456   4586802   4599602   4612843   4626584  
  4110.000000   4640808   4655546   4670746   4686386   4702368  
  4100.000000   4718628   4735057   4751602   4768203   4784865  
  4090.000000   4801598   4818444   4835438   4852599   4869938  
  4080.000000   4887424   4905044   4922739   4940490   4958217  
  4070.000000   4975881   4993365   5010609   5027480   5043937  
  4060.000000   5059880   5075321   5090190   5104525   5118254  
  4050.000000   5131427   5143977   5155986   5167409   5178343  
  4040.000000   5188716   5198576   5207782   5216333   5224073  
  4030.000000   5231028   5237100   5242364   5246770   5250394  
  4020.000000   5253157   5255142   5256343   5256869   5256690  
  4010.000000   5255962   5254760   5253089   5250691   5247607  
  4000.000000   5244170  
##END= 
