##TITLE= Sample 016 By ssteindl date Montag, November 26 2018
##JCAMP-DX= 4.24
##DATA TYPE= INFRARED SPECTRUM
##ORIGIN= Exported PE Spectrum Data File
##OWNER= Sandra Steindl
##DATE= 18/11/26
##TIME= 13:13:57.00
##SPECTROMETER/DATA SYSTEM= PERKIN-ELMER Frontier FT-IR/NIR IR
##INSTRUMENT PARAMETERS=
  APODIZATION=stark
  DETECTOR=INGAAS
##RESOLUTION= 16.000000
##DELTAX= -2.000000
##XUNITS= 1/CM
##YUNITS= A
##XFACTOR= 1.00
##YFACTOR= 0.00000011920928955078
##FIRSTX= 10000.00
##LASTX= 4000.00
##NPOINTS= 3001
##FIRSTY= 0.208299
##MAXY= 0.622205
##MINY= 0.177317
##XYDATA= (X++(Y..Y))
 10000.000000   1747339   1754573   1762301   1770650   1778304  
  9990.000000   1783441   1785065   1783316   1778891   1772735  
  9980.000000   1765834   1758975   1752307   1745723   1739108  
  9970.000000   1732870   1727734   1724741   1724641   1727613  
  9960.000000   1732923   1739131   1744446   1747252   1746627  
  9950.000000   1742441   1735447   1726808   1717928   1709982  
  9940.000000   1703874   1700070   1698664   1699392   1701710  
  9930.000000   1704942   1708402   1711634   1714458   1717043  
  9920.000000   1719705   1722714   1726089   1729482   1732346  
  9910.000000   1734092   1734421   1733429   1731586   1729543  
  9900.000000   1727794   1726533   1725538   1724417   1722796  
  9890.000000   1720589   1717976   1715315   1712835   1710544  
  9880.000000   1708125   1705198   1701494   1697128   1692589  
  9870.000000   1688596   1685810   1684509   1684483   1685045  
  9860.000000   1685317   1684497   1682164   1678335   1673496  
  9850.000000   1668357   1663728   1660276   1658446   1658368  
  9840.000000   1659856   1662427   1665429   1668185   1670238  
  9830.000000   1671462   1672130   1672752   1673845   1675631  
  9820.000000   1677918   1680108   1681530   1681718   1680740  
  9810.000000   1679169   1677859   1677560   1678526   1680435  
  9800.000000   1682503   1683916   1684192   1683448   1682285  
  9790.000000   1681517   1681713   1682963   1684812   1686534  
  9780.000000   1687473   1687345   1686307   1684794   1683222  
  9770.000000   1681765   1680277   1678475   1676166   1673483  
  9760.000000   1670859   1668844   1667803   1667683   1668044  
  9750.000000   1668219   1667686   1666259   1664181   1661929  
  9740.000000   1659950   1658439   1657278   1656245   1655248  
  9730.000000   1654569   1654802   1656622   1660362   1665721  
  9720.000000   1671708   1676897   1679932   1679977   1677023  
  9710.000000   1671822   1665558   1659405   1654142   1650080  
  9700.000000   1647118   1645079   1643826   1643387   1643771  
  9690.000000   1644817   1646061   1646782   1646246   1643924  
  9680.000000   1639782   1634201   1627977   1621935   1616845  
  9670.000000   1613186   1611213   1611013   1612554   1615772  
  9660.000000   1620441   1626233   1632615   1639028   1644940  
  9650.000000   1650023   1654163   1657378   1659724   1661087  
  9640.000000   1661259   1659913   1656887   1652247   1646397  
  9630.000000   1639968   1633613   1627882   1623049   1619251  
  9620.000000   1616486   1614856   1614465   1615467   1617808  
  9610.000000   1621202   1625048   1628609   1631206   1632430  
  9600.000000   1632288   1631097   1629393   1627595   1625936  
  9590.000000   1624334   1622565   1620385   1617695   1614587  
  9580.000000   1611291   1608100   1605271   1603006   1601445  
  9570.000000   1600675   1600710   1601449   1602637   1603898  
  9560.000000   1604817   1605115   1604761   1604070   1603594  
  9550.000000   1603944   1605506   1608232   1611621   1614821  
  9540.000000   1616977   1617427   1615961   1612745   1608258  
  9530.000000   1603061   1597675   1592523   1587960   1584361  
  9520.000000   1582116   1581590   1582958   1586096   1590501  
  9510.000000   1595419   1599997   1603554   1605703   1606444  
  9500.000000   1606081   1605089   1603990   1603208   1603050  
  9490.000000   1603629   1604861   1606445   1607857   1608481  
  9480.000000   1607725   1605264   1601166   1595962   1590523  
  9470.000000   1585794   1582504   1580887   1580644   1581057  
  9460.000000   1581310   1580812   1579410   1577443   1575549  
  9450.000000   1574434   1574585   1576151   1578926   1582467  
  9440.000000   1586260   1589821   1592774   1594839   1595814  
  9430.000000   1595624   1594313   1592118   1589402   1586598  
  9420.000000   1584093   1582083   1580545   1579190   1577606  
  9410.000000   1575368   1572201   1568085   1563230   1558061  
  9400.000000   1553099   1548928   1546105   1545116   1546246  
  9390.000000   1549476   1554393   1560209   1565916   1570491  
  9380.000000   1573192   1573706   1572281   1569587   1566534  
  9370.000000   1563925   1562236   1561518   1561463   1561624  
  9360.000000   1561581   1561143   1560344   1559426   1558645  
  9350.000000   1558135   1557787   1557271   1556187   1554181  
  9340.000000   1551176   1547351   1543214   1539411   1536593  
  9330.000000   1535209   1535367   1536885   1539321   1542220  
  9320.000000   1545184   1548063   1550897   1553890   1557202  
  9310.000000   1560787   1564337   1567264   1568967   1568888  
  9300.000000   1566794   1562712   1557016   1550282   1543193  
  9290.000000   1536464   1530712   1526492   1524203   1524142  
  9280.000000   1526341   1530558   1536148   1542223   1547769  
  9270.000000   1551922   1554150   1554368   1552985   1550694  
  9260.000000   1548341   1546559   1545693   1545678   1546150  
  9250.000000   1546560   1546327   1545063   1542666   1539428  
  9240.000000   1535887   1532744   1530591   1529793   1530307  
  9230.000000   1531706   1533302   1534386   1534518   1533640  
  9220.000000   1532091   1530404   1529082   1528345   1528063  
  9210.000000   1527824   1527185   1525887   1524012   1521995  
  9200.000000   1520442   1519889   1520541   1522236   1524514  
  9190.000000   1526814   1528649   1529721   1529951   1529383  
  9180.000000   1528116   1526227   1523838   1521158   1518538  
  9170.000000   1516400   1515085   1514723   1515125   1515870  
  9160.000000   1516446   1516532   1516135   1515610   1515456  
  9150.000000   1516052   1517428   1519165   1520569   1520938  
  9140.000000   1519944   1517736   1514937   1512349   1510655  
  9130.000000   1510137   1510602   1511549   1512444   1512997  
  9120.000000   1513251   1513532   1514214   1515522   1517365  
  9110.000000   1519414   1521229   1522499   1523139   1523290  
  9100.000000   1523200   1523064   1522920   1522639   1522006  
  9090.000000   1520859   1519187   1517124   1514870   1512591  
  9080.000000   1510353   1508144   1505911   1503687   1501613  
  9070.000000   1499955   1498992   1498907   1499696   1501156  
  9060.000000   1502955   1504702   1506064   1506803   1506840  
  9050.000000   1506197   1505013   1503497   1501948   1500685  
  9040.000000   1499982   1499990   1500696   1501895   1503260  
  9030.000000   1504440   1505194   1505447   1505263   1504794  
  9020.000000   1504165   1503431   1502561   1501547   1500489  
  9010.000000   1499637   1499308   1499775   1501102   1503033  
  9000.000000   1505018   1506371   1506547   1505297   1502790  
  8990.000000   1499516   1496151   1493294   1491293   1490228  
  8980.000000   1489977   1490376   1491296   1492723   1494687  
  8970.000000   1497151   1499900   1502541   1504616   1505712  
  8960.000000   1505633   1504436   1502470   1500207   1498119  
  8950.000000   1496534   1495599   1495312   1495555   1496220  
  8940.000000   1497217   1498507   1500020   1501654   1503231  
  8930.000000   1504543   1505381   1505596   1505159   1504156  
  8920.000000   1502797   1501337   1500036   1499075   1498503  
  8910.000000   1498256   1498158   1498036   1497757   1497321  
  8900.000000   1496834   1496488   1496450   1496774   1497361  
  8890.000000   1497937   1498193   1497831   1496751   1495030  
  8880.000000   1492952   1490873   1489125   1487945   1487446  
  8870.000000   1487663   1488584   1490215   1492555   1495564  
  8860.000000   1499072   1502765   1506214   1508975   1510721  
  8850.000000   1511315   1510872   1509676   1508126   1506563  
  8840.000000   1505227   1504204   1503481   1502996   1502671  
  8830.000000   1502472   1502374   1502396   1502550   1502889  
  8820.000000   1503485   1504429   1505792   1507560   1509618  
  8810.000000   1511715   1513550   1514833   1515421   1515353  
  8800.000000   1514862   1514275   1513925   1514026   1514636  
  8790.000000   1515665   1516933   1518263   1519519   1520650  
  8780.000000   1521639   1522496   1523221   1523810   1524297  
  8770.000000   1524726   1525185   1525714   1526306   1526842  
  8760.000000   1527150   1527065   1526531   1525692   1524879  
  8750.000000   1524554   1525137   1526892   1529790   1533527  
  8740.000000   1537577   1541348   1544346   1546272   1547107  
  8730.000000   1547012   1546299   1545259   1544146   1543098  
  8720.000000   1542172   1541379   1540746   1540380   1540466  
  8710.000000   1541264   1542995   1545791   1549558   1553963  
  8700.000000   1558451   1562359   1565133   1566444   1566357  
  8690.000000   1565245   1563734   1562454   1561877   1562170  
  8680.000000   1563200   1564653   1566205   1567687   1569113  
  8670.000000   1570672   1572557   1574881   1577545   1580291  
  8660.000000   1582776   1584712   1585984   1586658   1586961  
  8650.000000   1587142   1587390   1587749   1588146   1588450  
  8640.000000   1588559   1588455   1588221   1587997   1587930  
  8630.000000   1588119   1588591   1589333   1590311   1591517  
  8620.000000   1592964   1594673   1596657   1598880   1601259  
  8610.000000   1603674   1605996   1608114   1609967   1611536  
  8600.000000   1612873   1614050   1615167   1616297   1617487  
  8590.000000   1618723   1619930   1621000   1621821   1622365  
  8580.000000   1622694   1623005   1623562   1624628   1626365  
  8570.000000   1628753   1631572   1634441   1636918   1638634  
  8560.000000   1639405   1639285   1638560   1637667   1637084  
  8550.000000   1637205   1638238   1640161   1642725   1645530  
  8540.000000   1648126   1650115   1651257   1651528   1651141  
  8530.000000   1650472   1649940   1649891   1650499   1651736  
  8520.000000   1653391   1655196   1656931   1658523   1660039  
  8510.000000   1661646   1663497   1665620   1667865   1669909  
  8500.000000   1671385   1671982   1671602   1670376   1668680  
  8490.000000   1667001   1665815   1665461   1666048   1667490  
  8480.000000   1669518   1671827   1674131   1676269   1678207  
  8470.000000   1680010   1681784   1683591   1685420   1687125  
  8460.000000   1688493   1689266   1689295   1688570   1687289  
  8450.000000   1685814   1684596   1684074   1684524   1686022  
  8440.000000   1688393   1691310   1694370   1697222   1699634  
  8430.000000   1701525   1702943   1703991   1704775   1705350  
  8420.000000   1705737   1705931   1705942   1705822   1705674  
  8410.000000   1705645   1705879   1706494   1707519   1708913  
  8400.000000   1710518   1712119   1713447   1714280   1714483  
  8390.000000   1714069   1713199   1712160   1711277   1710812  
  8380.000000   1710867   1711350   1712009   1712522   1712598  
  8370.000000   1712101   1711081   1709774   1708482   1707495  
  8360.000000   1706977   1706959   1707345   1707971   1708674  
  8350.000000   1709330   1709860   1710209   1710309   1710082  
  8340.000000   1709463   1708444   1707106   1705609   1704182  
  8330.000000   1703034   1702305   1701994   1701979   1702055  
  8320.000000   1702021   1701741   1701186   1700434   1699642  
  8310.000000   1698991   1698635   1698664   1699102   1699917  
  8300.000000   1701033   1702340   1703696   1704943   1705918  
  8290.000000   1706497   1706604   1706248   1705511   1704540  
  8280.000000   1703499   1702532   1701715   1701048   1700464  
  8270.000000   1699860   1699126   1698181   1696982   1695544  
  8260.000000   1693925   1692229   1690574   1689092   1687897  
  8250.000000   1687080   1686677   1686667   1686960   1687420  
  8240.000000   1687881   1688193   1688245   1687984   1687420  
  8230.000000   1686607   1685614   1684497   1683286   1681987  
  8220.000000   1680592   1679109   1677567   1676031   1674571  
  8210.000000   1673252   1672091   1671058   1670073   1669041  
  8200.000000   1667889   1666590   1665183   1663749   1662387  
  8190.000000   1661167   1660111   1659196   1658378   1657625  
  8180.000000   1656940   1656361   1655932   1655677   1655550  
  8170.000000   1655451   1655225   1654744   1653946   1652873  
  8160.000000   1651661   1650477   1649454   1648623   1647890  
  8150.000000   1647062   1645911   1644267   1642087   1639480  
  8140.000000   1636677   1633958   1631574   1629679   1628308  
  8130.000000   1627398   1626825   1626463   1626208   1626008  
  8120.000000   1625837   1625694   1625575   1625479   1625404  
  8110.000000   1625338   1625279   1625182   1624990   1624588  
  8100.000000   1623850   1622653   1620930   1618706   1616119  
  8090.000000   1613412   1610877   1608796   1607355   1606615  
  8080.000000   1606477   1606733   1607109   1607359   1607309  
  8070.000000   1606911   1606222   1605378   1604533   1603797  
  8060.000000   1603215   1602737   1602263   1601657   1600821  
  8050.000000   1599695   1598294   1596682   1594956   1593218  
  8040.000000   1591551   1590023   1588679   1587561   1586703  
  8030.000000   1586145   1585902   1585979   1586334   1586900  
  8020.000000   1587574   1588235   1588768   1589053   1589008  
  8010.000000   1588564   1587711   1586466   1584917   1583182  
  8000.000000   1581419   1579785   1578405   1577367   1576690  
  7990.000000   1576366   1576350   1576609   1577112   1577836  
  7980.000000   1578735   1579722   1580656   1581354   1581643  
  7970.000000   1581404   1580636   1579455   1578086   1576793  
  7960.000000   1575801   1575241   1575104   1575273   1575559  
  7950.000000   1575781   1575809   1575603   1575191   1574646  
  7940.000000   1574038   1573408   1572766   1572106   1571430  
  7930.000000   1570768   1570181   1569740   1569506   1569498  
  7920.000000   1569689   1570000   1570328   1570559   1570596  
  7910.000000   1570369   1569857   1569092   1568172   1567250  
  7900.000000   1566517   1566163   1566320   1567023   1568168  
  7890.000000   1569533   1570817   1571733   1572084   1571828  
  7880.000000   1571087   1570097   1569138   1568429   1568072  
  7870.000000   1568016   1568105   1568134   1567936   1567438  
  7860.000000   1566674   1565774   1564896   1564195   1563761  
  7850.000000   1563630   1563779   1564158   1564705   1565351  
  7840.000000   1566023   1566626   1567058   1567203   1566976  
  7830.000000   1566332   1565305   1563999   1562583   1561257  
  7820.000000   1560209   1559589   1559463   1559823   1560564  
  7810.000000   1561530   1562510   1563310   1563759   1563767  
  7800.000000   1563329   1562521   1561491   1560393   1559370  
  7790.000000   1558492   1557763   1557112   1556440   1555659  
  7780.000000   1554724   1553668   1552582   1551605   1550870  
  7770.000000   1550475   1550446   1550733   1551221   1551759  
  7760.000000   1552200   1552430   1552397   1552107   1551627  
  7750.000000   1551046   1550458   1549930   1549497   1549153  
  7740.000000   1548868   1548604   1548328   1548033   1547727  
  7730.000000   1547435   1547180   1546981   1546840   1546741  
  7720.000000   1546657   1546552   1546392   1546152   1545820  
  7710.000000   1545406   1544935   1544454   1544010   1543651  
  7700.000000   1543398   1543248   1543165   1543089   1542959  
  7690.000000   1542726   1542370   1541902   1541352   1540759  
  7680.000000   1540147   1539528   1538903   1538283   1537697  
  7670.000000   1537203   1536867   1536740   1536832   1537087  
  7660.000000   1537396   1537619   1537633   1537372   1536858  
  7650.000000   1536188   1535509   1534962   1534645   1534580  
  7640.000000   1534716   1534957   1535196   1535353   1535395  
  7630.000000   1535341   1535240   1535152   1535120   1535158  
  7620.000000   1535253   1535368   1535464   1535502   1535462  
  7610.000000   1535338   1535147   1534920   1534697   1534519  
  7600.000000   1534420   1534417   1534516   1534705   1534966  
  7590.000000   1535276   1535617   1535976   1536348   1536727  
  7580.000000   1537117   1537519   1537946   1538409   1538928  
  7570.000000   1539508   1540138   1540777   1541366   1541838  
  7560.000000   1542153   1542312   1542375   1542448   1542659  
  7550.000000   1543107   1543833   1544792   1545874   1546930  
  7540.000000   1547836   1548517   1548982   1549295   1549561  
  7530.000000   1549864   1550260   1550750   1551310   1551911  
  7520.000000   1552552   1553272   1554136   1555209   1556527  
  7510.000000   1558066   1559758   1561494   1563172   1564697  
  7500.000000   1566029   1567150   1568091   1568886   1569593  
  7490.000000   1570266   1570979   1571805   1572817   1574063  
  7480.000000   1575555   1577252   1579082   1580943   1582751  
  7470.000000   1584444   1586014   1587480   1588893   1590294  
  7460.000000   1591725   1593206   1594765   1596428   1598236  
  7450.000000   1600217   1602384   1604706   1607109   1609489  
  7440.000000   1611745   1613810   1615683   1617417   1619110  
  7430.000000   1620852   1622709   1624684   1626738   1628796  
  7420.000000   1630799   1632722   1634584   1636439   1638348  
  7410.000000   1640361   1642493   1644736   1647063   1649449  
  7400.000000   1651883   1654361   1656879   1659413   1661917  
  7390.000000   1664320   1666550   1668551   1670309   1671855  
  7380.000000   1673272   1674668   1676158   1677829   1679729  
  7370.000000   1681855   1684158   1686558   1688961   1691281  
  7360.000000   1693459   1695480   1697373   1699209   1701074  
  7350.000000   1703052   1705203   1707540   1710028   1712600  
  7340.000000   1715172   1717669   1720036   1722239   1724264  
  7330.000000   1726107   1727765   1729246   1730567   1731771  
  7320.000000   1732916   1734082   1735343   1736765   1738376  
  7310.000000   1740168   1742086   1744051   1745968   1747755  
  7300.000000   1749355   1750754   1751970   1753064   1754113  
  7290.000000   1755201   1756392   1757718   1759162   1760669  
  7280.000000   1762151   1763521   1764704   1765670   1766441  
  7270.000000   1767084   1767694   1768358   1769137   1770041  
  7260.000000   1771037   1772050   1773011   1773859   1774588  
  7250.000000   1775229   1775860   1776571   1777450   1778551  
  7240.000000   1779901   1781482   1783266   1785205   1787277  
  7230.000000   1789447   1791706   1794017   1796353   1798663  
  7220.000000   1800920   1803101   1805240   1807388   1809643  
  7210.000000   1812086   1814789   1817761   1820966   1824315  
  7200.000000   1827714   1831070   1834340   1837511   1840620  
  7190.000000   1843704   1846810   1849952   1853141   1856353  
  7180.000000   1859577   1862791   1865999   1869200   1872416  
  7170.000000   1875666   1878990   1882421   1886017   1889810  
  7160.000000   1893830   1898055   1902447   1906922   1911410  
  7150.000000   1915836   1920183   1924460   1928738   1933083  
  7140.000000   1937580   1942251   1947109   1952103   1957195  
  7130.000000   1962329   1967501   1972710   1978004   1983423  
  7120.000000   1989029   1994854   2000933   2007254   2013795  
  7110.000000   2020484   2027239   2033945   2040510   2046854  
  7100.000000   2052970   2058892   2064725   2070578   2076567  
  7090.000000   2082752   2089152   2095724   2102411   2109146  
  7080.000000   2115889   2122617   2129334   2136048   2142769  
  7070.000000   2149502   2156255   2163031   2169845   2176699  
  7060.000000   2183591   2190486   2197344   2204109   2210749  
  7050.000000   2217261   2223687   2230101   2236582   2243198  
  7040.000000   2249975   2256905   2263948   2271053   2278167  
  7030.000000   2285239   2292215   2299036   2305628   2311929  
  7020.000000   2317904   2323573   2329006   2334328   2339667  
  7010.000000   2345137   2350782   2356593   2362495   2368404  
  7000.000000   2374230   2379931   2385483   2390902   2396191  
  6990.000000   2401363   2406404   2411312   2416078   2420720  
  6980.000000   2425251   2429697   2434059   2438339   2442510  
  6970.000000   2446564   2450483   2454281   2457958   2461533  
  6960.000000   2464992   2468334   2471533   2474589   2477500  
  6950.000000   2480293   2482982   2485590   2488106   2490524  
  6940.000000   2492826   2495026   2497143   2499235   2501337  
  6930.000000   2503483   2505654   2507819   2509919   2511924  
  6920.000000   2513821   2515645   2517432   2519220   2521007  
  6910.000000   2522757   2524408   2525903   2527215   2528362  
  6900.000000   2529398   2530392   2531398   2532444   2533524  
  6890.000000   2534618   2535708   2536806   2537941   2539161  
  6880.000000   2540499   2541967   2543537   2545156   2546752  
  6870.000000   2548261   2549639   2550864   2551943   2552897  
  6860.000000   2553757   2554557   2555320   2556063   2556784  
  6850.000000   2557472   2558108   2558688   2559218   2559739  
  6840.000000   2560297   2560946   2561712   2562584   2563507  
  6830.000000   2564404   2565197   2565834   2566309   2566653  
  6820.000000   2566917   2567149   2567378   2567610   2567839  
  6810.000000   2568071   2568322   2568630   2569025   2569518  
  6800.000000   2570079   2570652   2571167   2571576   2571862  
  6790.000000   2572054   2572199   2572342   2572497   2572644  
  6780.000000   2572740   2572746   2572648   2572476   2572285  
  6770.000000   2572134   2572056   2572045   2572054   2572024  
  6760.000000   2571904   2571678   2571370   2571035   2570731  
  6750.000000   2570510   2570392   2570377   2570438   2570542  
  6740.000000   2570645   2570703   2570675   2570530   2570255  
  6730.000000   2569868   2569419   2568980   2568619   2568385  
  6720.000000   2568279   2568264   2568267   2568218   2568065  
  6710.000000   2567803   2567454   2567068   2566687   2566338  
  6700.000000   2566016   2565699   2565350   2564940   2564447  
  6690.000000   2563865   2563193   2562444   2561634   2560795  
  6680.000000   2559956   2559156   2558409   2557719   2557058  
  6670.000000   2556388   2555669   2554882   2554033   2553151  
  6660.000000   2552270   2551409   2550553   2549657   2548660  
  6650.000000   2547515   2546208   2544775   2543286   2541833  
  6640.000000   2540491   2539310   2538291   2537409   2536607  
  6630.000000   2535828   2535009   2534099   2533055   2531847  
  6620.000000   2530463   2528913   2527229   2525465   2523678  
  6610.000000   2521921   2520228   2518617   2517081   2515613  
  6600.000000   2514190   2512796   2511405   2509995   2508539  
  6590.000000   2507024   2505451   2503842   2502231   2500644  
  6580.000000   2499092   2497552   2495978   2494325   2492571  
  6570.000000   2490744   2488914   2487182   2485634   2484310  
  6560.000000   2483188   2482186   2481199   2480131   2478933  
  6550.000000   2477605   2476188   2474732   2473274   2471830  
  6540.000000   2470401   2468992   2467631   2466358   2465216  
  6530.000000   2464218   2463330   2462474   2461549   2460475  
  6520.000000   2459224   2457832   2456389   2455004   2453761  
  6510.000000   2452691   2451773   2450945   2450135   2449295  
  6500.000000   2448400   2447455   2446471   2445455   2444404  
  6490.000000   2443306   2442157   2440963   2439748   2438537  
  6480.000000   2437351   2436194   2435056   2433923   2432784  
  6470.000000   2431643   2430514   2429412   2428343   2427302  
  6460.000000   2426278   2425260   2424255   2423283   2422375  
  6450.000000   2421552   2420815   2420135   2419465   2418755  
  6440.000000   2417975   2417118   2416209   2415278   2414357  
  6430.000000   2413454   2412564   2411672   2410774   2409881  
  6420.000000   2409028   2408249   2407575   2407013   2406547  
  6410.000000   2406144   2405776   2405428   2405104   2404819  
  6400.000000   2404593   2404429   2404319   2404231   2404135  
  6390.000000   2403996   2403796   2403523   2403184   2402787  
  6380.000000   2402351   2401900   2401460   2401058   2400711  
  6370.000000   2400428   2400198   2400000   2399806   2399598  
  6360.000000   2399364   2399107   2398831   2398533   2398198  
  6350.000000   2397802   2397320   2396741   2396073   2395347  
  6340.000000   2394597   2393860   2393145   2392454   2391769  
  6330.000000   2391087   2390410   2389765   2389175   2388659  
  6320.000000   2388199   2387754   2387251   2386625   2385826  
  6310.000000   2384847   2383715   2382487   2381219   2379964  
  6300.000000   2378746   2377580   2376456   2375370   2374300  
  6290.000000   2373225   2372105   2370900   2369563   2368067  
  6280.000000   2366403   2364602   2362712   2360801   2358926  
  6270.000000   2357133   2355434   2353829   2352289   2350782  
  6260.000000   2349264   2347696   2346035   2344256   2342347  
  6250.000000   2340321   2338215   2336081   2333968   2331906  
  6240.000000   2329902   2327933   2325967   2323977   2321953  
  6230.000000   2319914   2317891   2315921   2314024   2312204  
  6220.000000   2310443   2308719   2307009   2305296   2303575  
  6210.000000   2301837   2300072   2298263   2296397   2294469  
  6200.000000   2292496   2290508   2288544   2286635   2284796  
  6190.000000   2283014   2281268   2279533   2277801   2276076  
  6180.000000   2274381   2272736   2271156   2269636   2268161  
  6170.000000   2266718   2265301   2263919   2262593   2261334  
  6160.000000   2260142   2258988   2257832   2256625   2255335  
  6150.000000   2253954   2252499   2251002   2249504   2248029  
  6140.000000   2246594   2245199   2243843   2242525   2241248  
  6130.000000   2240012   2238814   2237640   2236474   2235298  
  6120.000000   2234108   2232909   2231723   2230572   2229480  
  6110.000000   2228456   2227504   2226611   2225771   2224965  
  6100.000000   2224183   2223402   2222606   2221766   2220874  
  6090.000000   2219927   2218957   2218008   2217142   2216410  
  6080.000000   2215848   2215454   2215208   2215060   2214971  
  6070.000000   2214895   2214817   2214723   2214626   2214531  
  6060.000000   2214464   2214439   2214498   2214663   2214975  
  6050.000000   2215440   2216070   2216832   2217703   2218638  
  6040.000000   2219622   2220641   2221723   2222887   2224178  
  6030.000000   2225613   2227211   2228963   2230863   2232885  
  6020.000000   2235013   2237215   2239476   2241763   2244063  
  6010.000000   2246356   2248645   2250927   2253220   2255524  
  6000.000000   2257850   2260186   2262533   2264885   2267260  
  5990.000000   2269677   2272177   2274793   2277559   2280483  
  5980.000000   2283571   2286804   2290168   2293634   2297184  
  5970.000000   2300786   2304417   2308039   2311635   2315186  
  5960.000000   2318703   2322203   2325723   2329286   2332915  
  5950.000000   2336604   2340341   2344106   2347891   2351699  
  5940.000000   2355553   2359480   2363503   2367629   2371847  
  5930.000000   2376131   2380445   2384762   2389056   2393314  
  5920.000000   2397520   2401654   2405690   2409599   2413351  
  5910.000000   2416930   2420327   2423555   2426629   2429578  
  5900.000000   2432428   2435217   2437971   2440731   2443516  
  5890.000000   2446350   2449227   2452139   2455058   2457964  
  5880.000000   2460831   2463646   2466396   2469068   2471645  
  5870.000000   2474102   2476419   2478589   2480630   2482578  
  5860.000000   2484492   2486428   2488431   2490524   2492712  
  5850.000000   2494986   2497339   2499771   2502290   2504901  
  5840.000000   2507601   2510369   2513172   2515975   2518752  
  5830.000000   2521496   2524221   2526950   2529700   2532476  
  5820.000000   2535261   2538027   2540743   2543389   2545959  
  5810.000000   2548461   2550899   2553282   2555591   2557825  
  5800.000000   2559959   2562012   2563982   2565915   2567813  
  5790.000000   2569700   2571529   2573264   2574801   2576057  
  5780.000000   2576910   2577283   2577088   2576304   2574925  
  5770.000000   2573024   2570695   2568091   2565354   2562637  
  5760.000000   2560032   2557611   2555379   2553334   2551443  
  5750.000000   2549698   2548081   2546593   2545223   2543958  
  5740.000000   2542776   2541650   2540570   2539528   2538537  
  5730.000000   2537603   2536739   2535933   2535175   2534438  
  5720.000000   2533715   2533002   2532317   2531674   2531093  
  5710.000000   2530571   2530100   2529657   2529225   2528795  
  5700.000000   2528371   2527969   2527603   2527284   2527012  
  5690.000000   2526785   2526590   2526429   2526291   2526179  
  5680.000000   2526073   2525956   2525789   2525535   2525144  
  5670.000000   2524576   2523787   2522745   2521420   2519803  
  5660.000000   2517901   2515763   2513461   2511102   2508787  
  5650.000000   2506607   2504602   2502773   2501074   2499447  
  5640.000000   2497832   2496198   2494544   2492892   2491279  
  5630.000000   2489731   2488267   2486883   2485574   2484322  
  5620.000000   2483121   2481957   2480827   2479718   2478628  
  5610.000000   2477550   2476490   2475458   2474470   2473537  
  5600.000000   2472665   2471841   2471051   2470274   2469496  
  5590.000000   2468712   2467922   2467132   2466338   2465531  
  5580.000000   2464695   2463817   2462889   2461918   2460914  
  5570.000000   2459894   2458861   2457815   2456742   2455630  
  5560.000000   2454472   2453276   2452054   2450829   2449615  
  5550.000000   2448420   2447245   2446086   2444942   2443816  
  5540.000000   2442716   2441648   2440614   2439609   2438624  
  5530.000000   2437650   2436681   2435716   2434754   2433793  
  5520.000000   2432820   2431824   2430787   2429707   2428588  
  5510.000000   2427446   2426296   2425148   2423996   2422827  
  5500.000000   2421621   2420371   2419080   2417771   2416467  
  5490.000000   2415185   2413916   2412642   2411323   2409935  
  5480.000000   2408463   2406919   2405319   2403690   2402038  
  5470.000000   2400361   2398639   2396862   2395021   2393127  
  5460.000000   2391189   2389218   2387205   2385137   2382990  
  5450.000000   2380762   2378468   2376152   2373866   2371657  
  5440.000000   2369548   2367535   2365598   2363714   2361878  
  5430.000000   2360094   2358381   2356735   2355144   2353565  
  5420.000000   2351970   2350333   2348684   2347074   2345591  
  5410.000000   2344290   2343202   2342290   2341503   2340765  
  5400.000000   2340048   2339344   2338702   2338163   2337782  
  5390.000000   2337556   2337481   2337515   2337652   2337887  
  5380.000000   2338272   2338835   2339626   2340628   2341830  
  5370.000000   2343169   2344622   2346147   2347773   2349494  
  5360.000000   2351367   2353383   2355589   2357966   2360579  
  5350.000000   2363436   2366638   2370206   2374227   2378677  
  5340.000000   2383589   2388897   2394630   2400731   2407258  
  5330.000000   2414164   2421503   2429211   2437332   2445806  
  5320.000000   2454724   2464079   2474022   2484570   2495865  
  5310.000000   2507874   2520671   2534160   2548383   2563254  
  5300.000000   2578851   2595140   2612252   2630182   2649063  
  5290.000000   2668860   2689633   2711259   2733690   2756738  
  5280.000000   2780338   2804366   2828877   2853893   2879571  
  5270.000000   2905966   2933128   2960937   2989209   3017678  
  5260.000000   3046120   3074399   3102500   3130511   3158518  
  5250.000000   3186583   3214611   3242453   3269819   3296517  
  5240.000000   3322335   3347288   3371373   3394774   3417544  
  5230.000000   3439823   3461543   3482705   3503127   3522776  
  5220.000000   3541510   3559402   3576430   3592769   3608446  
  5210.000000   3623618   3638231   3652323   3665724   3678404  
  5200.000000   3690199   3701158   3711228   3720562   3729166  
  5190.000000   3737183   3744570   3751392   3757554   3763105  
  5180.000000   3767975   3772257   3775924   3779074   3781662  
  5170.000000   3783745   3785249   3786221   3786615   3786511  
  5160.000000   3785899   3784869   3783402   3781563   3779315  
  5150.000000   3776714   3773741   3770469   3766891   3763070  
  5140.000000   3758982   3754659   3750070   3745251   3740197  
  5130.000000   3734967   3729570   3724054   3718406   3712639  
  5120.000000   3706729   3700692   3694530   3688291   3682003  
  5110.000000   3675710   3669422   3663152   3656884   3650621  
  5100.000000   3644361   3638125   3631934   3625814   3619772  
  5090.000000   3613811   3607914   3602068   3596253   3590464  
  5080.000000   3584694   3578946   3573213   3567493   3561772  
  5070.000000   3556044   3550296   3544522   3538708   3532845  
  5060.000000   3526914   3520909   3514819   3508658   3502435  
  5050.000000   3496181   3489908   3483631   3477336   3471007  
  5040.000000   3464614   3458140   3451575   3444926   3438214  
  5030.000000   3431463   3424702   3417952   3411237   3404577  
  5020.000000   3398001   3391530   3385196   3379009   3372981  
  5010.000000   3367094   3361339   3355685   3350127   3344649  
  5000.000000   3339275   3334008   3328894   3323939   3319188  
  4990.000000   3314637   3310321   3306227   3302384   3298773  
  4980.000000   3295424   3292314   3289483   3286915   3284664  
  4970.000000   3282722   3281148   3279926   3279095   3278614  
  4960.000000   3278505   3278714   3279273   3280146   3281388  
  4950.000000   3282980   3284983   3287366   3290167   3293336  
  4940.000000   3296897   3300799   3305074   3309683   3314664  
  4930.000000   3319978   3325656   3331655   3338007   3344680  
  4920.000000   3351717   3359098   3366864   3374985   3383478  
  4910.000000   3392293   3401429   3410838   3420521   3430445  
  4900.000000   3440611   3450988   3461560   3472286   3483125  
  4890.000000   3494035   3504963   3515866   3526681   3537365  
  4880.000000   3547840   3558069   3567979   3577553   3586734  
  4870.000000   3595522   3603862   3611749   3619115   3625955  
  4860.000000   3632208   3637899   3643009   3647611   3651727  
  4850.000000   3655459   3658841   3661967   3664857   3667576  
  4840.000000   3670120   3672529   3674786   3676919   3678912  
  4830.000000   3680795   3682568   3684266   3685903   3687514  
  4820.000000   3689112   3690725   3692359   3694028   3695734  
  4810.000000   3697485   3699276   3701105   3702962   3704841  
  4800.000000   3706731   3708628   3710533   3712445   3714367  
  4790.000000   3716298   3718229   3720150   3722050   3723924  
  4780.000000   3725770   3727598   3729417   3731234   3733043  
  4770.000000   3734834   3736581   3738265   3739862   3741371  
  4760.000000   3742791   3744142   3745434   3746683   3747884  
  4750.000000   3749036   3750115   3751108   3751992   3752762  
  4740.000000   3753406   3753930   3754337   3754644   3754861  
  4730.000000   3755010   3755098   3755141   3755141   3755100  
  4720.000000   3755012   3754876   3754694   3754474   3754235  
  4710.000000   3753996   3753788   3753633   3753560   3753586  
  4700.000000   3753731   3754009   3754436   3755022   3755777  
  4690.000000   3756702   3757796   3759044   3760432   3761926  
  4680.000000   3763501   3765110   3766725   3768297   3769802  
  4670.000000   3771206   3772511   3773714   3774851   3775955  
  4660.000000   3777087   3778295   3779639   3781157   3782882  
  4650.000000   3784822   3786975   3789322   3791839   3794495  
  4640.000000   3797259   3800101   3802995   3805916   3808840  
  4630.000000   3811747   3814611   3817412   3820125   3822730  
  4620.000000   3825197   3827503   3829610   3831494   3833120  
  4610.000000   3834483   3835574   3836428   3837071   3837567  
  4600.000000   3837951   3838277   3838554   3838802   3838999  
  4590.000000   3839145   3839207   3839181   3839037   3838771  
  4580.000000   3838353   3837776   3837014   3836071   3834947  
  4570.000000   3833674   3832275   3830797   3829268   3827719  
  4560.000000   3826154   3824580   3822983   3821360   3819696  
  4550.000000   3817991   3816241   3814451   3812624   3810768  
  4540.000000   3808900   3807033   3805194   3803399   3801678  
  4530.000000   3800036   3798493   3797041   3795698   3794452  
  4520.000000   3793330   3792321   3791464   3790743   3790201  
  4510.000000   3789817   3789649   3789690   3790031   3790691  
  4500.000000   3791794   3793364   3795523   3798274   3801711  
  4490.000000   3805807   3810639   3816165   3822457   3829467  
  4480.000000   3837259   3845773   3855054   3865027   3875723  
  4470.000000   3887058   3899053   3911618   3924758   3938375  
  4460.000000   3952455   3966892   3981657   3996652   4011844  
  4450.000000   4027155   4042568   4058040   4073573   4089157  
  4440.000000   4104793   4120473   4136164   4151838   4167419  
  4430.000000   4182871   4198107   4213115   4227823   4242240  
  4420.000000   4256291   4269979   4283198   4295921   4308019  
  4410.000000   4319460   4330127   4340015   4349054   4357290  
  4400.000000   4364709   4371404   4377402   4382826   4387723  
  4390.000000   4392219   4396370   4400297   4404053   4407746  
  4380.000000   4411419   4415151   4418966   4422917   4427015  
  4370.000000   4431299   4435784   4440501   4445461   4450670  
  4360.000000   4456110   4461751   4467534   4473413   4479302  
  4350.000000   4485172   4490943   4496627   4502177   4507654  
  4340.000000   4513044   4518412   4523692   4528812   4533508  
  4330.000000   4537454   4540178   4541243   4540263   4537093  
  4320.000000   4531828   4524882   4516855   4508487   4500440  
  4310.000000   4493258   4487220   4482417   4478725   4475957  
  4300.000000   4473881   4472326   4471170   4470342   4469818  
  4290.000000   4469560   4469562   4469781   4470222   4470856  
  4280.000000   4471699   4472739   4473969   4475373   4476915  
  4270.000000   4478579   4480312   4482073   4483747   4485185  
  4260.000000   4486141   4486348   4485512   4483428   4479991  
  4250.000000   4475279   4469506   4463035   4456249   4449549  
  4240.000000   4443212   4437444   4432285   4427710   4423595  
  4230.000000   4419819   4416235   4412734   4409228   4405660  
  4220.000000   4402018   4398298   4394558   4390844   4387258  
  4210.000000   4383866   4380766   4377998   4375612   4373590  
  4200.000000   4371923   4370545   4369413   4368444   4367601  
  4190.000000   4366816   4366088   4365384   4364744   4364160  
  4180.000000   4363694   4363343   4363168   4363163   4363400  
  4170.000000   4363892   4364734   4365964   4367689   4369929  
  4160.000000   4372758   4376140   4380092   4384530   4389454  
  4150.000000   4394787   4400561   4406736   4413384   4420490  
  4140.000000   4428134   4436292   4445024   4454273   4464065  
  4130.000000   4474315   4485025   4496106   4507570   4519360  
  4120.000000   4531526   4544054   4557024   4570446   4584390  
  4110.000000   4598846   4613845   4629335   4645298   4661649  
  4100.000000   4678339   4695274   4712405   4729668   4747040  
  4090.000000   4764498   4782040   4799663   4817360   4835128  
  4080.000000   4852944   4870810   4888686   4906572   4924397  
  4070.000000   4942129   4959647   4976894   4993734   5010138  
  4060.000000   5026012   5041381   5056177   5070439   5084082  
  4050.000000   5097139   5109522   5121294   5132402   5142945  
  4040.000000   5152866   5162234   5170942   5179016   5186327  
  4030.000000   5192920   5198711   5203785   5208095   5211723  
  4020.000000   5214594   5216786   5218287   5219185   5219434  
  4010.000000   5219159   5218416   5217195   5215254   5212640  
  4000.000000   5209684  
##END= 
