##TITLE= Sample 008 By ssteindl date Montag, November 26 2018
##JCAMP-DX= 4.24
##DATA TYPE= INFRARED SPECTRUM
##ORIGIN= Exported PE Spectrum Data File
##OWNER= Sandra Steindl
##DATE= 18/11/26
##TIME= 12:58:37.00
##SPECTROMETER/DATA SYSTEM= PERKIN-ELMER Frontier FT-IR/NIR IR
##INSTRUMENT PARAMETERS=
  APODIZATION=stark
  DETECTOR=INGAAS
##RESOLUTION= 16.000000
##DELTAX= -2.000000
##XUNITS= 1/CM
##YUNITS= A
##XFACTOR= 1.00
##YFACTOR= 0.00000011920928955078
##FIRSTX= 10000.00
##LASTX= 4000.00
##NPOINTS= 3001
##FIRSTY= 0.220081
##MAXY= 0.621344
##MINY= 0.190896
##XYDATA= (X++(Y..Y))
 10000.000000   1846169   1844741   1844904   1848113   1853174  
  9990.000000   1857376   1858920   1857704   1854463   1850558  
  9980.000000   1847725   1847532   1850383   1855608   1861822  
  9970.000000   1867523   1871429   1872766   1871328   1867173  
  9960.000000   1860556   1851733   1841093   1829177   1816767  
  9950.000000   1804756   1794075   1785478   1779524   1776546  
  9940.000000   1776650   1779749   1785417   1792894   1801078  
  9930.000000   1808732   1814865   1819008   1821474   1823177  
  9920.000000   1825295   1828715   1833636   1839431   1844930  
  9910.000000   1848921   1850685   1850266   1848325   1845741  
  9900.000000   1843015   1840031   1836070   1830307   1822354  
  9890.000000   1812673   1802578   1793788   1787744   1785037  
  9880.000000   1785160   1786844   1788603   1789433   1789147  
  9870.000000   1788337   1787995   1788954   1791550   1795478  
  9860.000000   1800040   1804437   1808100   1810766   1812445  
  9850.000000   1813219   1813183   1812383   1810983   1809274  
  9840.000000   1807699   1806593   1805969   1805352   1803898  
  9830.000000   1800801   1795714   1789172   1782494   1777497  
  9820.000000   1775736   1777997   1783865   1791917   1800148  
  9810.000000   1806681   1810327   1810823   1808749   1805074  
  9800.000000   1800782   1796492   1792487   1788773   1785334  
  9790.000000   1782206   1779494   1777286   1775534   1774126  
  9780.000000   1772892   1771839   1771108   1770999   1771731  
  9770.000000   1773282   1775294   1777142   1778190   1778042  
  9760.000000   1776742   1774741   1772717   1771260   1770643  
  9750.000000   1770697   1770922   1770689   1769524   1767253  
  9740.000000   1764084   1760444   1756850   1753711   1751267  
  9730.000000   1749581   1748589   1748166   1748176   1748509  
  9720.000000   1749118   1750033   1751364   1753252   1755777  
  9710.000000   1758860   1762206   1765321   1767657   1768803  
  9700.000000   1768647   1767479   1765841   1764381   1763532  
  9690.000000   1763405   1763755   1764116   1764054   1763257  
  9680.000000   1761659   1759273   1756131   1752160   1747231  
  9670.000000   1741354   1734826   1728429   1723277   1720631  
  9660.000000   1721419   1725942   1733642   1743222   1752963  
  9650.000000   1761150   1766503   1768372   1766826   1762462  
  9640.000000   1756255   1749295   1742681   1737344   1733980  
  9630.000000   1732896   1733943   1736511   1739605   1742139  
  9620.000000   1743135   1742095   1739034   1734548   1729570  
  9610.000000   1725130   1722095   1720950   1721766   1724188  
  9600.000000   1727584   1731159   1734124   1735827   1735897  
  9590.000000   1734312   1731425   1727859   1724356   1721534  
  9580.000000   1719754   1719010   1719048   1719480   1719997  
  9570.000000   1720481   1720982   1721675   1722633   1723812  
  9560.000000   1724964   1725832   1726255   1726319   1726353  
  9550.000000   1726759   1727823   1729476   1731276   1732475  
  9540.000000   1732321   1730300   1726381   1721023   1715058  
  9530.000000   1709468   1705080   1702462   1701731   1702706  
  9520.000000   1704916   1707839   1710994   1714022   1716713  
  9510.000000   1718900   1720447   1721123   1720668   1718787  
  9500.000000   1715337   1710395   1704440   1698321   1693155  
  9490.000000   1690050   1689696   1692152   1696691   1702077  
  9480.000000   1706880   1709967   1710786   1709494   1706814  
  9470.000000   1703705   1701006   1699129   1698044   1697386  
  9460.000000   1696761   1695916   1694837   1693640   1692432  
  9450.000000   1691201   1689817   1688123   1686105   1683940  
  9440.000000   1682014   1680721   1680283   1680632   1681397  
  9430.000000   1682180   1682702   1683077   1683716   1685231  
  9420.000000   1688105   1692409   1697671   1702868   1706775  
  9410.000000   1708236   1706606   1701829   1694509   1685673  
  9400.000000   1676565   1668406   1662184   1658592   1657885  
  9390.000000   1659939   1664183   1669773   1675668   1680903  
  9380.000000   1684740   1686847   1687315   1686546   1685118  
  9370.000000   1683515   1682089   1680932   1680044   1679330  
  9360.000000   1678733   1678219   1677752   1677270   1676620  
  9350.000000   1675658   1674258   1672457   1670438   1668533  
  9340.000000   1667111   1666479   1666787   1667983   1669805  
  9330.000000   1671863   1673707   1674949   1675321   1674720  
  9320.000000   1673241   1671141   1668803   1666602   1664787  
  9310.000000   1663375   1662157   1660772   1658894   1656375  
  9300.000000   1653375   1650329   1647792   1646220   1645742  
  9290.000000   1646124   1646849   1647348   1647284   1646695  
  9280.000000   1646044   1645957   1646952   1649115   1652042  
  9270.000000   1654951   1656990   1657549   1656510   1654321  
  9260.000000   1651852   1650070   1649672   1650883   1653413  
  9250.000000   1656581   1659538   1661503   1661999   1660907  
  9240.000000   1658471   1655158   1651538   1648174   1645509  
  9230.000000   1643842   1643262   1643706   1644963   1646786  
  9220.000000   1648907   1651114   1653228   1655120   1656666  
  9210.000000   1657728   1658148   1657750   1656433   1654200  
  9200.000000   1651254   1647936   1644712   1642039   1640284  
  9190.000000   1639613   1639926   1640880   1641957   1642672  
  9180.000000   1642703   1642028   1640909   1639874   1639502  
  9170.000000   1640265   1642271   1645252   1648619   1651655  
  9160.000000   1653759   1654586   1654160   1652763   1650761  
  9150.000000   1648399   1645669   1642401   1638407   1633727  
  9140.000000   1628727   1624107   1620693   1619181   1619805  
  9130.000000   1622204   1625446   1628328   1629758   1629050  
  9120.000000   1626156   1621621   1616483   1611847   1608620  
  9110.000000   1607245   1607725   1609643   1612352   1615173  
  9100.000000   1617592   1619379   1620559   1621406   1622281  
  9090.000000   1623514   1625257   1627412   1629702   1631695  
  9080.000000   1633004   1633348   1632678   1631147   1629026  
  9070.000000   1626652   1624315   1622271   1620689   1619740  
  9060.000000   1619541   1620169   1621528   1623369   1625263  
  9050.000000   1626735   1627379   1626996   1625688   1623769  
  9040.000000   1621657   1619646   1617833   1616074   1614148  
  9030.000000   1611894   1609385   1606960   1605121   1604346  
  9020.000000   1604846   1606496   1608859   1611384   1613596  
  9010.000000   1615275   1616483   1617468   1618475   1619601  
  9000.000000   1620741   1621654   1622136   1622104   1621684  
  8990.000000   1621080   1620481   1619875   1619029   1617588  
  8980.000000   1615268   1612067   1608350   1604813   1602263  
  8970.000000   1601353   1602316   1604912   1608492   1612241  
  8960.000000   1615422   1617598   1618721   1619037   1618940  
  8950.000000   1618771   1618739   1618856   1619017   1619068  
  8940.000000   1618916   1618554   1618067   1617579   1617192  
  8930.000000   1616967   1616878   1616859   1616808   1616625  
  8920.000000   1616241   1615627   1614831   1613954   1613156  
  8910.000000   1612599   1612421   1612679   1613341   1614281  
  8900.000000   1615323   1616294   1617089   1617702   1618229  
  8890.000000   1618825   1619630   1620702   1621977   1623278  
  8880.000000   1624381   1625088   1625318   1625132   1624719  
  8870.000000   1624324   1624144   1624265   1624607   1624995  
  8860.000000   1625216   1625153   1624827   1624406   1624125  
  8850.000000   1624185   1624652   1625404   1626178   1626640  
  8840.000000   1626550   1625811   1624535   1622961   1621398  
  8830.000000   1620121   1619325   1619112   1619526   1620591  
  8820.000000   1622322   1624703   1627619   1630837   1634010  
  8810.000000   1636768   1638814   1640029   1640508   1640515  
  8800.000000   1640386   1640383   1640642   1641100   1641587  
  8790.000000   1641862   1641753   1641174   1640155   1638795  
  8780.000000   1637233   1635643   1634219   1633210   1632871  
  8770.000000   1633457   1635124   1637875   1641513   1645663  
  8760.000000   1649866   1653666   1656731   1658871   1660072  
  8750.000000   1660420   1660086   1659271   1658220   1657209  
  8740.000000   1656538   1656480   1657201   1658694   1660723  
  8730.000000   1662893   1664721   1665820   1665983   1665271  
  8720.000000   1663960   1662458   1661185   1660453   1660424  
  8710.000000   1661088   1662326   1663940   1665712   1667408  
  8700.000000   1668820   1669776   1670206   1670157   1669826  
  8690.000000   1669499   1669487   1670034   1671242   1673058  
  8680.000000   1675295   1677726   1680160   1682496   1684722  
  8670.000000   1686845   1688856   1690657   1692105   1693023  
  8660.000000   1693297   1692917   1692019   1690868   1689802  
  8650.000000   1689183   1689309   1690380   1692420   1695290  
  8640.000000   1698653   1702072   1705065   1707242   1708403  
  8630.000000   1708602   1708159   1707528   1707168   1707347  
  8620.000000   1708099   1709184   1710245   1710934   1711089  
  8610.000000   1710786   1710297   1710010   1710254   1711240  
  8600.000000   1712964   1715306   1718074   1721099   1724249  
  8590.000000   1727414   1730485   1733277   1735570   1737119  
  8580.000000   1737767   1737465   1736313   1734530   1732436  
  8570.000000   1730391   1728759   1727869   1727971   1729203  
  8560.000000   1731508   1734637   1738150   1741511   1744217  
  8550.000000   1745949   1746684   1746702   1746498   1746595  
  8540.000000   1747382   1748981   1751263   1753904   1756539  
  8530.000000   1758866   1760721   1762064   1762915   1763312  
  8520.000000   1763288   1762909   1762315   1761740   1761497  
  8510.000000   1761863   1762984   1764790   1767004   1769240  
  8500.000000   1771134   1772498   1773360   1773956   1774594  
  8490.000000   1775534   1776870   1778531   1780341   1782109  
  8480.000000   1783728   1785169   1786485   1787695   1788752  
  8470.000000   1789515   1789819   1789564   1788797   1787735  
  8460.000000   1786736   1786193   1786431   1787605   1789662  
  8450.000000   1792381   1795413   1798407   1801054   1803177  
  8440.000000   1804737   1805847   1806716   1807604   1808728  
  8430.000000   1810196   1811953   1813774   1815332   1816287  
  8420.000000   1816412   1815676   1814248   1812457   1810650  
  8410.000000   1809107   1807942   1807131   1806555   1806120  
  8400.000000   1805820   1805762   1806083   1806893   1808155  
  8390.000000   1809700   1811246   1812514   1813340   1813717  
  8380.000000   1813815   1813855   1814035   1814405   1814873  
  8370.000000   1815237   1815294   1814946   1814248   1813413  
  8360.000000   1812712   1812410   1812641   1813400   1814535  
  8350.000000   1815823   1817043   1818015   1818631   1818829  
  8340.000000   1818593   1817927   1816870   1815495   1813940  
  8330.000000   1812399   1811102   1810270   1810046   1810469  
  8320.000000   1811446   1812798   1814276   1815644   1816713  
  8310.000000   1817387   1817656   1817580   1817252   1816766  
  8300.000000   1816201   1815610   1815024   1814452   1813897  
  8290.000000   1813351   1812795   1812196   1811506   1810679  
  8280.000000   1809683   1808518   1807230   1805897   1804615  
  8270.000000   1803477   1802534   1801807   1801277   1800929  
  8260.000000   1800748   1800752   1800957   1801363   1801918  
  8250.000000   1802498   1802922   1802983   1802520   1801469  
  8240.000000   1799897   1797986   1795983   1794136   1792618  
  8230.000000   1791507   1790763   1790286   1789944   1789636  
  8220.000000   1789292   1788890   1788418   1787867   1787205  
  8210.000000   1786399   1785426   1784291   1783046   1781767  
  8200.000000   1780533   1779400   1778369   1777398   1776406  
  8190.000000   1775322   1774094   1772723   1771250   1769739  
  8180.000000   1768250   1766814   1765427   1764053   1762647  
  8170.000000   1761174   1759618   1757995   1756337   1754688  
  8160.000000   1753089   1751575   1750171   1748892   1747745  
  8150.000000   1746719   1745789   1744899   1743981   1742958  
  8140.000000   1741779   1740437   1738985   1737529   1736205  
  8130.000000   1735135   1734392   1733973   1733797   1733730  
  8120.000000   1733623   1733352   1732849   1732105   1731155  
  8110.000000   1730045   1728812   1727466   1726007   1724431  
  8100.000000   1722764   1721067   1719430   1717952   1716705  
  8090.000000   1715711   1714929   1714271   1713628   1712910  
  8080.000000   1712079   1711156   1710218   1709365   1708683  
  8070.000000   1708217   1707952   1707817   1707709   1707513  
  8060.000000   1707148   1706567   1705786   1704851   1703835  
  8050.000000   1702799   1701781   1700792   1699828   1698891  
  8040.000000   1698011   1697250   1696685   1696383   1696357  
  8030.000000   1696545   1696808   1696969   1696867   1696417  
  8020.000000   1695648   1694695   1693761   1693036   1692633  
  8010.000000   1692538   1692624   1692685   1692514   1691972  
  8000.000000   1691020   1689732   1688245   1686730   1685328  
  7990.000000   1684144   1683233   1682612   1682268   1682154  
  7980.000000   1682185   1682227   1682124   1681726   1680944  
  7970.000000   1679799   1678431   1677074   1675988   1675373  
  7960.000000   1675308   1675716   1676405   1677122   1677650  
  7950.000000   1677857   1677723   1677316   1676740   1676089  
  7940.000000   1675420   1674757   1674120   1673547   1673106  
  7930.000000   1672866   1672864   1673067   1673357   1673555  
  7920.000000   1673475   1672981   1672044   1670744   1669259  
  7910.000000   1667798   1666563   1665683   1665216   1665130  
  7900.000000   1665343   1665737   1666187   1666585   1666863  
  7890.000000   1667002   1667046   1667088   1667254   1667646  
  7880.000000   1668319   1669235   1670283   1671302   1672145  
  7870.000000   1672728   1673056   1673219   1673331   1673491  
  7860.000000   1673715   1673950   1674085   1674023   1673718  
  7850.000000   1673205   1672574   1671921   1671291   1670659  
  7840.000000   1669935   1669024   1667882   1666556   1665179  
  7830.000000   1663934   1662973   1662381   1662135   1662142  
  7820.000000   1662283   1662465   1662655   1662861   1663100  
  7810.000000   1663356   1663559   1663602   1663388   1662883  
  7800.000000   1662147   1661319   1660580   1660072   1659855  
  7790.000000   1659872   1659976   1659983   1659734   1659148  
  7780.000000   1658241   1657108   1655893   1654743   1653774  
  7770.000000   1653055   1652601   1652379   1652324   1652347  
  7760.000000   1652362   1652303   1652142   1651899   1651629  
  7750.000000   1651402   1651263   1651211   1651194   1651123  
  7740.000000   1650918   1650543   1650027   1649468   1648980  
  7730.000000   1648665   1648546   1648576   1648633   1648582  
  7720.000000   1648309   1647765   1646973   1646005   1644946  
  7710.000000   1643860   1642772   1641669   1640521   1639308  
  7700.000000   1638035   1636745   1635508   1634408   1633528  
  7690.000000   1632928   1632639   1632649   1632904   1633300  
  7680.000000   1633718   1634023   1634115   1633934   1633492  
  7670.000000   1632855   1632136   1631458   1630933   1630640  
  7660.000000   1630617   1630862   1631333   1631964   1632662  
  7650.000000   1633319   1633830   1634105   1634098   1633809  
  7640.000000   1633297   1632650   1631975   1631355   1630842  
  7630.000000   1630449   1630171   1630010   1629979   1630117  
  7620.000000   1630455   1631002   1631720   1632524   1633298  
  7610.000000   1633921   1634306   1634401   1634215   1633786  
  7600.000000   1633183   1632479   1631759   1631113   1630639  
  7590.000000   1630428   1630537   1630974   1631673   1632506  
  7580.000000   1633315   1633949   1634314   1634386   1634221  
  7570.000000   1633915   1633591   1633344   1633246   1633332  
  7560.000000   1633621   1634122   1634838   1635760   1636854  
  7550.000000   1638060   1639292   1640463   1641504   1642376  
  7540.000000   1643077   1643623   1644051   1644386   1644656  
  7530.000000   1644881   1645093   1645325   1645621   1646007  
  7520.000000   1646491   1647047   1647634   1648201   1648724  
  7510.000000   1649204   1649683   1650213   1650853   1651638  
  7500.000000   1652595   1653727   1655041   1656536   1658213  
  7490.000000   1660049   1661997   1663977   1665897   1667672  
  7480.000000   1669268   1670703   1672059   1673432   1674913  
  7470.000000   1676524   1678227   1679910   1681453   1682753  
  7460.000000   1683783   1684597   1685328   1686144   1687196  
  7450.000000   1688579   1690309   1692333   1694547   1696840  
  7440.000000   1699124   1701357   1703542   1705711   1707900  
  7430.000000   1710114   1712328   1714468   1716455   1718206  
  7420.000000   1719691   1720924   1721985   1722987   1724054  
  7410.000000   1725291   1726761   1728485   1730441   1732587  
  7400.000000   1734861   1737197   1739527   1741779   1743892  
  7390.000000   1745822   1747570   1749176   1750724   1752310  
  7380.000000   1754019   1755891   1757903   1759990   1762068  
  7370.000000   1764080   1766014   1767909   1769828   1771823  
  7360.000000   1773902   1776018   1778083   1780007   1781740  
  7350.000000   1783294   1784746   1786208   1787781   1789518  
  7340.000000   1791405   1793381   1795364   1797301   1799179  
  7330.000000   1801029   1802901   1804829   1806814   1808808  
  7320.000000   1810734   1812510   1814078   1815426   1816594  
  7310.000000   1817664   1818735   1819904   1821234   1822755  
  7300.000000   1824447   1826273   1828171   1830086   1831963  
  7290.000000   1833764   1835451   1836986   1838320   1839402  
  7280.000000   1840189   1840669   1840880   1840913   1840905  
  7270.000000   1841007   1841344   1841978   1842891   1844003  
  7260.000000   1845202   1846385   1847499   1848544   1849574  
  7250.000000   1850648   1851816   1853076   1854402   1855730  
  7240.000000   1857032   1858294   1859569   1860915   1862415  
  7230.000000   1864098   1865971   1867980   1870070   1872174  
  7220.000000   1874267   1876344   1878457   1880666   1883063  
  7210.000000   1885720   1888695   1891992   1895571   1899329  
  7200.000000   1903139   1906855   1910381   1913667   1916749  
  7190.000000   1919707   1922660   1925695   1928857   1932113  
  7180.000000   1935394   1938606   1941701   1944674   1947589  
  7170.000000   1950525   1953570   1956750   1960057   1963419  
  7160.000000   1966778   1970077   1973331   1976580   1979922  
  7150.000000   1983445   1987243   1991368   1995854   2000683  
  7140.000000   2005825   2011202   2016740   2022334   2027917  
  7130.000000   2033415   2038818   2044121   2049374   2054610  
  7120.000000   2059886   2065218   2070632   2076131   2081742  
  7110.000000   2087487   2093401   2099496   2105772   2112183  
  7100.000000   2118677   2125188   2131685   2138155   2144626  
  7090.000000   2151119   2157657   2164217   2170768   2177257  
  7080.000000   2183666   2189998   2196304   2202641   2209064  
  7070.000000   2215587   2222187   2228813   2235415   2241966  
  7060.000000   2248479   2254997   2261579   2268268   2275085  
  7050.000000   2282015   2289022   2296059   2303083   2310056  
  7040.000000   2316946   2323724   2330366   2336858   2343203  
  7030.000000   2349423   2355556   2361646   2367724   2373813  
  7020.000000   2379905   2385994   2392060   2398096   2404087  
  7010.000000   2410021   2415868   2421601   2427186   2432620  
  7000.000000   2437912   2443110   2448252   2453380   2458485  
  6990.000000   2463549   2468515   2473358   2478059   2482657  
  6980.000000   2487183   2491678   2496125   2500481   2504655  
  6970.000000   2508582   2512218   2515595   2518775   2521860  
  6960.000000   2524911   2527964   2530986   2533939   2536764  
  6950.000000   2539456   2542023   2544513   2546954   2549368  
  6940.000000   2551741   2554063   2556319   2558532   2560731  
  6930.000000   2562953   2565193   2567419   2569552   2571521  
  6920.000000   2573276   2574836   2576267   2577670   2579121  
  6910.000000   2580652   2582220   2583744   2585123   2586303  
  6900.000000   2587280   2588121   2588915   2589753   2590680  
  6890.000000   2591695   2592753   2593798   2594779   2595676  
  6880.000000   2596495   2597261   2598000   2598736   2599479  
  6870.000000   2600240   2601018   2601815   2602624   2603437  
  6860.000000   2604238   2605019   2605777   2606529   2607299  
  6850.000000   2608112   2608976   2609879   2610782   2611634  
  6840.000000   2612386   2613008   2613494   2613866   2614161  
  6830.000000   2614424   2614696   2615013   2615395   2615853  
  6820.000000   2616378   2616948   2617518   2618046   2618489  
  6810.000000   2618827   2619062   2619220   2619329   2619419  
  6800.000000   2619494   2619545   2619556   2619523   2619456  
  6790.000000   2619385   2619338   2619331   2619347   2619346  
  6780.000000   2619274   2619099   2618817   2618465   2618098  
  6770.000000   2617768   2617497   2617275   2617063   2616831  
  6760.000000   2616567   2616295   2616055   2615886   2615791  
  6750.000000   2615736   2615655   2615483   2615187   2614781  
  6740.000000   2614317   2613862   2613464   2613128   2612820  
  6730.000000   2612487   2612087   2611620   2611118   2610648  
  6720.000000   2610263   2609994   2609824   2609714   2609608  
  6710.000000   2609467   2609268   2609002   2608657   2608211  
  6700.000000   2607628   2606882   2605971   2604937   2603857  
  6690.000000   2602826   2601915   2601161   2600539   2599993  
  6680.000000   2599446   2598848   2598171   2597430   2596647  
  6670.000000   2595842   2595011   2594133   2593175   2592118  
  6660.000000   2590957   2589713   2588415   2587093   2585764  
  6650.000000   2584440   2583126   2581837   2580586   2579396  
  6640.000000   2578267   2577187   2576118   2575015   2573830  
  6630.000000   2572539   2571139   2569648   2568090   2566489  
  6620.000000   2564857   2563204   2561539   2559884   2558262  
  6610.000000   2556704   2555222   2553809   2552433   2551046  
  6600.000000   2549604   2548077   2546458   2544761   2543008  
  6590.000000   2541219   2539407   2537581   2535751   2533940  
  6580.000000   2532178   2530501   2528936   2527491   2526147  
  6570.000000   2524867   2523600   2522300   2520935   2519489  
  6560.000000   2517967   2516383   2514764   2513140   2511542  
  6550.000000   2509996   2508517   2507102   2505726   2504353  
  6540.000000   2502944   2501471   2499934   2498358   2496790  
  6530.000000   2495274   2493841   2492494   2491210   2489952  
  6520.000000   2488689   2487403   2486101   2484807   2483554  
  6510.000000   2482368   2481264   2480242   2479289   2478382  
  6500.000000   2477494   2476594   2475653   2474644   2473553  
  6490.000000   2472382   2471151   2469896   2468652   2467447  
  6480.000000   2466286   2465154   2464025   2462874   2461688  
  6470.000000   2460473   2459246   2458029   2456833   2455660  
  6460.000000   2454503   2453353   2452211   2451084   2449982  
  6450.000000   2448909   2447858   2446812   2445754   2444679  
  6440.000000   2443607   2442572   2441619   2440773   2440035  
  6430.000000   2439369   2438724   2438044   2437305   2436511  
  6420.000000   2435701   2434919   2434204   2433563   2432978  
  6410.000000   2432415   2431850   2431277   2430713   2430191  
  6400.000000   2429738   2429364   2429053   2428774   2428493  
  6390.000000   2428187   2427850   2427486   2427104   2426701  
  6380.000000   2426264   2425772   2425207   2424569   2423874  
  6370.000000   2423156   2422450   2421788   2421183   2420638  
  6360.000000   2420146   2419700   2419291   2418918   2418572  
  6350.000000   2418240   2417900   2417532   2417118   2416652  
  6340.000000   2416139   2415594   2415030   2414455   2413866  
  6330.000000   2413259   2412620   2411944   2411224   2410460  
  6320.000000   2409644   2408774   2407836   2406829   2405751  
  6310.000000   2404618   2403445   2402256   2401061   2399871  
  6300.000000   2398676   2397473   2396247   2394999   2393724  
  6290.000000   2392430   2391111   2389768   2388390   2386970  
  6280.000000   2385494   2383958   2382352   2380675   2378922  
  6270.000000   2377101   2375223   2373313   2371400   2369518  
  6260.000000   2367682   2365897   2364147   2362407   2360647  
  6250.000000   2358856   2357034   2355200   2353372   2351569  
  6240.000000   2349789   2348021   2346246   2344452   2342633  
  6230.000000   2340798   2338952   2337097   2335223   2333312  
  6220.000000   2331347   2329322   2327245   2325138   2323027  
  6210.000000   2320933   2318862   2316810   2314773   2312758  
  6200.000000   2310784   2308882   2307077   2305377   2303761  
  6190.000000   2302185   2300595   2298950   2297236   2295465  
  6180.000000   2293676   2291905   2290181   2288511   2286890  
  6170.000000   2285303   2283747   2282223   2280740   2279303  
  6160.000000   2277908   2276535   2275164   2273779   2272379  
  6150.000000   2270976   2269592   2268236   2266905   2265578  
  6140.000000   2264229   2262840   2261417   2259985   2258587  
  6130.000000   2257252   2255991   2254783   2253594   2252379  
  6120.000000   2251119   2249818   2248509   2247234   2246028  
  6110.000000   2244906   2243864   2242881   2241940   2241034  
  6100.000000   2240171   2239363   2238624   2237949   2237330  
  6090.000000   2236746   2236188   2235652   2235153   2234701  
  6080.000000   2234308   2233960   2233643   2233325   2232996  
  6070.000000   2232654   2232331   2232058   2231885   2231831  
  6060.000000   2231915   2232117   2232423   2232797   2233228  
  6050.000000   2233694   2234204   2234756   2235374   2236071  
  6040.000000   2236882   2237826   2238936   2240216   2241673  
  6030.000000   2243282   2245019   2246842   2248728   2250642  
  6020.000000   2252581   2254526   2256482   2258437   2260400  
  6010.000000   2262368   2264364   2266399   2268503   2270683  
  6000.000000   2272948   2275279   2277664   2280079   2282523  
  5990.000000   2284997   2287529   2290138   2292855   2295684  
  5980.000000   2298635   2301691   2304846   2308080   2311384  
  5970.000000   2314735   2318123   2321522   2324927   2328329  
  5960.000000   2331750   2335205   2338730   2342334   2346027  
  5950.000000   2349786   2353593   2357420   2361269   2365149  
  5940.000000   2369093   2373129   2377276   2381529   2385862  
  5930.000000   2390238   2394618   2398979   2403306   2407588  
  5920.000000   2411810   2415942   2419938   2423753   2427352  
  5910.000000   2430728   2433902   2436923   2439851   2442749  
  5900.000000   2445659   2448616   2451625   2454691   2457798  
  5890.000000   2460937   2464081   2467214   2470307   2473351  
  5880.000000   2476335   2479264   2482138   2484954   2487693  
  5870.000000   2490326   2492817   2495142   2497300   2499318  
  5860.000000   2501250   2503160   2505109   2507138   2509267  
  5850.000000   2511500   2513831   2516253   2518761   2521352  
  5840.000000   2524014   2526731   2529481   2532244   2535013  
  5830.000000   2537791   2540591   2543421   2546278   2549140  
  5820.000000   2551973   2554737   2557406   2559977   2562461  
  5810.000000   2564883   2567257   2569594   2571873   2574094  
  5800.000000   2576233   2578321   2580367   2582427   2584502  
  5790.000000   2586603   2588661   2590607   2592307   2593652  
  5780.000000   2594504   2594779   2594396   2593343   2591638  
  5770.000000   2589375   2586681   2583739   2580717   2577786  
  5760.000000   2575043   2572552   2570299   2568261   2566386  
  5750.000000   2564657   2563055   2561586   2560247   2559028  
  5740.000000   2557906   2556844   2555820   2554811   2553819  
  5730.000000   2552840   2551883   2550935   2549993   2549044  
  5720.000000   2548101   2547181   2546322   2545552   2544889  
  5710.000000   2544320   2543819   2543345   2542872   2542391  
  5700.000000   2541917   2541478   2541099   2540795   2540557  
  5690.000000   2540371   2540214   2540075   2539944   2539821  
  5680.000000   2539686   2539514   2539256   2538868   2538297  
  5670.000000   2537524   2536529   2535321   2533898   2532272  
  5660.000000   2530441   2528426   2526253   2523979   2521666  
  5650.000000   2519382   2517171   2515056   2513025   2511059  
  5640.000000   2509136   2507250   2505410   2503633   2501933  
  5630.000000   2500309   2498747   2497223   2495727   2494255  
  5620.000000   2492828   2491466   2490191   2488999   2487877  
  5610.000000   2486792   2485723   2484654   2483598   2482576  
  5600.000000   2481616   2480730   2479920   2479168   2478450  
  5590.000000   2477742   2477028   2476299   2475547   2474762  
  5580.000000   2473931   2473041   2472089   2471080   2470031  
  5570.000000   2468962   2467883   2466798   2465695   2464564  
  5560.000000   2463396   2462198   2460988   2459790   2458620  
  5550.000000   2457484   2456371   2455265   2454148   2453016  
  5540.000000   2451872   2450730   2449603   2448496   2447403  
  5530.000000   2446317   2445231   2444147   2443071   2442014  
  5520.000000   2440976   2439948   2438911   2437843   2436727  
  5510.000000   2435560   2434349   2433112   2431859   2430600  
  5500.000000   2429331   2428050   2426751   2425438   2424112  
  5490.000000   2422776   2421417   2420020   2418557   2417018  
  5480.000000   2415398   2413720   2412009   2410299   2408599  
  5470.000000   2406903   2405182   2403407   2401553   2399623  
  5460.000000   2397632   2395609   2393572   2391532   2389484  
  5450.000000   2387417   2385324   2383210   2381093   2378993  
  5440.000000   2376927   2374899   2372910   2370953   2369035  
  5430.000000   2367161   2365344   2363578   2361853   2360138  
  5420.000000   2358416   2356681   2354974   2353352   2351901  
  5410.000000   2350671   2349686   2348898   2348242   2347629  
  5400.000000   2347013   2346368   2345736   2345159   2344707  
  5390.000000   2344407   2344285   2344323   2344526   2344879  
  5380.000000   2345410   2346119   2347026   2348102   2349330  
  5370.000000   2350653   2352059   2353512   2355048   2356662  
  5360.000000   2358412   2360295   2362368   2364626   2367145  
  5350.000000   2369949   2373137   2376729   2380801   2385314  
  5340.000000   2390292   2395657   2401436   2407572   2414130  
  5330.000000   2421071   2428458   2436235   2444449   2453041  
  5320.000000   2462099   2471613   2481730   2492468   2503971  
  5310.000000   2516204   2529239   2542970   2557424   2572498  
  5300.000000   2588258   2604667   2621866   2639871   2658843  
  5290.000000   2678774   2699740   2721622   2744359   2767738  
  5280.000000   2791669   2816005   2840787   2866037   2891920  
  5270.000000   2918503   2945856   2973875   3002393   3031150  
  5260.000000   3059930   3088595   3117121   3145582   3174047  
  5250.000000   3202561   3231016   3259254   3286983   3314019  
  5240.000000   3340162   3365445   3389883   3413679   3436901  
  5230.000000   3459702   3482014   3503827   3524933   3545264  
  5220.000000   3564638   3583096   3600592   3617295   3633240  
  5210.000000   3648609   3663376   3677612   3691173   3704049  
  5200.000000   3716083   3727329   3737728   3747425   3756413  
  5190.000000   3764819   3772581   3779749   3786215   3792023  
  5180.000000   3797104   3801556   3805356   3808611   3811281  
  5170.000000   3813435   3815011   3816079   3816609   3816701  
  5160.000000   3816346   3815626   3814493   3812976   3811000  
  5150.000000   3808596   3805731   3802477   3798843   3794908  
  5140.000000   3790660   3786147   3781340   3776284   3770980  
  5130.000000   3765501   3759870   3754145   3748318   3742400  
  5120.000000   3736354   3730181   3723866   3717446   3710944  
  5110.000000   3704406   3697851   3691299   3684747   3678206  
  5100.000000   3671680   3665196   3658769   3652420   3646146  
  5090.000000   3639940   3633777   3627644   3621531   3615445  
  5080.000000   3609394   3603386   3597410   3591451   3585472  
  5070.000000   3579449   3573360   3567204   3560988   3554733  
  5060.000000   3548446   3542138   3535797   3529420   3522992  
  5050.000000   3516514   3509983   3503407   3496784   3490116  
  5040.000000   3483398   3476629   3469810   3462955   3456084  
  5030.000000   3449222   3442395   3435622   3428922   3422300  
  5020.000000   3415766   3409315   3402950   3396658   3390437  
  5010.000000   3384269   3378160   3372103   3366123   3360232  
  5000.000000   3354477   3348875   3343474   3338276   3333315  
  4990.000000   3328580   3324097   3319850   3315869   3312133  
  4980.000000   3308668   3305443   3302482   3299756   3297306  
  4970.000000   3295121   3293269   3291747   3290620   3289869  
  4960.000000   3289533   3289565   3289991   3290765   3291926  
  4950.000000   3293445   3295372   3297676   3300398   3303489  
  4940.000000   3306977   3310806   3315011   3319550   3324468  
  4930.000000   3329728   3335371   3341351   3347698   3354359  
  4920.000000   3361361   3368658   3376280   3384192   3392422  
  4910.000000   3400945   3409788   3418932   3428396   3438155  
  4900.000000   3448204   3458497   3468996   3479637   3490361  
  4890.000000   3501113   3511835   3522490   3533023   3543405  
  4880.000000   3553574   3563501   3573117   3582396   3591264  
  4870.000000   3599706   3607652   3615100   3621998   3628374  
  4860.000000   3634206   3639558   3644427   3648883   3652919  
  4850.000000   3656589   3659871   3662816   3665418   3667744  
  4840.000000   3669817   3671718   3673472   3675143   3676733  
  4830.000000   3678276   3679760   3681206   3682609   3683994  
  4820.000000   3685367   3686749   3688142   3689557   3690989  
  4810.000000   3692439   3693902   3695375   3696859   3698348  
  4800.000000   3699841   3701335   3702832   3704333   3705844  
  4790.000000   3707370   3708917   3710488   3712086   3713714  
  4780.000000   3715376   3717076   3718817   3720600   3722413  
  4770.000000   3724243   3726060   3727840   3729548   3731169  
  4760.000000   3732684   3734094   3735395   3736598   3737705  
  4750.000000   3738727   3739663   3740520   3741291   3741975  
  4740.000000   3742553   3743017   3743344   3743531   3743571  
  4730.000000   3743483   3743290   3743030   3742739   3742450  
  4720.000000   3742184   3741951   3741749   3741572   3741414  
  4710.000000   3741270   3741145   3741045   3740989   3740989  
  4700.000000   3741070   3741247   3741546   3741978   3742566  
  4690.000000   3743312   3744223   3745283   3746482   3747787  
  4680.000000   3749175   3750604   3752048   3753466   3754841  
  4670.000000   3756142   3757373   3758528   3759640   3760729  
  4660.000000   3761850   3763044   3764368   3765863   3767572  
  4650.000000   3769516   3771710   3774147   3776807   3779652  
  4640.000000   3782637   3785710   3788820   3791928   3795001  
  4630.000000   3798023   3800981   3803871   3806680   3809399  
  4620.000000   3811998   3814454   3816725   3818786   3820598  
  4610.000000   3822150   3823422   3824433   3825186   3825728  
  4600.000000   3826081   3826304   3826419   3826473   3826464  
  4590.000000   3826410   3826277   3826055   3825690   3825163  
  4580.000000   3824430   3823490   3822329   3820975   3819446  
  4570.000000   3817787   3816026   3814200   3812321   3810405  
  4560.000000   3808443   3806438   3804382   3802289   3800167  
  4550.000000   3798041   3795932   3793858   3791831   3789848  
  4540.000000   3787906   3785997   3784124   3782287   3780507  
  4530.000000   3778792   3777169   3775636   3774217   3772896  
  4520.000000   3771698   3770604   3769651   3768825   3768174  
  4510.000000   3767687   3767430   3767402   3767697   3768334  
  4500.000000   3769430   3771005   3773173   3775924   3779343  
  4490.000000   3783395   3788153   3793583   3799773   3806701  
  4480.000000   3814456   3822997   3832381   3842524   3853439  
  4470.000000   3865017   3877251   3890036   3903367   3917150  
  4460.000000   3931380   3945966   3960887   3976048   3991416  
  4450.000000   4006902   4022474   4038071   4053677   4069266  
  4440.000000   4084832   4100376   4115882   4131353   4146753  
  4430.000000   4162075   4177257   4192285   4207073   4221602  
  4420.000000   4235768   4249549   4262832   4275597   4287736  
  4410.000000   4299237   4310006   4320048   4329290   4337766  
  4400.000000   4345442   4352390   4358624   4364258   4369346  
  4390.000000   4374029   4378383   4382553   4386612   4390675  
  4380.000000   4394782   4398994   4403309   4407745   4412283  
  4370.000000   4416938   4421711   4426631   4431719   4437004  
  4360.000000   4442494   4448196   4454082   4460136   4466283  
  4350.000000   4472491   4478649   4484731   4490634   4496380  
  4340.000000   4501924   4507330   4512545   4517526   4522031  
  4330.000000   4525747   4528190   4528899   4527454   4523691  
  4320.000000   4517699   4509916   4500981   4491689   4482753  
  4310.000000   4474767   4468047   4462707   4458638   4455654  
  4300.000000   4453513   4452016   4451006   4450367   4450032  
  4290.000000   4449927   4450038   4450322   4450816   4451524  
  4280.000000   4452495   4453738   4455250   4456999   4458925  
  4270.000000   4460981   4463088   4465185   4467143   4468806  
  4260.000000   4469922   4470220   4469406   4467275   4463728  
  4250.000000   4458857   4452895   4446226   4439255   4432407  
  4240.000000   4425974   4420174   4415045   4410561   4406580  
  4230.000000   4402961   4399535   4396167   4392752   4389219  
  4220.000000   4385555   4381763   4377920   4374092   4370407  
  4210.000000   4366948   4363829   4361085   4358757   4356807  
  4200.000000   4355205   4353866   4352740   4351752   4350884  
  4190.000000   4350097   4349420   4348841   4348410   4348115  
  4180.000000   4348005   4348052   4348303   4348733   4349407  
  4170.000000   4350331   4351600   4353246   4355375   4358006  
  4160.000000   4361214   4364973   4369311   4374156   4379517  
  4150.000000   4385313   4391560   4398195   4405256   4412697  
  4140.000000   4420578   4428869   4437638   4446858   4456593  
  4130.000000   4466797   4477508   4488659   4500265   4512259  
  4120.000000   4524663   4537440   4550642   4564265   4578376  
  4110.000000   4592972   4608093   4623695   4639758   4656185  
  4100.000000   4672909   4689821   4706862   4723969   4741132  
  4090.000000   4758348   4775636   4793013   4810479   4828037  
  4080.000000   4845658   4863337   4881029   4898725   4916353  
  4070.000000   4933877   4951176   4968193   4984800   5000977  
  4060.000000   5016642   5031835   5046504   5060699   5074343  
  4050.000000   5087467   5099982   5111941   5123279   5134075  
  4040.000000   5144256   5153872   5162800   5171060   5178525  
  4030.000000   5185251   5191170   5196379   5200836   5204611  
  4020.000000   5207607   5209873   5211364   5212157   5212208  
  4010.000000   5211664   5210602   5209054   5206811   5203934  
  4000.000000   5200734  
##END= 
