##TITLE= Sample 011 By ssteindl date Montag, November 26 2018
##JCAMP-DX= 4.24
##DATA TYPE= INFRARED SPECTRUM
##ORIGIN= Exported PE Spectrum Data File
##OWNER= Sandra Steindl
##DATE= 18/11/26
##TIME= 13:03:48.00
##SPECTROMETER/DATA SYSTEM= PERKIN-ELMER Frontier FT-IR/NIR IR
##INSTRUMENT PARAMETERS=
  APODIZATION=stark
  DETECTOR=INGAAS
##RESOLUTION= 16.000000
##DELTAX= -2.000000
##XUNITS= 1/CM
##YUNITS= A
##XFACTOR= 1.00
##YFACTOR= 0.00000011920928955078
##FIRSTX= 10000.00
##LASTX= 4000.00
##NPOINTS= 3001
##FIRSTY= 0.243082
##MAXY= 0.625283
##MINY= 0.212971
##XYDATA= (X++(Y..Y))
 10000.000000   2039117   2038800   2040041   2044424   2051091  
  9990.000000   2057763   2062923   2066176   2067364   2066392  
  9980.000000   2063603   2059621   2054928   2049909   2045082  
  9970.000000   2041107   2038551   2037767   2038692   2040828  
  9960.000000   2043303   2045221   2045868   2045012   2042876  
  9950.000000   2040055   2037258   2035075   2033816   2033489  
  9940.000000   2033845   2034516   2035075   2035151   2034459  
  9930.000000   2032868   2030445   2027436   2024220   2021131  
  9920.000000   2018332   2015667   2012728   2009023   2004259  
  9910.000000   1998586   1992654   1987484   1984131   1983313  
  9900.000000   1985134   1988965   1993692   1997984   2000807  
  9890.000000   2001582   2000380   1997680   1994249   1990846  
  9880.000000   1988152   1986703   1986868   1988860   1992597  
  9870.000000   1997743   2003640   2009527   2014673   2018623  
  9860.000000   2021235   2022608   2022919   2022178   2020220  
  9850.000000   2016712   2011462   2004620   1996836   1989198  
  9840.000000   1982879   1978831   1977373   1978215   1980556  
  9830.000000   1983485   1986269   1988528   1990197   1991308  
  9820.000000   1991860   1991683   1990631   1988663   1986133  
  9810.000000   1983686   1982194   1982348   1984404   1988013  
  9800.000000   1992319   1996339   1999289   2000925   2001517  
  9790.000000   2001686   2002083   2003102   2004764   2006764  
  9780.000000   2008624   2009902   2010282   2009672   2008166  
  9770.000000   2006049   2003715   2001625   2000188   1999649  
  9760.000000   1999975   2000779   2001402   2001065   1999192  
  9750.000000   1995662   1990946   1986026   1982059   1980011  
  9740.000000   1980306   1982749   1986647   1991119   1995370  
  9730.000000   1998910   2001535   2003254   2004120   2004162  
  9720.000000   2003421   2002009   2000225   1998454   1997072  
  9710.000000   1996200   1995622   1994828   1993219   1990463  
  9700.000000   1986639   1982368   1978504   1975886   1974931  
  9690.000000   1975533   1977113   1978899   1980214   1980684  
  9680.000000   1980247   1979034   1977193   1974803   1971906  
  9670.000000   1968613   1965221   1962163   1959896   1958630  
  9660.000000   1958221   1958123   1957608   1956039   1953155  
  9650.000000   1949202   1944856   1940972   1938285   1937161  
  9640.000000   1937551   1939089   1941291   1943724   1946089  
  9630.000000   1948177   1949836   1950896   1951258   1950919  
  9620.000000   1950069   1948996   1948007   1947238   1946610  
  9610.000000   1945890   1944852   1943513   1942151   1941324  
  9600.000000   1941542   1943081   1945716   1948792   1951428  
  9590.000000   1952866   1952761   1951234   1948751   1945804  
  9580.000000   1942699   1939424   1935832   1931850   1927720  
  9570.000000   1924043   1921527   1920734   1921658   1923792  
  9560.000000   1926205   1928086   1929006   1929183   1929243  
  9550.000000   1929851   1931252   1932997   1934106   1933392  
  9540.000000   1930091   1924084   1916097   1907267   1898827  
  9530.000000   1891565   1885718   1881035   1877133   1873863  
  9520.000000   1871463   1870525   1871635   1875107   1880719  
  9510.000000   1887804   1895458   1902817   1909346   1914760  
  9500.000000   1919080   1922274   1924314   1924997   1924188  
  9490.000000   1921895   1918466   1914556   1911000   1908607  
  9480.000000   1907869   1908968   1911603   1915302   1919324  
  9470.000000   1923042   1925872   1927557   1928109   1927864  
  9460.000000   1927309   1926874   1926718   1926541   1925681  
  9450.000000   1923250   1918566   1911418   1902301   1892336  
  9440.000000   1882928   1875377   1870412   1868101   1867907  
  9430.000000   1869050   1870833   1872871   1875081   1877501  
  9420.000000   1880062   1882428   1884104   1884612   1883880  
  9410.000000   1882252   1880524   1879490   1879682   1881051  
  9400.000000   1883013   1884707   1885374   1884757   1883174  
  9390.000000   1881420   1880339   1880470   1881812   1883876  
  9380.000000   1885959   1887417   1887924   1887464   1886272  
  9370.000000   1884613   1882685   1880612   1878514   1876660  
  9360.000000   1875423   1875249   1876413   1878912   1882360  
  9350.000000   1886136   1889559   1892127   1893624   1894083  
  9340.000000   1893657   1892429   1890381   1887397   1883473  
  9330.000000   1878853   1874083   1869892   1866913   1865483  
  9320.000000   1865477   1866429   1867689   1868739   1869319  
  9310.000000   1869485   1869433   1869325   1869148   1868700  
  9300.000000   1867762   1866233   1864326   1862449   1861099  
  9290.000000   1860541   1860706   1861150   1861279   1860588  
  9280.000000   1858920   1856576   1854201   1852552   1852152  
  9270.000000   1853176   1855391   1858379   1861687   1865015  
  9260.000000   1868237   1871284   1874041   1876215   1877400  
  9250.000000   1877133   1875132   1871410   1866394   1860798  
  9240.000000   1855444   1851053   1848071   1846675   1846745  
  9230.000000   1848011   1850074   1852549   1855048   1857237  
  9220.000000   1858819   1859591   1859505   1858680   1857420  
  9210.000000   1856063   1854952   1854264   1854032   1854078  
  9200.000000   1854100   1853798   1852985   1851683   1850082  
  9190.000000   1848518   1847351   1846879   1847227   1848316  
  9180.000000   1849881   1851545   1852918   1853693   1853720  
  9170.000000   1853045   1851893   1850595   1849489   1848845  
  9160.000000   1848797   1849312   1850175   1851059   1851602  
  9150.000000   1851517   1850673   1849138   1847194   1845235  
  9140.000000   1843654   1842689   1842319   1842275   1842106  
  9130.000000   1841410   1840004   1838066   1836094   1834779  
  9120.000000   1834722   1836160   1838786   1841814   1844225  
  9110.000000   1845080   1843850   1840602   1836023   1831150  
  9100.000000   1827026   1824384   1823462   1823977   1825264  
  9090.000000   1826564   1827310   1827254   1826478   1825272  
  9080.000000   1823993   1822914   1822146   1821620   1821192  
  9070.000000   1820720   1820184   1819665   1819339   1819416  
  9060.000000   1820071   1821371   1823227   1825411   1827634  
  9050.000000   1829574   1830966   1831635   1831550   1830809  
  9040.000000   1829605   1828220   1826981   1826216   1826170  
  9030.000000   1826966   1828555   1830689   1832922   1834715  
  9020.000000   1835569   1835169   1833478   1830787   1827633  
  9010.000000   1824658   1822383   1821110   1820859   1821434  
  9000.000000   1822524   1823842   1825189   1826451   1827505  
  8990.000000   1828181   1828239   1827447   1825720   1823208  
  8980.000000   1820375   1817831   1816165   1815692   1816332  
  8970.000000   1817642   1818962   1819718   1819633   1818864  
  8960.000000   1817895   1817320   1817566   1818705   1820454  
  8950.000000   1822267   1823598   1824077   1823655   1822546  
  8940.000000   1821102   1819661   1818452   1817590   1817110  
  8930.000000   1817048   1817447   1818338   1819646   1821144  
  8920.000000   1822463   1823211   1823129   1822217   1820769  
  8910.000000   1819254   1818159   1817767   1818053   1818698  
  8900.000000   1819222   1819229   1818562   1817395   1816141  
  8890.000000   1815292   1815231   1816066   1817618   1819442  
  8880.000000   1821027   1821887   1821745   1820524   1818397  
  8870.000000   1815714   1812941   1810623   1809266   1809285  
  8860.000000   1810867   1813960   1818235   1823152   1828040  
  8850.000000   1832247   1835278   1836869   1837019   1835905  
  8840.000000   1833860   1831234   1828406   1825685   1823343  
  8830.000000   1821588   1820542   1820250   1820614   1821494  
  8820.000000   1822679   1824026   1825431   1826881   1828406  
  8810.000000   1830010   1831629   1833074   1834111   1834486  
  8800.000000   1834075   1832907   1831212   1829353   1827741  
  8790.000000   1826716   1826455   1826950   1828025   1829424  
  8780.000000   1830880   1832182   1833208   1833921   1834351  
  8770.000000   1834558   1834625   1834632   1834678   1834854  
  8760.000000   1835252   1835927   1836888   1838082   1839411  
  8750.000000   1840761   1842034   1843180   1844201   1845140  
  8740.000000   1846047   1846944   1847796   1848526   1849037  
  8730.000000   1849263   1849207   1848961   1848693   1848594  
  8720.000000   1848803   1849360   1850161   1851007   1851639  
  8710.000000   1851862   1851593   1850923   1850088   1849398  
  8700.000000   1849136   1849448   1850301   1851461   1852599  
  8690.000000   1853349   1853468   1852859   1851643   1850084  
  8680.000000   1848542   1847366   1846836   1847106   1848222  
  8670.000000   1850127   1852704   1855776   1859128   1862501  
  8660.000000   1865640   1868313   1870387   1871829   1872773  
  8650.000000   1873441   1874135   1875091   1876441   1878160  
  8640.000000   1880095   1882047   1883835   1885406   1886812  
  8630.000000   1888224   1889799   1891650   1893745   1895953  
  8620.000000   1898053   1899843   1901196   1902090   1902605  
  8610.000000   1902855   1902947   1902924   1902767   1902424  
  8600.000000   1901840   1901028   1900070   1899141   1898475  
  8590.000000   1898321   1898889   1900277   1902427   1905099  
  8580.000000   1907899   1910350   1912010   1912611   1912178  
  8570.000000   1911061   1909865   1909288   1909892   1911918  
  8560.000000   1915182   1919112   1922920   1925828   1927316  
  8550.000000   1927238   1925846   1923666   1921317   1919324  
  8540.000000   1918006   1917463   1917648   1918443   1919718  
  8530.000000   1921368   1923290   1925388   1927527   1929576  
  8520.000000   1931423   1933011   1934355   1935493   1936481  
  8510.000000   1937321   1937983   1938403   1938552   1938465  
  8500.000000   1938256   1938092   1938118   1938416   1938958  
  8490.000000   1939639   1940315   1940881   1941301   1941620  
  8480.000000   1941925   1942297   1942779   1943352   1943968  
  8470.000000   1944580   1945180   1945804   1946514   1947363  
  8460.000000   1948373   1949521   1950763   1952046   1953346  
  8450.000000   1954647   1955928   1957137   1958186   1958978  
  8440.000000   1959437   1959582   1959544   1959556   1959879  
  8430.000000   1960709   1962092   1963891   1965798   1967437  
  8420.000000   1968467   1968702   1968169   1967100   1965864  
  8410.000000   1964850   1964354   1964504   1965217   1966272  
  8400.000000   1967366   1968249   1968774   1968968   1968983  
  8390.000000   1969050   1969363   1970001   1970897   1971831  
  8380.000000   1972536   1972755   1972363   1971378   1969959  
  8370.000000   1968359   1966834   1965610   1964822   1964553  
  8360.000000   1964832   1965664   1966994   1968695   1970535  
  8350.000000   1972202   1973351   1973698   1973114   1971683  
  8340.000000   1969707   1967608   1965798   1964556   1963954  
  8330.000000   1963868   1964037   1964193   1964141   1963831  
  8320.000000   1963315   1962706   1962081   1961462   1960809  
  8310.000000   1960049   1959153   1958127   1957059   1956036  
  8300.000000   1955133   1954352   1953652   1952975   1952300  
  8290.000000   1951680   1951227   1951088   1951371   1952123  
  8280.000000   1953278   1954707   1956236   1957708   1959014  
  8270.000000   1960086   1960879   1961330   1961341   1960796  
  8260.000000   1959601   1957754   1955361   1952667   1949996  
  8250.000000   1947698   1946034   1945120   1944864   1945007  
  8240.000000   1945179   1945017   1944255   1942797   1940737  
  8230.000000   1938321   1935879   1933733   1932118   1931143  
  8220.000000   1930780   1930907   1931350   1931932   1932491  
  8210.000000   1932893   1933017   1932760   1932039   1930811  
  8200.000000   1929106   1927016   1924719   1922409   1920275  
  8190.000000   1918436   1916922   1915685   1914621   1913635  
  8180.000000   1912656   1911681   1910739   1909895   1909193  
  8170.000000   1908659   1908276   1908008   1907810   1907625  
  8160.000000   1907405   1907078   1906561   1905750   1904550  
  8150.000000   1902903   1900820   1898404   1895849   1893403  
  8140.000000   1891309   1889749   1888778   1888320   1888168  
  8130.000000   1888060   1887740   1887040   1885918   1884469  
  8120.000000   1882890   1881404   1880200   1879358   1878845  
  8110.000000   1878523   1878215   1877768   1877106   1876251  
  8100.000000   1875297   1874374   1873586   1872979   1872526  
  8090.000000   1872137   1871710   1871144   1870388   1869422  
  8080.000000   1868268   1866968   1865583   1864194   1862897  
  8070.000000   1861814   1861056   1860725   1860856   1861422  
  8060.000000   1862306   1863329   1864272   1864915   1865078  
  8050.000000   1864637   1863563   1861900   1859789   1857423  
  8040.000000   1855039   1852866   1851087   1849805   1849021  
  8030.000000   1848657   1848569   1848619   1848686   1848715  
  8020.000000   1848691   1848630   1848543   1848414   1848209  
  8010.000000   1847879   1847397   1846762   1846014   1845209  
  8000.000000   1844411   1843659   1842972   1842348   1841775  
  7990.000000   1841244   1840747   1840276   1839815   1839342  
  7980.000000   1838840   1838304   1837756   1837232   1836772  
  7970.000000   1836394   1836075   1835764   1835405   1834972  
  7960.000000   1834498   1834077   1833826   1833842   1834139  
  7950.000000   1834634   1835160   1835520   1835552   1835186  
  7940.000000   1834458   1833485   1832421   1831390   1830466  
  7930.000000   1829656   1828931   1828254   1827600   1826965  
  7920.000000   1826350   1825765   1825221   1824747   1824401  
  7910.000000   1824260   1824397   1824829   1825486   1826193  
  7900.000000   1826725   1826863   1826507   1825706   1824680  
  7890.000000   1823728   1823133   1823046   1823442   1824133  
  7880.000000   1824860   1825403   1825673   1825743   1825790  
  7870.000000   1826016   1826529   1827306   1828191   1828977  
  7860.000000   1829493   1829685   1829626   1829482   1829426  
  7850.000000   1829564   1829881   1830257   1830520   1830512  
  7840.000000   1830158   1829480   1828581   1827604   1826670  
  7830.000000   1825868   1825224   1824745   1824422   1824269  
  7820.000000   1824299   1824530   1824940   1825459   1825964  
  7810.000000   1826296   1826306   1825883   1825002   1823722  
  7800.000000   1822189   1820585   1819098   1817866   1816958  
  7790.000000   1816375   1816060   1815944   1815961   1816084  
  7780.000000   1816299   1816608   1816991   1817398   1817754  
  7770.000000   1817971   1817986   1817770   1817348   1816781  
  7760.000000   1816145   1815504   1814896   1814337   1813821  
  7750.000000   1813350   1812926   1812563   1812256   1811986  
  7740.000000   1811697   1811330   1810826   1810165   1809369  
  7730.000000   1808500   1807645   1806867   1806200   1805622  
  7720.000000   1805079   1804497   1803821   1803033   1802158  
  7710.000000   1801263   1800437   1799774   1799355   1799224  
  7700.000000   1799381   1799770   1800281   1800771   1801091  
  7690.000000   1801126   1800837   1800272   1799563   1798883  
  7680.000000   1798385   1798153   1798166   1798317   1798451  
  7670.000000   1798426   1798167   1797685   1797063   1796418  
  7660.000000   1795843   1795384   1795016   1794684   1794323  
  7650.000000   1793910   1793467   1793061   1792763   1792620  
  7640.000000   1792623   1792706   1792765   1792682   1792373  
  7630.000000   1791800   1790993   1790028   1789019   1788081  
  7620.000000   1787314   1786787   1786528   1786534   1786770  
  7610.000000   1787187   1787727   1788331   1788943   1789503  
  7600.000000   1789963   1790267   1790380   1790275   1789958  
  7590.000000   1789461   1788851   1788213   1787640   1787215  
  7580.000000   1786994   1787005   1787240   1787664   1788222  
  7570.000000   1788847   1789472   1790036   1790506   1790872  
  7560.000000   1791158   1791405   1791664   1791966   1792322  
  7550.000000   1792709   1793089   1793429   1793728   1794022  
  7540.000000   1794380   1794876   1795555   1796406   1797356  
  7530.000000   1798281   1799061   1799603   1799895   1799989  
  7520.000000   1799997   1800033   1800190   1800503   1800957  
  7510.000000   1801506   1802104   1802738   1803430   1804226  
  7500.000000   1805174   1806289   1807545   1808865   1810150  
  7490.000000   1811296   1812235   1812934   1813426   1813781  
  7480.000000   1814110   1814525   1815127   1815977   1817092  
  7470.000000   1818436   1819936   1821498   1823037   1824501  
  7460.000000   1825884   1827216   1828559   1829962   1831448  
  7450.000000   1832988   1834520   1835960   1837247   1838354  
  7440.000000   1839325   1840243   1841214   1842328   1843628  
  7430.000000   1845102   1846687   1848302   1849879   1851389  
  7420.000000   1852851   1854315   1855833   1857426   1859069  
  7410.000000   1860693   1862213   1863561   1864733   1865788  
  7400.000000   1866850   1868058   1869524   1871286   1873293  
  7390.000000   1875419   1877506   1879416   1881075   1882491  
  7380.000000   1883745   1884954   1886226   1887629   1889178  
  7370.000000   1890848   1892595   1894378   1896170   1897954  
  7360.000000   1899708   1901398   1902978   1904402   1905648  
  7350.000000   1906733   1907718   1908692   1909741   1910925  
  7340.000000   1912255   1913708   1915238   1916811   1918415  
  7330.000000   1920062   1921762   1923503   1925232   1926864  
  7320.000000   1928305   1929485   1930395   1931091   1931690  
  7310.000000   1932336   1933152   1934212   1935515   1937013  
  7300.000000   1938619   1940259   1941873   1943440   1944952  
  7290.000000   1946408   1947796   1949087   1950239   1951211  
  7280.000000   1951974   1952521   1952870   1953069   1953186  
  7270.000000   1953311   1953537   1953950   1954609   1955528  
  7260.000000   1956670   1957943   1959229   1960398   1961366  
  7250.000000   1962099   1962651   1963119   1963648   1964359  
  7240.000000   1965346   1966629   1968190   1969971   1971931  
  7230.000000   1974035   1976282   1978665   1981169   1983734  
  7220.000000   1986285   1988718   1990975   1993027   1994932  
  7210.000000   1996782   1998707   2000799   2003111   2005619  
  7200.000000   2008253   2010922   2013566   2016166   2018764  
  7190.000000   2021421   2024204   2027137   2030205   2033340  
  7180.000000   2036474   2039542   2042530   2045452   2048359  
  7170.000000   2051282   2054248   2057235   2060214   2063140  
  7160.000000   2066003   2068806   2071600   2074432   2077369  
  7150.000000   2080463   2083770   2087327   2091183   2095357  
  7140.000000   2099860   2104644   2109644   2114743   2119841  
  7130.000000   2124832   2129676   2134352   2138910   2143397  
  7120.000000   2147894   2152447   2157115   2161922   2166904  
  7110.000000   2172073   2177443   2182993   2188691   2194476  
  7100.000000   2200295   2206105   2211908   2217725   2223605  
  7090.000000   2229570   2235618   2241694   2247727   2253639  
  7080.000000   2259402   2265031   2270603   2276203   2281908  
  7070.000000   2287738   2293661   2299606   2305504   2311321  
  7060.000000   2317076   2322832   2328670   2334644   2340762  
  7050.000000   2346970   2353172   2359262   2365159   2370832  
  7040.000000   2376308   2381661   2386989   2392391   2397942  
  7030.000000   2403679   2409585   2415602   2421631   2427570  
  7020.000000   2433333   2438888   2444252   2449504   2454734  
  7010.000000   2460032   2465425   2470892   2476344   2481685  
  7000.000000   2486825   2491735   2496427   2500965   2505401  
  6990.000000   2509778   2514083   2518284   2522327   2526187  
  6980.000000   2529866   2533411   2536875   2540323   2543775  
  6970.000000   2547244   2550704   2554144   2557545   2560918  
  6960.000000   2564257   2567570   2570827   2574004   2577057  
  6950.000000   2579974   2582746   2585402   2587969   2590476  
  6940.000000   2592921   2595287   2597527   2599610   2601505  
  6930.000000   2603225   2604798   2606288   2607753   2609259  
  6920.000000   2610844   2612537   2614329   2616205   2618117  
  6910.000000   2620021   2621860   2623593   2625187   2626625  
  6900.000000   2627901   2629017   2629974   2630780   2631452  
  6890.000000   2632025   2632553   2633111   2633771   2634593  
  6880.000000   2635592   2636740   2637963   2639170   2640271  
  6870.000000   2641215   2641995   2642653   2643257   2643885  
  6860.000000   2644593   2645410   2646330   2647321   2648338  
  6850.000000   2649336   2650281   2651156   2651954   2652681  
  6840.000000   2653346   2653965   2654547   2655105   2655650  
  6830.000000   2656201   2656773   2657388   2658053   2658769  
  6820.000000   2659509   2660236   2660898   2661455   2661884  
  6810.000000   2662193   2662412   2662587   2662751   2662920  
  6800.000000   2663077   2663190   2663222   2663159   2663004  
  6790.000000   2662793   2662562   2662352   2662178   2662046  
  6780.000000   2661950   2661891   2661877   2661918   2662011  
  6770.000000   2662127   2662209   2662183   2661988   2661602  
  6760.000000   2661057   2660434   2659837   2659358   2659044  
  6750.000000   2658884   2658826   2658801   2658756   2658680  
  6740.000000   2658592   2658538   2658554   2658652   2658814  
  6730.000000   2658998   2659162   2659272   2659320   2659310  
  6720.000000   2659253   2659155   2659015   2658830   2658600  
  6710.000000   2658339   2658067   2657811   2657584   2657394  
  6700.000000   2657229   2657085   2656952   2656840   2656755  
  6690.000000   2656704   2656672   2656635   2656549   2656373  
  6680.000000   2656071   2655625   2655025   2654273   2653363  
  6670.000000   2652299   2651090   2649775   2648413   2647094  
  6660.000000   2645895   2644876   2644035   2643327   2642659  
  6650.000000   2641948   2641127   2640192   2639175   2638143  
  6640.000000   2637149   2636216   2635325   2634426   2633462  
  6630.000000   2632397   2631223   2629966   2628661   2627341  
  6620.000000   2626017   2624680   2623307   2621883   2620404  
  6610.000000   2618885   2617354   2615844   2614375   2612955  
  6600.000000   2611579   2610232   2608896   2607556   2606203  
  6590.000000   2604837   2603464   2602103   2600777   2599506  
  6580.000000   2598301   2597152   2596029   2594889   2593685  
  6570.000000   2592382   2590971   2589472   2587923   2586373  
  6560.000000   2584862   2583416   2582044   2580746   2579513  
  6550.000000   2578336   2577203   2576096   2574987   2573845  
  6540.000000   2572641   2571359   2570010   2568618   2567223  
  6530.000000   2565854   2564524   2563224   2561935   2560640  
  6520.000000   2559339   2558055   2556828   2555697   2554684  
  6510.000000   2553778   2552946   2552136   2551299   2550403  
  6500.000000   2549444   2548437   2547409   2546387   2545395  
  6490.000000   2544448   2543556   2542728   2541967   2541269  
  6480.000000   2540616   2539973   2539299   2538548   2537683  
  6470.000000   2536686   2535555   2534306   2532968   2531578  
  6460.000000   2530181   2528826   2527561   2526430   2525460  
  6450.000000   2524647   2523960   2523343   2522731   2522065  
  6440.000000   2521317   2520487   2519609   2518727   2517892  
  6430.000000   2517133   2516472   2515905   2515428   2515022  
  6420.000000   2514667   2514331   2513980   2513572   2513080  
  6410.000000   2512494   2511839   2511162   2510533   2510011  
  6400.000000   2509633   2509398   2509275   2509213   2509160  
  6390.000000   2509082   2508967   2508824   2508671   2508528  
  6380.000000   2508404   2508305   2508230   2508182   2508161  
  6370.000000   2508170   2508199   2508230   2508233   2508175  
  6360.000000   2508026   2507775   2507422   2506987   2506494  
  6350.000000   2505968   2505426   2504878   2504326   2503774  
  6340.000000   2503220   2502675   2502145   2501647   2501190  
  6330.000000   2500787   2500436   2500132   2499849   2499559  
  6320.000000   2499224   2498813   2498306   2497705   2497018  
  6310.000000   2496266   2495460   2494604   2493685   2492697  
  6300.000000   2491632   2490512   2489370   2488256   2487204  
  6290.000000   2486230   2485310   2484399   2483431   2482356  
  6280.000000   2481141   2479789   2478323   2476787   2475221  
  6270.000000   2473661   2472133   2470660   2469259   2467943  
  6260.000000   2466707   2465529   2464361   2463144   2461817  
  6250.000000   2460349   2458738   2457023   2455264   2453526  
  6240.000000   2451853   2450261   2448739   2447263   2445805  
  6230.000000   2444353   2442907   2441472   2440052   2438638  
  6220.000000   2437214   2435761   2434267   2432735   2431182  
  6210.000000   2429639   2428134   2426689   2425314   2424006  
  6200.000000   2422751   2421532   2420331   2419125   2417900  
  6190.000000   2416640   2415341   2414011   2412667   2411334  
  6180.000000   2410040   2408801   2407625   2406507   2405436  
  6170.000000   2404400   2403393   2402410   2401446   2400491  
  6160.000000   2399530   2398544   2397522   2396457   2395359  
  6150.000000   2394243   2393126   2392016   2390907   2389787  
  6140.000000   2388642   2387468   2386276   2385089   2383930  
  6130.000000   2382817   2381751   2380717   2379697   2378675  
  6120.000000   2377649   2376628   2375627   2374658   2373724  
  6110.000000   2372814   2371914   2371012   2370111   2369217  
  6100.000000   2368351   2367523   2366743   2366007   2365315  
  6090.000000   2364665   2364071   2363547   2363112   2362766  
  6080.000000   2362501   2362285   2362092   2361892   2361686  
  6070.000000   2361482   2361308   2361180   2361117   2361110  
  6060.000000   2361158   2361246   2361385   2361586   2361882  
  6050.000000   2362291   2362838   2363519   2364340   2365282  
  6040.000000   2366350   2367534   2368839   2370246   2371743  
  6030.000000   2373292   2374874   2376465   2378076   2379722  
  6020.000000   2381441   2383248   2385156   2387140   2389174  
  6010.000000   2391216   2393246   2395249   2397244   2399241  
  6000.000000   2401270   2403337   2405460   2407643   2409910  
  5990.000000   2412274   2414766   2417388   2420142   2422998  
  5980.000000   2425930   2428903   2431914   2434968   2438101  
  5970.000000   2441339   2444712   2448213   2451827   2455512  
  5960.000000   2459243   2462987   2466741   2470497   2474262  
  5950.000000   2478026   2481791   2485549   2489315   2493112  
  5940.000000   2496982   2500964   2505088   2509359   2513758  
  5930.000000   2518247   2522777   2527307   2531795   2536215  
  5920.000000   2540534   2544720   2548736   2552553   2556154  
  5910.000000   2559547   2562759   2565837   2568822   2571758  
  5900.000000   2574661   2577550   2580427   2583310   2586207  
  5890.000000   2589145   2592128   2595163   2598224   2601289  
  5880.000000   2604316   2607276   2610140   2612891   2615516  
  5870.000000   2618008   2620363   2622582   2624680   2626683  
  5860.000000   2628626   2630549   2632483   2634453   2636471  
  5850.000000   2638546   2640687   2642903   2645204   2647593  
  5840.000000   2650059   2652573   2655101   2657610   2660085  
  5830.000000   2662529   2664971   2667442   2669972   2672568  
  5820.000000   2675217   2677889   2680547   2683164   2685718  
  5810.000000   2688211   2690636   2693006   2695310   2697562  
  5800.000000   2699755   2701917   2704048   2706176   2708275  
  5790.000000   2710331   2712266   2714018   2715480   2716583  
  5780.000000   2717238   2717408   2717046   2716160   2714766  
  5770.000000   2712936   2710757   2708363   2705876   2703428  
  5760.000000   2701093   2698925   2696915   2695048   2693282  
  5750.000000   2691603   2689996   2688472   2687034   2685689  
  5740.000000   2684429   2683237   2682099   2680996   2679925  
  5730.000000   2678873   2677844   2676825   2675819   2674816  
  5720.000000   2673825   2672851   2671909   2671001   2670131  
  5710.000000   2669293   2668486   2667712   2666989   2666339  
  5700.000000   2665785   2665333   2664965   2664647   2664328  
  5690.000000   2663974   2663564   2663113   2662644   2662191  
  5680.000000   2661756   2661330   2660861   2660300   2659588  
  5670.000000   2658689   2657576   2656244   2654680   2652884  
  5660.000000   2650853   2648608   2646189   2643673   2641144  
  5650.000000   2638693   2636381   2634238   2632247   2630378  
  5640.000000   2628582   2626831   2625107   2623411   2621752  
  5630.000000   2620135   2618567   2617047   2615585   2614190  
  5620.000000   2612883   2611667   2610542   2609480   2608451  
  5610.000000   2607416   2606355   2605264   2604165   2603082  
  5600.000000   2602038   2601039   2600075   2599128   2598185  
  5590.000000   2597246   2596327   2595453   2594638   2593885  
  5580.000000   2593172   2592467   2591734   2590948   2590101  
  5570.000000   2589197   2588249   2587267   2586254   2585211  
  5560.000000   2584132   2583021   2581884   2580733   2579575  
  5550.000000   2578417   2577255   2576089   2574918   2573749  
  5540.000000   2572593   2571461   2570356   2569273   2568199  
  5530.000000   2567122   2566035   2564945   2563865   2562808  
  5520.000000   2561784   2560789   2559811   2558834   2557841  
  5510.000000   2556825   2555783   2554718   2553627   2552512  
  5500.000000   2551369   2550207   2549037   2547880   2546749  
  5490.000000   2545645   2544542   2543401   2542173   2540823  
  5480.000000   2539338   2537741   2536067   2534370   2532682  
  5470.000000   2531018   2529366   2527705   2526011   2524274  
  5460.000000   2522492   2520671   2518811   2516907   2514947  
  5450.000000   2512926   2510854   2508761   2506690   2504687  
  5440.000000   2502787   2501001   2499327   2497747   2496245  
  5430.000000   2494806   2493417   2492054   2490693   2489298  
  5420.000000   2487851   2486348   2484833   2483365   2482029  
  5410.000000   2480879   2479942   2479180   2478543   2477957  
  5400.000000   2477390   2476825   2476299   2475844   2475506  
  5390.000000   2475294   2475214   2475244   2475393   2475667  
  5380.000000   2476112   2476749   2477609   2478663   2479886  
  5370.000000   2481209   2482605   2484033   2485518   2487060  
  5360.000000   2488713   2490476   2492398   2494472   2496766  
  5350.000000   2499299   2502170   2505404   2509080   2513171  
  5340.000000   2517702   2522602   2527893   2533522   2539547  
  5330.000000   2545935   2552747   2559931   2567527   2575475  
  5320.000000   2583843   2592609   2601897   2611716   2622198  
  5310.000000   2633321   2645168   2657666   2670870   2684707  
  5300.000000   2699259   2714496   2730539   2747383   2765149  
  5290.000000   2783798   2803376   2823753   2844876   2866554  
  5280.000000   2888725   2911268   2934243   2957673   2981717  
  5270.000000   3006430   3031872   3057934   3084459   3111201  
  5260.000000   3137966   3164628   3191180   3217701   3244277  
  5250.000000   3270960   3297668   3324255   3350455   3376085  
  5240.000000   3400950   3425062   3448426   3471216   3493491  
  5230.000000   3515381   3536821   3557792   3578104   3597693  
  5220.000000   3616405   3634289   3651325   3667687   3683420  
  5210.000000   3698690   3713463   3727778   3741469   3754498  
  5200.000000   3766697   3778106   3788672   3798540   3807718  
  5190.000000   3816337   3824345   3831793   3838573   3844719  
  5180.000000   3850158   3854975   3859142   3862757   3865774  
  5170.000000   3868255   3870134   3871473   3872240   3872533  
  5160.000000   3872351   3871788   3870813   3869476   3867716  
  5150.000000   3865572   3863012   3860104   3856848   3853312  
  5140.000000   3849481   3845390   3841009   3836374   3831482  
  5130.000000   3826402   3821160   3815823   3810401   3804922  
  5120.000000   3799369   3793754   3788068   3782339   3776580  
  5110.000000   3770820   3765064   3759319   3753577   3747841  
  5100.000000   3742116   3736424   3730788   3725236   3719781  
  5090.000000   3714424   3709153   3703952   3698801   3693690  
  5080.000000   3688606   3683544   3678496   3673453   3668405  
  5070.000000   3663344   3658260   3653152   3648005   3642815  
  5060.000000   3637560   3632233   3626814   3621304   3615694  
  5050.000000   3609993   3604194   3598300   3592296   3586181  
  5040.000000   3579951   3573627   3567233   3560809   3554389  
  5030.000000   3548003   3541662   3535367   3529108   3522876  
  5020.000000   3516668   3510485   3504343   3498250   3492226  
  5010.000000   3486278   3480427   3474677   3469060   3463579  
  5000.000000   3458266   3453117   3448152   3443352   3438734  
  4990.000000   3434283   3430032   3425977   3422166   3418593  
  4980.000000   3415295   3412250   3409485   3406969   3404742  
  4970.000000   3402791   3401171   3399880   3398972   3398427  
  4960.000000   3398283   3398496   3399095   3400031   3401337  
  4950.000000   3402969   3404960   3407266   3409923   3412889  
  4940.000000   3416210   3419854   3423875   3428243   3433000  
  4930.000000   3438100   3443570   3449361   3455504   3461970  
  4920.000000   3468807   3476000   3483593   3491555   3499901  
  4910.000000   3508582   3517593   3526888   3536462   3546278  
  4900.000000   3556325   3566561   3576954   3587454   3598015  
  4890.000000   3608595   3619143   3629628   3639990   3650195  
  4880.000000   3660170   3669881   3679255   3688274   3696871  
  4870.000000   3705040   3712711   3719880   3726479   3732521  
  4860.000000   3737967   3742869   3747226   3751118   3754557  
  4850.000000   3757620   3760308   3762688   3764756   3766577  
  4840.000000   3768158   3769563   3770802   3771933   3772965  
  4830.000000   3773948   3774899   3775861   3776853   3777899  
  4820.000000   3778999   3780148   3781325   3782516   3783713  
  4810.000000   3784918   3786151   3787431   3788786   3790225  
  4800.000000   3791760   3793385   3795100   3796903   3798796  
  4790.000000   3800779   3802852   3805004   3807220   3809477  
  4780.000000   3811758   3814047   3816334   3818610   3820863  
  4770.000000   3823076   3825220   3827272   3829209   3831026  
  4760.000000   3832727   3834335   3835868   3837353   3838793  
  4750.000000   3840192   3841529   3842796   3843970   3845049  
  4740.000000   3846026   3846911   3847705   3848426   3849076  
  4730.000000   3849667   3850203   3850689   3851126   3851515  
  4720.000000   3851854   3852144   3852392   3852607   3852809  
  4710.000000   3853015   3853254   3853543   3853909   3854366  
  4700.000000   3854937   3855638   3856496   3857524   3858744  
  4690.000000   3860162   3861781   3863584   3865555   3867653  
  4680.000000   3869845   3872075   3874306   3876484   3878584  
  4670.000000   3880573   3882459   3884245   3885978   3887692  
  4660.000000   3889454   3891312   3893326   3895535   3897978  
  4650.000000   3900667   3903605   3906772   3910138   3913657  
  4640.000000   3917287   3920984   3924719   3928474   3932241  
  4630.000000   3936015   3939783   3943530   3947220   3950820  
  4620.000000   3954279   3957564   3960627   3963447   3965985  
  4610.000000   3968235   3970174   3971818   3973175   3974296  
  4600.000000   3975216   3976008   3976703   3977356   3977963  
  4590.000000   3978540   3979046   3979470   3979762   3979905  
  4580.000000   3979857   3979608   3979128   3978425   3977491  
  4570.000000   3976358   3975045   3973604   3972062   3970464  
  4560.000000   3968816   3967136   3965409   3963636   3961805  
  4550.000000   3959929   3958014   3956085   3954156   3952239  
  4540.000000   3950337   3948444   3946556   3944663   3942771  
  4530.000000   3940882   3939020   3937196   3935444   3933770  
  4520.000000   3932210   3930757   3929447   3928264   3927250  
  4510.000000   3926394   3925763   3925366   3925303   3925602  
  4500.000000   3926375   3927633   3929465   3931841   3934818  
  4490.000000   3938346   3942488   3947213   3952614   3958680  
  4480.000000   3965504   3973051   3981368   3990370   4000055  
  4470.000000   4010312   4021126   4032393   4044111   4056194  
  4460.000000   4068643   4081379   4094393   4107605   4120999  
  4450.000000   4134508   4148122   4161802   4175552   4189361  
  4440.000000   4203239   4217188   4231205   4245285   4259397  
  4430.000000   4273521   4287591   4301578   4315393   4329007  
  4420.000000   4342329   4355345   4367973   4380212   4391980  
  4410.000000   4403265   4413964   4424043   4433393   4441992  
  4400.000000   4449778   4456798   4463072   4468727   4473847  
  4390.000000   4478589   4483046   4487359   4491595   4495861  
  4380.000000   4500191   4504654   4509252   4514015   4518923  
  4370.000000   4523982   4529167   4534475   4539884   4545391  
  4360.000000   4550967   4556606   4562267   4567949   4573599  
  4350.000000   4579226   4584759   4590211   4595494   4600619  
  4340.000000   4605496   4610121   4614370   4618149   4621216  
  4330.000000   4623316   4624079   4623196   4620397   4615629  
  4320.000000   4609033   4601024   4592160   4583118   4574496  
  4310.000000   4566787   4560249   4554973   4550855   4547729  
  4300.000000   4545382   4543634   4542354   4541436   4540832  
  4290.000000   4540473   4540351   4540420   4540707   4541207  
  4280.000000   4541966   4542996   4544309   4545889   4547690  
  4270.000000   4549660   4551704   4553722   4555547   4556987  
  4260.000000   4557782   4557676   4556421   4553873   4549998  
  4250.000000   4544937   4538949   4532415   4525709   4519208  
  4240.000000   4513151   4507705   4502873   4498605   4494760  
  4230.000000   4491209   4487810   4484460   4481085   4477634  
  4220.000000   4474102   4470482   4466826   4463165   4459592  
  4210.000000   4456165   4452984   4450099   4447575   4445416  
  4200.000000   4443630   4442165   4440989   4440023   4439232  
  4190.000000   4438548   4437971   4437463   4437060   4436748  
  4180.000000   4436580   4436546   4436700   4437033   4437606  
  4170.000000   4438419   4439550   4441012   4442885   4445178  
  4160.000000   4447954   4451196   4454945   4459157   4463861  
  4150.000000   4469001   4474602   4480602   4487029   4493825  
  4140.000000   4501027   4508591   4516574   4524945   4533767  
  4130.000000   4543004   4552706   4562826   4573403   4584393  
  4120.000000   4595839   4607715   4620073   4632892   4646216  
  4110.000000   4660016   4674314   4689062   4704255   4719821  
  4100.000000   4735727   4751884   4768242   4784724   4801294  
  4090.000000   4817915   4834579   4851284   4868034   4884842  
  4080.000000   4901701   4918626   4935585   4952573   4969514  
  4070.000000   4986366   5003002   5019356   5035293   5050779  
  4060.000000   5065721   5080139   5093970   5107254   5119921  
  4050.000000   5132017   5143477   5154383   5164699   5174526  
  4040.000000   5183807   5192596   5200771   5208338   5215161  
  4030.000000   5221276   5226607   5231248   5235173   5238473  
  4020.000000   5241081   5243069   5244410   5245164   5245255  
  4010.000000   5244784   5243796   5242277   5239982   5236970  
  4000.000000   5233599  
##END= 
