##TITLE= Sample 001 By ssteindl date Montag, November 19 2018
##JCAMP-DX= 4.24
##DATA TYPE= INFRARED SPECTRUM
##ORIGIN= Exported PE Spectrum Data File
##OWNER= Sandra Steindl
##DATE= 18/11/19
##TIME= 15:26:17.00
##SPECTROMETER/DATA SYSTEM= PERKIN-ELMER Frontier FT-IR/NIR IR
##INSTRUMENT PARAMETERS=
  APODIZATION=stark
  DETECTOR=INGAAS
##RESOLUTION= 16.000000
##DELTAX= -2.000000
##XUNITS= 1/CM
##YUNITS= A
##XFACTOR= 1.00
##YFACTOR= 0.00000000023841857910
##FIRSTX= 10000.00
##LASTX= 4000.00
##NPOINTS= 3001
##FIRSTY= -0.727571
##MAXY= -0.282918
##MINY= -0.744244
##XYDATA= (X++(Y..Y))
 10000.000000   01243313496   01246011096   01251035548   01260472031   01272514248  
  9990.000000   01283543515   01291732270   01297404458   01301242111   01303761110  
  9980.000000   01305709178   01307753201   01309778570   01311218294   01311644676  
  9970.000000   01311191141   01310308126   01309822000   01310430507   01312515890  
  9960.000000   01315763452   01319416167   01322411103   01323911210   01323525939  
  9950.000000   01321400250   01317966005   01313584877   01308319181   01301993419  
  9940.000000   01294485338   01286105580   01277693723   01270497906   01265670272  
  9930.000000   01263877884   01264940691   01267979322   01271655334   01274724622  
  9920.000000   01276348253   01276312123   01274924315   01272707341   01270166997  
  9910.000000   01267497582   01264749205   01261828346   01258836900   01255940353  
  9900.000000   01253389377   01251221749   01249226303   01247015423   01244236927  
  9890.000000   01240936705   01237604695   01235178762   01234632495   01236604788  
  9880.000000   01241082104   01247321269   01254121505   01260147855   01264368888  
  9870.000000   01266215082   01265658908   01263008273   01258808489   01253667229  
  9860.000000   01248307146   01243524484   01240148843   01238846096   01239847649  
  9850.000000   01242782043   01246687883   01250309365   01252557969   01252915470  
  9840.000000   01251646399   01249621892   01247928125   01247333414   01247986150  
  9830.000000   01249381650   01250738478   01251468196   01251597707   01251816870  
  9820.000000   01253170987   01256512297   01261984463   01268863333   01275759451  
  9810.000000   01281190287   01284098119   01284246687   01282169345   01278923897  
  9800.000000   01275620750   01273108028   01271788851   01271689722   01272602062  
  9790.000000   01274219630   01276158417   01277911904   01278778780   01277980422  
  9780.000000   01274846030   01269232808   01261701339   01253631485   01246784398  
  9770.000000   01242796889   01242480672   01245543356   01250679635   01256106078  
  9760.000000   01260233071   01262123802   01261667554   01259327522   01255792971  
  9750.000000   01251565379   01246855396   01241630788   01235958724   01230213165  
  9740.000000   01225187612   01221860845   01220995597   01222789551   01226641713  
  9730.000000   01231402246   01235708335   01238564011   01239602533   01239118759  
  9720.000000   01237792780   01236254945   01234855457   01233507370   01231955605  
  9710.000000   01229921488   01227439663   01224767311   01222352809   01220489334  
  9700.000000   01219202938   01218180039   01216991407   01215356557   01213391338  
  9690.000000   01211630800   01210856106   01211771237   01214696460   01219439266  
  9680.000000   01225366372   01231673013   01237698655   01243108939   01247943226  
  9670.000000   01252413187   01256685519   01260693419   01264086155   01266390850  
  9660.000000   01267204621   01266439990   01264431849   01261873472   01259625337  
  9650.000000   01258386945   01258427489   01259470775   01260745713   01261298825  
  9640.000000   01260283712   01257308287   01252566874   01246860662   01241388222  
  9630.000000   01237446046   01236028943   01237574358   01241784022   01247757421  
  9620.000000   01254204842   01259857507   01263793970   01265690653   01265857033  
  9610.000000   01265048931   01264180360   01263945920   01264617028   01265923227  
  9600.000000   01267217003   01267696083   01266739007   01264140732   01260196313  
  9590.000000   01255668749   01251486417   01248544580   01247318869   01247828136  
  9580.000000   01249548504   01251665922   01253307346   01253836281   01253044050  
  9570.000000   01251151164   01248690506   01246225561   01244152258   01242519418  
  9560.000000   01241124029   01239589400   01237650866   01235244958   01232612891  
  9550.000000   01230209474   01228509287   01227878789   01228378686   01229858667  
  9540.000000   01231988005   01234471241   01237103239   01239800370   01242496588  
  9530.000000   01245048987   01247153626   01248381840   01248291361   01246591817  
  9520.000000   01243327082   01238874864   01233925854   01229184755   01225206286  
  9510.000000   01222152112   01219816783   01217735465   01215395054   01212494875  
  9500.000000   01209031488   01205390556   01202173666   01200104187   01199771303  
  9490.000000   01201512565   01205279591   01210622378   01216774723   01222755187  
  9480.000000   01227613420   01230552795   01231170377   01229468086   01225933262  
  9470.000000   01221353206   01216696838   01212790649   01210179691   01208951814  
  9460.000000   01208835859   01209331705   01209932328   01210310701   01210347262  
  9450.000000   01210165473   01209974839   01210050745   01210604717   01211795037  
  9440.000000   01213691258   01216278497   01219461439   01223023654   01226656179  
  9430.000000   01229947128   01232495584   01233982307   01234290415   01233521231  
  9420.000000   01231960042   01229977853   01227899360   01225953993   01224217346  
  9410.000000   01222728747   01221492428   01220624467   01220243621   01220490842  
  9400.000000   01221339732   01222583917   01223826008   01224573182   01224437281  
  9390.000000   01223183166   01220863117   01217668224   01213919876   01209907360  
  9380.000000   01205899279   01202129672   01198866598   01196474847   01195392391  
  9370.000000   01196070742   01198751551   01203356316   01209336613   01215814131  
  9360.000000   01221742688   01226216034   01228719742   01229222284   01228191132  
  9350.000000   01226320956   01224334460   01222681148   01221459340   01220427859  
  9340.000000   01219175365   01217359380   01214871331   01211962449   01209097392  
  9330.000000   01206848644   01205570262   01205367261   01205971606   01206899808  
  9320.000000   01207582321   01207540839   01206608935   01204924574   01202931223  
  9310.000000   01201084138   01199657763   01198607673   01197627732   01196367949  
  9300.000000   01194639702   01192592296   01190698676   01189614590   01189930239  
  9290.000000   01191944828   01195487650   01199894922   01204129427   01207037073  
  9280.000000   01207744226   01205905706   01201905302   01196633589   01191274998  
  9270.000000   01186905012   01184259830   01183536969   01184385428   01186091674  
  9260.000000   01187858522   01189154050   01189832994   01190166691   01190610771  
  9250.000000   01191646441   01193539582   01196242611   01199382685   01202360405  
  9240.000000   01204599595   01205660615   01205418390   01204010259   01201817298  
  9230.000000   01199313590   01196939284   01195019562   01193683870   01192925396  
  9220.000000   01192602589   01192562990   01192655073   01192805213   01193002337  
  9210.000000   01193273411   01193675308   01194205323   01194835981   01195389253  
  9200.000000   01195644668   01195324097   01194263469   01192449321   01190091517  
  9190.000000   01187662361   01185815165   01185318902   01186768333   01190450632  
  9180.000000   01196144935   01203218499   01210708296   01217538300   01222718862  
  9170.000000   01225568224   01225864294   01223805736   01219935452   01214949357  
  9160.000000   01209618697   01204597120   01200377381   01197202749   01195099860  
  9150.000000   01193930692   01193401357   01193205023   01192997298   01192624438  
  9140.000000   01192066836   01191549459   01191388816   01191947406   01193486574  
  9130.000000   01196011325   01199243817   01202621089   01205508494   01207286257  
  9120.000000   01207566818   01206227857   01203521231   01199928422   01196096289  
  9110.000000   01192617516   01189958644   01188335074   01187714739   01187874287  
  9100.000000   01188480357   01189245565   01189977909   01190708399   01191619637  
  9090.000000   01193020309   01195162778   01198157259   01201869036   01205900926  
  9080.000000   01209686389   01212619570   01214266841   01214445949   01213289362  
  9070.000000   01211189192   01208671642   01206246681   01204221727   01202704010  
  9060.000000   01201582639   01200686489   01199814891   01198876511   01197848071  
  9050.000000   01196794195   01195756170   01194721937   01193604476   01192258421  
  9040.000000   01190573835   01188470436   01185990682   01183251821   01180476643  
  9030.000000   01177900623   01175748098   01174191176   01173381475   01173423339  
  9020.000000   01174403970   01176330022   01179117869   01182501621   01186047200  
  9010.000000   01189226257   01191563648   01192768880   01192855612   01192168978  
  9000.000000   01191351641   01191122057   01192046336   01194304465   01197612411  
  8990.000000   01201267813   01204373174   01206118363   01206073339   01204309029  
  8980.000000   01201367505   01198075390   01195246929   01193456392   01192849328  
  8970.000000   01193224779   01194160157   01195288404   01196410746   01197594514  
  8960.000000   01199011351   01200824398   01202980627   01205204882   01207062441  
  8950.000000   01208100798   01208051441   01206873907   01204805204   01202207100  
  8940.000000   01199437461   01196741218   01194202240   01191872545   01189823798  
  8930.000000   01188265538   01187459725   01187651207   01188889433   01190929608  
  8920.000000   01193232347   01195084423   01195854473   01195128772   01192918850  
  8910.000000   01189578610   01185799621   01182282302   01179622797   01178119526  
  8900.000000   01177837092   01178645102   01180320151   01182665475   01185509335  
  8890.000000   01188760223   01192292915   01196028623   01199860009   01203717238  
  8880.000000   01207509339   01211126078   01214422310   01217142352   01218987878  
  8870.000000   01219617823   01218824723   01216558356   01212999469   01208525835  
  8860.000000   01203628019   01198838662   01194570866   01191150432   01188723290  
  8850.000000   01187407355   01187200483   01188086200   01189894585   01192358841  
  8840.000000   01195069988   01197539551   01199320810   01200061072   01199677710  
  8830.000000   01198236590   01196013178   01193267034   01190287984   01187268882  
  8820.000000   01184398754   01181881830   01179989500   01179072425   01179438738  
  8810.000000   01181288173   01184548152   01188896520   01193783687   01198586845  
  8800.000000   01202754331   01205892506   01207846890   01208628719   01208415949  
  8790.000000   01207432371   01205957442   01204271105   01202673682   01201448496  
  8780.000000   01200823416   01200920277   01201704013   01202994377   01204484247  
  8770.000000   01205860177   01206844859   01207305968   01207214197   01206675434  
  8760.000000   01205854091   01204978245   01204295603   01204068297   01204522836  
  8750.000000   01205795117   01207841493   01210389323   01212949525   01214917307  
  8740.000000   01215760491   01215161967   01213167947   01210148664   01206729415  
  8730.000000   01203551443   01201098291   01199545798   01198787170   01198558615  
  8720.000000   01198617264   01198885732   01199464573   01200574439   01202383935  
  8710.000000   01204899215   01207887522   01210947033   01213647018   01215666710  
  8700.000000   01216918683   01217519642   01217745310   01217871017   01218093343  
  8690.000000   01218472314   01218960971   01219469050   01219906177   01220223567  
  8680.000000   01220387660   01220371255   01220127763   01219618161   01218846180  
  8670.000000   01217894988   01216926474   01216135225   01215666755   01215561813  
  8660.000000   01215719637   01215968803   01216138488   01216192861   01216258335  
  8650.000000   01216597317   01217488625   01219078019   01221297977   01223802581  
  8640.000000   01226097057   01227640466   01228087436   01227338377   01225619485  
  8630.000000   01223361802   01221112845   01219379168   01218525534   01218735898  
  8620.000000   01220003899   01222204608   01225118898   01228491782   01232032597  
  8610.000000   01235457794   01238510912   01241001381   01242830871   01243995801  
  8600.000000   01244591377   01244751214   01244635761   01244381801   01244116942  
  8590.000000   01243948045   01243960356   01244226857   01244769637   01245576459  
  8580.000000   01246543647   01247531300   01248347690   01248851643   01248960746  
  8570.000000   01248717298   01248252636   01247755792   01247413111   01247344364  
  8560.000000   01247590815   01248084296   01248690503   01249231056   01249538341  
  8550.000000   01249488589   01249024151   01248190979   01247134169   01246097998  
  8540.000000   01245368559   01245224155   01245849114   01247260125   01249273465  
  8530.000000   01251532220   01253610406   01255106676   01255773076   01255563956  
  8520.000000   01254668548   01253414973   01252177460   01251249467   01250798074  
  8510.000000   01250836466   01251280821   01252007157   01252922114   01253982178  
  8500.000000   01255172394   01256486655   01257873950   01259246723   01260481188  
  8490.000000   01261471301   01262186763   01262681163   01263105786   01263627107  
  8480.000000   01264380404   01265390487   01266554830   01267670134   01268507056  
  8470.000000   01268910140   01268873948   01268561942   01268251144   01268241858  
  8460.000000   01268724241   01269716402   01271031116   01272365461   01273422997  
  8450.000000   01274032721   01274229140   01274221849   01274300664   01274700308  
  8440.000000   01275466485   01276450299   01277347221   01277865544   01277857611  
  8430.000000   01277418924   01276871125   01276646884   01277098587   01278322743  
  8420.000000   01280074668   01281847793   01283063201   01283271855   01282332944  
  8410.000000   01280457466   01278153773   01276033705   01274596588   01274092819  
  8400.000000   01274473962   01275481338   01276762993   01278031127   01279130737  
  8390.000000   01280056067   01280866671   01281633912   01282365877   01283013187  
  8380.000000   01283493499   01283733817   01283733834   01283541323   01283252845  
  8370.000000   01282930804   01282581040   01282146922   01281543289   01280734059  
  8360.000000   01279758531   01278768766   01277963886   01277543389   01277602021  
  8350.000000   01278118438   01278937143   01279838511   01280598427   01281050133  
  8340.000000   01281139076   01280891135   01280414806   01279811513   01279165620  
  8330.000000   01278488436   01277750549   01276905095   01275949766   01274957978  
  8320.000000   01274088779   01273568685   01273619717   01274396365   01275894591  
  8310.000000   01277943700   01280227480   01282363329   01284017944   01284972243  
  8300.000000   01285204613   01284848980   01284162347   01283412358   01282796499  
  8290.000000   01282408404   01282224202   01282189334   01282242433   01282413722  
  8280.000000   01282776118   01283444501   01284454468   01285740362   01287091008  
  8270.000000   01288195276   01288717205   01288372435   01287037581   01284760209  
  8260.000000   01281784221   01278461431   01275194655   01272347249   01270193400  
  8250.000000   01268889680   01268460832   01268826161   01269811767   01271202505  
  8240.000000   01272755514   01274258746   01275539076   01276505077   01277144868  
  8230.000000   01277525622   01277773601   01278021473   01278381545   01278893926  
  8220.000000   01279526675   01280171361   01280671181   01280859236   01280598247  
  8210.000000   01279825131   01278565251   01276930631   01275083991   01273197820  
  8200.000000   01271410255   01269801436   01268388399   01267149501   01266052473  
  8190.000000   01265099556   01264327432   01263818008   01263641107   01263839729  
  8180.000000   01264382135   01265177109   01266090080   01266982070   01267746022  
  8170.000000   01268314176   01268657866   01268761329   01268609541   01268181596  
  8160.000000   01267470958   01266502662   01265354001   01264143625   01262998280  
  8150.000000   01262012110   01261187699   01260446892   01259629715   01258594502  
  8140.000000   01257259519   01255679461   01254019631   01252514925   01251374206  
  8130.000000   01250697281   01250433251   01250382214   01250275159   01249843422  
  8120.000000   01248934472   01247529863   01245784446   01243939943   01242280890  
  8110.000000   01241028159   01240301877   01240097631   01240307484   01240778203  
  8100.000000   01241353627   01241940878   01242513406   01243127410   01243865877  
  8090.000000   01244802659   01245935886   01247157931   01248266304   01248992037  
  8080.000000   01249098009   01248423768   01246968963   01244875115   01242410402  
  8070.000000   01239886878   01237583099   01235688898   01234268632   01233297101  
  8060.000000   01232682407   01232339484   01232198389   01232234358   01232430150  
  8050.000000   01232769915   01233210110   01233682838   01234112975   01234425070  
  8040.000000   01234581848   01234563052   01234393561   01234099278   01233726464  
  8030.000000   01233310696   01232892874   01232507869   01232181817   01231928632  
  8020.000000   01231735017   01231576233   01231411880   01231222369   01231004640  
  8010.000000   01230794182   01230635824   01230570354   01230603379   01230691298  
  8000.000000   01230756026   01230699202   01230446683   01229962779   01229263441  
  7990.000000   01228404667   01227456301   01226493968   01225579814   01224782609  
  7980.000000   01224170765   01223823058   01223796312   01224102186   01224670023  
  7970.000000   01225342824   01225903794   01226129559   01225867682   01225077864  
  7960.000000   01223861735   01222415684   01220982560   01219763483   01218878567  
  7950.000000   01218342097   01218093639   01218038973   01218095038   01218214058  
  7940.000000   01218377901   01218582125   01218810750   01219031633   01219205509  
  7930.000000   01219302940   01219328224   01219309148   01219298191   01219331379  
  7920.000000   01219426773   01219566246   01219714324   01219836890   01219910337  
  7910.000000   01219939943   01219934940   01219913323   01219875441   01219820589  
  7900.000000   01219747065   01219670904   01219616681   01219606655   01219627593  
  7890.000000   01219621431   01219482090   01219093420   01218375528   01217331593  
  7880.000000   01216071664   01214786275   01213690558   01212945891   01212594962  
  7870.000000   01212550587   01212619714   01212590842   01212312008   01211758311  
  7860.000000   01211043536   01210370116   01209953498   01209924896   01210283642  
  7850.000000   01210881657   01211483484   01211836254   01211773216   01211255488  
  7840.000000   01210402555   01209438576   01208629282   01208191104   01208223960  
  7830.000000   01208687285   01209416011   01210186152   01210787943   01211096383  
  7820.000000   01211099847   01210897719   01210644912   01210497033   01210541579  
  7810.000000   01210773845   01211101306   01211382282   01211485082   01211329890  
  7800.000000   01210912893   01210298166   01209580511   01208857350   01208191101  
  7790.000000   01207613258   01207125084   01206721019   01206394624   01206141810  
  7780.000000   01205947335   01205781111   01205592836   01205335469   01204979192  
  7770.000000   01204538400   01204066576   01203641998   01203334636   01203172874  
  7760.000000   01203134018   01203145547   01203120559   01202984125   01202702864  
  7750.000000   01202286368   01201773999   01201213009   01200638407   01200072455  
  7740.000000   01199531332   01199042135   01198645136   01198386928   01198294574  
  7730.000000   01198355015   01198502055   01198630716   01198629949   01198422553  
  7720.000000   01197997102   01197408513   01196756216   01196142876   01195632897  
  7710.000000   01195241762   01194931298   01194654346   01194368490   01194074915  
  7700.000000   01193801479   01193593414   01193478495   01193441461   01193424054  
  7690.000000   01193320734   01193025124   01192433344   01191500608   01190224579  
  7680.000000   01188682043   01186995459   01185340152   01183906337   01182873566  
  7670.000000   01182378335   01182478352   01183149108   01184279704   01185710838  
  7660.000000   01187265892   01188793118   01190186688   01191384712   01192362584  
  7650.000000   01193098787   01193581577   01193787091   01193720493   01193405935  
  7640.000000   01192919784   01192358802   01191829796   01191409466   01191123362  
  7630.000000   01190951447   01190833927   01190722990   01190586661   01190445629  
  7620.000000   01190339855   01190328763   01190450818   01190723093   01191131847  
  7610.000000   01191644993   01192217641   01192796366   01193318601   01193711836  
  7600.000000   01193905209   01193844825   01193523281   01192988459   01192349183  
  7590.000000   01191738391   01191278387   01191025209   01190954000   01190962688  
  7580.000000   01190920927   01190726954   01190350406   01189854686   01189363912  
  7570.000000   01189029402   01188963093   01189212892   01189748096   01190484654  
  7560.000000   01191324019   01192171065   01192958441   01193620863   01194104991  
  7550.000000   01194344430   01194294507   01193938943   01193329242   01192574660  
  7540.000000   01191833251   01191265774   01191001323   01191101506   01191557773  
  7530.000000   01192299273   01193231625   01194252432   01195284022   01196254261  
  7520.000000   01197110161   01197793425   01198269987   01198534520   01198644152  
  7510.000000   01198711575   01198899164   01199374892   01200277101   01201666947  
  7500.000000   01203508352   01205666820   01207935868   01210083255   01211899202  
  7490.000000   01213231590   01214021971   01214304107   01214217245   01213960944  
  7480.000000   01213763048   01213810080   01214204028   01214939332   01215913008  
  7470.000000   01216975671   01217987243   01218882490   01219688061   01220509350  
  7460.000000   01221464631   01222619300   01223943437   01225304689   01226535419  
  7450.000000   01227487887   01228127485   01228532031   01228886474   01229393616  
  7440.000000   01230207883   01231370797   01232814187   01234399085   01235989859  
  7430.000000   01237505120   01238941695   01240349947   01241788532   01243281809  
  7420.000000   01244802012   01246290743   01247698145   01249019739   01250304728  
  7410.000000   01251631991   01253059990   01254589364   01256142438   01257601124  
  7400.000000   01258850991   01259842621   01260609728   01261255636   01261904320  
  7390.000000   01262635901   01263453700   01264282713   01265015539   01265570164  
  7380.000000   01265932846   01266177449   01266432340   01266839620   01267499755  
  7370.000000   01268455218   01269691245   01271160330   01272802387   01274554748  
  7360.000000   01276346083   01278083835   01279657518   01280958222   01281928402  
  7350.000000   01282592876   01283081978   01283592052   01284322673   01285391735  
  7340.000000   01286777897   01288324305   01289795961   01290987200   01291803862  
  7330.000000   01292307053   01292674099   01293130735   01293838669   01294839283  
  7320.000000   01296021540   01297192493   01298157414   01298816673   01299203630  
  7310.000000   01299469132   01299808523   01300373040   01301197421   01302189140  
  7300.000000   01303167308   01303941168   01304388410   01304497646   01304369743  
  7290.000000   01304171759   01304073039   01304196573   01304588634   01305232601  
  7280.000000   01306068504   01307024189   01308031602   01309031788   01309971713  
  7270.000000   01310803838   01311489144   01312015448   01312404978   01312718566  
  7260.000000   01313040091   01313448227   01313994795   01314677102   01315448896  
  7250.000000   01316225235   01316925986   01317488152   01317894559   01318159334  
  7240.000000   01318324438   01318432639   01318525061   01318636395   01318813893  
  7230.000000   01319115031   01319619829   01320399117   01321507521   01322935723  
  7220.000000   01324616580   01326416285   01328182839   01329768425   01331087335  
  7210.000000   01332122452   01332955612   01333722270   01334598072   01335725369  
  7200.000000   01337194641   01339005680   01341082760   01343289820   01345475157  
  7190.000000   01347504748   01349308337   01350881294   01352302954   01353684164  
  7180.000000   01355152996   01356778025   01358563300   01360420356   01362218876  
  7170.000000   01363822409   01365167051   01366294213   01367374418   01368649715  
  7160.000000   01370369898   01372689385   01375623230   01379013541   01382586829  
  7150.000000   01386010680   01389014265   01391443461   01393335007   01394876662  
  7140.000000   01396376906   01398138370   01400393409   01403214366   01406534033  
  7130.000000   01410159407   01413864040   01417434430   01420741613   01423751686  
  7120.000000   01426534156   01429220732   01431969582   01434904206   01438098256  
  7110.000000   01441535531   01445150293   01448816265   01452419096   01455856349  
  7100.000000   01459090862   01462136520   01465064821   01467975747   01470979510  
  7090.000000   01474166948   01477601205   01481304401   01485269285   01489450059  
  7080.000000   01493777028   01498150812   01502468178   01506625592   01510556762  
  7070.000000   01514234508   01517697028   01521021187   01524314282   01527668088  
  7060.000000   01531144601   01534757041   01538483910   01542289645   01546146484  
  7050.000000   01550054169   01554025194   01558077338   01562195032   01566329564  
  7040.000000   01570394826   01574302157   01577990761   01581454534   01584746212  
  7030.000000   01587954427   01591165472   01594430827   01597743734   01601058374  
  7020.000000   01604307856   01607455546   01610501256   01613497848   01616507197  
  7010.000000   01619586484   01622740889   01625939284   01629109705   01632191297  
  7000.000000   01635141938   01637968796   01640701588   01643386887   01646050204  
  6990.000000   01648698568   01651309611   01653861279   01656331368   01658719953  
  6980.000000   01661026469   01663257305   01665400172   01667445921   01669383245  
  6970.000000   01671234489   01673043058   01674882651   01676808749   01678851089  
  6960.000000   01680971498   01683093630   01685107258   01686936730   01688552774  
  6950.000000   01690007601   01691392164   01692814792   01694334780   01695951436  
  6940.000000   01697588246   01699138849   01700498720   01701615739   01702495725  
  6930.000000   01703203528   01703823036   01704436667   01705088941   01705797986  
  6920.000000   01706550952   01707338097   01708148891   01708991821   01709870569  
  6910.000000   01710792719   01711744559   01712712451   01713670836   01714606724  
  6900.000000   01715508701   01716372788   01717190145   01717944316   01718610620  
  6890.000000   01719163081   01719582708   01719868378   01720037901   01720126928  
  6880.000000   01720180989   01720246682   01720366466   01720573333   01720885539  
  6870.000000   01721304304   01721806048   01722352325   01722892694   01723387942  
  6860.000000   01723821349   01724217866   01724638136   01725162381   01725854544  
  6850.000000   01726732913   01727753158   01728814529   01729790913   01730570783  
  6840.000000   01731096169   01731378197   01731486582   01731520135   01731566747  
  6830.000000   01731678661   01731861863   01732092532   01732336386   01732573209  
  6820.000000   01732797245   01733019232   01733241542   01733461848   01733657943  
  6810.000000   01733816456   01733931129   01734028030   01734145668   01734329128  
  6800.000000   01734597602   01734935830   01735291153   01735591480   01735772256  
  6790.000000   01735794718   01735658559   01735389092   01735023381   01734590752  
  6780.000000   01734107077   01733584675   01733043668   01732533271   01732122206  
  6770.000000   01731893916   01731905129   01732174314   01732654551   01733255619  
  6760.000000   01733856822   01734349234   01734656744   01734750656   01734645496  
  6750.000000   01734378642   01733995682   01733532933   01733017884   01732471657  
  6740.000000   01731914635   01731372136   01730866647   01730419499   01730035312  
  6730.000000   01729712094   01729431444   01729177520   01728929971   01728676833  
  6720.000000   01728405029   01728104074   01727762006   01727370307   01726928773  
  6710.000000   01726450008   01725959646   01725490736   01725071889   01724719174  
  6700.000000   01724424713   01724164512   01723898399   01723592812   01723222672  
  6690.000000   01722787348   01722301488   01721792988   01721287652   01720800757  
  6680.000000   01720329235   01719852325   01719335436   01718742773   01718044705  
  6670.000000   01717234915   01716328625   01715373884   01714431030   01713573197  
  6660.000000   01712852314   01712298652   01711896013   01711595664   01711317763  
  6650.000000   01710977761   01710503507   01709851955   01709015933   01708017525  
  6640.000000   01706897596   01705701473   01704468004   01703229602   01702010348  
  6630.000000   01700839195   01699744776   01698765567   01697928549   01697253109  
  6620.000000   01696723229   01696298893   01695905378   01695458007   01694876253  
  6610.000000   01694103798   01693127910   01691971308   01690694439   01689362783  
  6600.000000   01688037100   01686748940   01685503326   01684286822   01683085454  
  6590.000000   01681907616   01680786319   01679782097   01678953224   01678339083  
  6580.000000   01677931765   01677673592   01677470082   01677210271   01676807041  
  6570.000000   01676206818   01675411394   01674455670   01673401189   01672307268  
  6560.000000   01671227089   01670200619   01669264319   01668452206   01667796184  
  6550.000000   01667313380   01666993340   01666788754   01666619361   01666390291  
  6540.000000   01666019983   01665464785   01664735703   01663890037   01663016669  
  6530.000000   01662201378   01661509525   01660966214   01660564528   01660271175  
  6520.000000   01660044974   01659843952   01659630804   01659373080   01659042450  
  6510.000000   01658621422   01658107778   01657523635   01656912651   01656331463  
  6500.000000   01655832527   01655444549   01655164150   01654953694   01654757981  
  6490.000000   01654519837   01654199764   01653781439   01653271087   01652686558  
  6480.000000   01652049571   01651380300   01650701235   01650041641   01649439797  
  6470.000000   01648938369   01648569831   01648345490   01648242564   01648212331  
  6460.000000   01648188388   01648112837   01647948394   01647689607   01647355233  
  6450.000000   01646973264   01646568136   01646146009   01645702867   01645224779  
  6440.000000   01644706965   01644152053   01643574582   01642989983   01642408788  
  6430.000000   01641835085   01641269194   01640720178   01640209603   01639774426  
  6420.000000   01639453860   01639274240   01639232605   01639290624   01639383596  
  6410.000000   01639437695   01639396525   01639233908   01638963816   01638625063  
  6400.000000   01638268907   01637934492   01637641422   01637385490   01637149401  
  6390.000000   01636913867   01636667905   01636412868   01636157993   01635915820  
  6380.000000   01635692016   01635485700   01635285968   01635079392   01634852567  
  6370.000000   01634597514   01634313530   01634006741   01633688301   01633372244  
  6360.000000   01633070277   01632791443   01632536726   01632302140   01632077799  
  6350.000000   01631853692   01631621469   01631378025   01631123071   01630857929  
  6340.000000   01630579725   01630281989   01629954101   01629589223   01629187087  
  6330.000000   01628761301   01628332669   01627928892   01627567597   01627256946  
  6320.000000   01626983106   01626725045   01626452287   01626146120   01625792691  
  6310.000000   01625394857   01624954349   01624476270   01623954219   01623381090  
  6300.000000   01622746072   01622048107   01621291305   01620488854   01619649657  
  6290.000000   01618780113   01617873716   01616925697   01615929588   01614898589  
  6280.000000   01613853873   01612834458   01611871380   01610989006   01610185051  
  6270.000000   01609441284   01608721896   01607991961   01607218966   01606383146  
  6260.000000   01605469638   01604472375   01603386764   01602219137   01600986094  
  6250.000000   01599723640   01598478661   01597301712   01596225482   01595253638  
  6240.000000   01594351884   01593460477   01592509862   01591448167   01590254146  
  6230.000000   01588947834   01587577358   01586205401   01584885685   01583654143  
  6220.000000   01582522913   01581487150   01580529892   01579629883   01578762054  
  6210.000000   01577897656   01577003972   01576048793   01575010478   01573884191  
  6200.000000   01572689232   01571460990   01570244194   01569072633   01567962649  
  6190.000000   01566907643   01565889426   01564890527   01563905370   01562945743  
  6180.000000   01562031641   01561181903   01560398131   01559662521   01558940847  
  6170.000000   01558195845   01557401950   01556551623   01555657704   01554740231  
  6160.000000   01553818767   01552898847   01551975458   01551034993   01550069537  
  6150.000000   01549080619   01548083738   01547100181   01546149368   01545240848  
  6140.000000   01544372197   01543534272   01542719155   01541926046   01541165282  
  6130.000000   01540449340   01539790151   01539183914   01538615642   01538054360  
  6120.000000   01537470505   01536838075   01536152432   01535423463   01534683226  
  6110.000000   01533967020   01533315077   01532751995   01532291651   01531923975  
  6100.000000   01531628108   01531367534   01531110343   01530827397   01530511770  
  6090.000000   01530170246   01529832223   01529530235   01529300022   01529158928  
  6080.000000   01529111252   01529138187   01529216028   01529315171   01529419504  
  6070.000000   01529519663   01529622298   01529733141   01529862112   01530006027  
  6060.000000   01530161616   01530314404   01530458603   01530586082   01530703408  
  6050.000000   01530816867   01530944477   01531100463   01531305483   01531573463  
  6040.000000   01531920965   01532353706   01532874676   01533471090   01534126711  
  6030.000000   01534813792   01535511799   01536201070   01536880413   01537553997  
  6020.000000   01538241035   01538955713   01539713139   01540513265   01541351755  
  6010.000000   01542213784   01543088435   01543965599   01544845819   01545732562  
  6000.000000   01546634945   01547557115   01548499737   01549452864   01550402651  
  5990.000000   01551329351   01552219344   01553063468   01553867826   01554646138  
  5980.000000   01555423266   01556221726   01557061290   01557947408   01558876744  
  5970.000000   01559834289   01560806750   01561783075   01562764507   01563758515  
  5960.000000   01564779379   01565836897   01566936958   01568074368   01569242543  
  5950.000000   01570430889   01571636585   01572856882   01574093397   01575340225  
  5940.000000   01576587755   01577818166   01579017309   01580177403   01581307547  
  5930.000000   01582429013   01583571223   01584757157   01585994753   01587271339  
  5920.000000   01588559557   01589827653   01591053704   01592232645   01593378008  
  5910.000000   01594511458   01595653028   01596808888   01597971923   01599124602  
  5900.000000   01600251895   01601348093   01602422412   01603494479   01604586586  
  5890.000000   01605715065   01606884369   01608089694   01609320406   01610567537  
  5880.000000   01611825025   01613088658   01614352813   01615605062   01616830197  
  5870.000000   01618010527   01619138481   01620214690   01621255218   01622277513  
  5860.000000   01623301791   01624334283   01625377936   01626426162   01627482901  
  5850.000000   01628557105   01629672444   01630851747   01632114075   01633462117  
  5840.000000   01634884579   01636361971   01637877697   01639429236   01641027746  
  5830.000000   01642694113   01644442028   01646267732   01648139981   01650006822  
  5820.000000   01651804844   01653479363   01654992332   01656333938   01657510619  
  5810.000000   01658548256   01659469196   01660305545   01661076282   01661814818  
  5800.000000   01662538367   01663276865   01664029100   01664795410   01665536898  
  5790.000000   01666222121   01666798126   01667241031   01667526342   01667661766  
  5780.000000   01667649322   01667502700   01667217789   01666793877   01666222813  
  5770.000000   01665514329   01664687970   01663785469   01662850716   01661930032  
  5760.000000   01661051879   01660234190   01659477676   01658782535   01658147274  
  5750.000000   01657578254   01657083869   01656671736   01656345830   01656101537  
  5740.000000   01655933698   01655830520   01655785776   01655784678   01655816696  
  5730.000000   01655857962   01655891510   01655894726   01655864691   01655805077  
  5720.000000   01655741680   01655699846   01655707994   01655776164   01655904224  
  5710.000000   01656076315   01656277944   01656498037   01656738697   01657007876  
  5700.000000   01657316026   01657664571   01658045260   01658439891   01658828662  
  5690.000000   01659197240   01659539965   01659860588   01660164502   01660457076  
  5680.000000   01660737558   01661005100   01661257469   01661498181   01661728785  
  5670.000000   01661948918   01662144187   01662290824   01662354883   01662311342  
  5660.000000   01662149875   01661891333   01661576462   01661262380   01660994930  
  5650.000000   01660802026   01660679004   01660602324   01660535385   01660450665  
  5640.000000   01660330833   01660175222   01659986796   01659769433   01659521511  
  5630.000000   01659241900   01658935853   01658620475   01658322100   01658066911  
  5620.000000   01657867605   01657716294   01657584770   01657438961   01657253209  
  5610.000000   01657026479   01656780659   01656552279   01656371099   01656244623  
  5600.000000   01656152058   01656052672   01655905224   01655686459   01655400289  
  5590.000000   01655074681   01654743801   01654434551   01654152092   01653888122  
  5580.000000   01653626478   01653363411   01653106262   01652874757   01652680262  
  5570.000000   01652517777   01652356208   01652151132   01651859361   01651460059  
  5560.000000   01650961999   01650399547   01649816075   01649244483   01648696257  
  5550.000000   01648163137   01647629075   01647088551   01646552176   01646047214  
  5540.000000   01645600440   01645224844   01644911425   01644633263   01644361445  
  5530.000000   01644077992   01643782609   01643486541   01643197288   01642908034  
  5520.000000   01642596070   01642236759   01641824919   01641388474   01640987231  
  5510.000000   01640688413   01640532275   01640504288   01640525863   01640480136  
  5500.000000   01640250112   01639773975   01639068196   01638233677   01637410695  
  5490.000000   01636729916   01636258325   01635984015   01635827020   01635679105  
  5480.000000   01635439659   01635047793   01634482044   01633758286   01632904048  
  5470.000000   01631961953   01630977081   01630017004   01629152195   01628454846  
  5460.000000   01627957819   01627641298   01627421228   01627170616   01626761180  
  5450.000000   01626105354   01625186383   01624057764   01622806824   01621514872  
  5440.000000   01620219222   01618916470   01617596941   01616284595   01615070628  
  5430.000000   01614089118   01613465007   01613236126   01613308211   01613461289  
  5420.000000   01613421613   01612954934   01611978778   01610597210   01609095383  
  5410.000000   01607814174   01607029813   01606828070   01607101266   01607594093  
  5400.000000   01608040055   01608240556   01608156512   01607872902   01607568659  
  5390.000000   01607393606   01607423688   01607614290   01607868606   01608079111  
  5380.000000   01608221984   01608349896   01608599916   01609105731   01609960764  
  5370.000000   01611160696   01612631171   01614243543   01615890048   01617481283  
  5360.000000   01618998011   01620423559   01621783088   01623060904   01624274649  
  5350.000000   01625413391   01626535047   01627690802   01628997742   01630527958  
  5340.000000   01632367063   01634517222   01636989969   01639744818   01642800351  
  5330.000000   01646154975   01649874341   01653968189   01658472293   01663322787  
  5320.000000   01668479313   01673824322   01679323779   01684914983   01690662847  
  5310.000000   01696600634   01702865847   01709512961   01716648093   01724260250  
  5300.000000   01732371630   01740904091   01749837671   01759091282   01768673792  
  5290.000000   01778559770   01788819712   01799481949   01810630878   01822271644  
  5280.000000   01834417917   01846987986   01859909533   01873053354   01886349389  
  5270.000000   01899728996   01913206064   01926806399   01940586004   01954567059  
  5260.000000   01968722997   01982973036   01997185676   02011233891   02025002920  
  5250.000000   02038456338   02051594917   02064499420   02077214973   02089804961  
  5240.000000   02102213061   02114388979   02126177560   02137502877  -02146703040  
  5230.000000  -02136458011  -02126683192  -02117216583  -02107984570  -02098893999  
  5220.000000  -02090016994  -02081417044  -02073275473  -02065676750  -02058727474  
  5210.000000  -02052373087  -02046564451  -02041131109  -02035989532  -02031020323  
  5200.000000  -02026251814  -02021688433  -02017448307  -02013572415  -02010155281  
  5190.000000  -02007178614  -02004660435  -02002516229  -02000720381  -01999176725  
  5180.000000  -01997872996  -01996750892  -01995840526  -01995131262  -01994684738  
  5170.000000  -01994509057  -01994660071  -01995123241  -01995916597  -01996986267  
  5160.000000  -01998315190  -01999832849  -02001519998  -02003324308  -02005249449  
  5150.000000  -02007271339  -02009412493  -02011662817  -02014046381  -02016551508  
  5140.000000  -02019192496  -02021950432  -02024828667  -02027804135  -02030874463  
  5130.000000  -02034018024  -02037231170  -02040493913  -02043799159  -02047123722  
  5120.000000  -02050455420  -02053769884  -02057057621  -02060304282  -02063513388  
  5110.000000  -02066686070  -02069835507  -02072967921  -02076092759  -02079210771  
  5100.000000  -02082324325  -02085432114  -02088537604  -02091644663  -02094761260  
  5090.000000  -02097892746  -02101043393  -02104210342  -02107388571  -02110567010  
  5080.000000  -02113737082  -02116888341  -02120017812  -02123123103  -02126210777  
  5070.000000  -02129287471  -02132366720  -02135459171  -02138577602  -02141727605  
  5060.000000  -02144912169   02146841635   02143607182   02140363545   02137119904  
  5050.000000   02133882987   02130654616   02127433823   02124218413   02121007364  
  5040.000000   02117802249   02114606971   02111427830   02108270996   02105144250  
  5030.000000   02102053101   02099005983   02096006802   02093062829   02090172116  
  5020.000000   02087335559   02084541557   02081785333   02079051989   02076342204  
  5010.000000   02073649983   02070990740   02068370429   02065814996   02063332995  
  5000.000000   02060949507   02058666366   02056502801   02054453718   02052536022  
  4990.000000   02050742572   02049092335   02047578551   02046222184   02045014623  
  4980.000000   02043975355   02043090440   02042376175   02041814642   02041423417  
  4970.000000   02041187607   02041131773   02041246543   02041559505   02042058072  
  4960.000000   02042761913   02043647450   02044725275   02045967930   02047388624  
  4950.000000   02048967823   02050726756   02052651025   02054760196   02057033749  
  4940.000000   02059483014   02062082705   02064844084   02067747193   02070808180  
  4930.000000   02074009572   02077361928   02080839115   02084440669   02088137487  
  4920.000000   02091933547   02095815887   02099806346   02103908687   02108148515  
  4910.000000   02112522671   02117036479   02121665316   02126393878   02131189400  
  4900.000000   02136035970   02140911878   02145812528  -02144237230  -02139300082  
  4890.000000  -02134344326  -02129366119  -02124364632  -02119340040  -02114297011  
  4880.000000  -02109249164  -02104215280  -02099225252  -02094305045  -02089483470  
  4870.000000  -02084770653  -02080173398  -02075675663  -02071266891  -02066923475  
  4860.000000  -02062642563  -02058415139  -02054256344  -02050167825  -02046167544  
  4850.000000  -02042250142  -02038424454  -02034677610  -02031018715  -02027441787  
  4840.000000  -02023966149  -02020593736  -02017343583  -02014208937  -02011193210  
  4830.000000  -02008274570  -02005447541  -02002691517  -02000011380  -01997400988  
  4820.000000  -01994877052  -01992437735  -01990093922  -01987831951  -01985649035  
  4810.000000  -01983523884  -01981453837  -01979427100  -01977453791  -01975535131  
  4800.000000  -01973686949  -01971909599  -01970209630  -01968576124  -01967004635  
  4790.000000  -01965478355  -01963992192  -01962533431  -01961103437  -01959695182  
  4780.000000  -01958313577  -01956951798  -01955613737  -01954290701  -01952986572  
  4770.000000  -01951694424  -01950422563  -01949170242  -01947952656  -01946775952  
  4760.000000  -01945661069  -01944617696  -01943667793  -01942818155  -01942084840  
  4750.000000  -01941464037  -01940959042  -01940551601  -01940233922  -01939980989  
  4740.000000  -01939786524  -01939634429  -01939534073  -01939486896  -01939515882  
  4730.000000  -01939629336  -01939846637  -01940165377  -01940588350  -01941099355  
  4720.000000  -01941692373  -01942351285  -01943074163  -01943851139  -01944681971  
  4710.000000  -01945553157  -01946454685  -01947362935  -01948262781  -01949134926  
  4700.000000  -01949978147  -01950792957  -01951597086  -01952403599  -01953231157  
  4690.000000  -01954085039  -01954968967  -01955875624  -01956799963  -01957736195  
  4680.000000  -01958686225  -01959656799  -01960659947  -01961709634  -01962817438  
  4670.000000  -01963990900  -01965228350  -01966520248  -01967845971  -01969178746  
  4660.000000  -01970485863  -01971737174  -01972907105  -01973983022  -01974962930  
  4650.000000  -01975858317  -01976684685  -01977460958  -01978198837  -01978906512  
  4640.000000  -01979582574  -01980225945  -01980832001  -01981403024  -01981941460  
  4630.000000  -01982456479  -01982954935  -01983446110  -01983934675  -01984426460  
  4620.000000  -01984923820  -01985431532  -01985952025  -01986490875  -01987051266  
  4610.000000  -01987639976  -01988261020  -01988921114  -01989621828  -01990362320  
  4600.000000  -01991132262  -01991913783  -01992681035  -01993404565  -01994057941  
  4590.000000  -01994621796  -01995089843  -01995467070  -01995769914  -01996019903  
  4580.000000  -01996241760  -01996458967  -01996693570  -01996964678  -01997287232  
  4570.000000  -01997670991  -01998117030  -01998618391  -01999159062  -01999719999  
  4560.000000  -02000283392  -02000839430  -02001388683  -02001940975  -02002510667  
  4550.000000  -02003109644  -02003741328  -02004400013  -02005070036  -02005736107  
  4540.000000  -02006380984  -02006999988  -02007586668  -02008148203  -02008679176  
  4530.000000  -02009184514  -02009648011  -02010067854  -02010419667  -02010701380  
  4520.000000  -02010885192  -02010970103  -02010922089  -02010738516  -02010379261  
  4510.000000  -02009844875  -02009097897  -02008149223  -02006967136  -02005567449  
  4500.000000  -02003914022  -02002015005  -01999821876  -01997333722  -01994497097  
  4490.000000  -01991314442  -01987742935  -01983801790  -01979469400  -01974786667  
  4480.000000  -01969753434  -01964425856  -01958814700  -01952976025  -01946916967  
  4470.000000  -01940680571  -01934264314  -01927698072  -01920975808  -01914122685  
  4460.000000  -01907138093  -01900048561  -01892863234  -01885612508  -01878317879  
  4450.000000  -01871015560  -01863738019  -01856520824  -01849394011  -01842375029  
  4440.000000  -01835475413  -01828685217  -01822001149  -01815400402  -01808887079  
  4430.000000  -01802445531  -01796097946  -01789833798  -01783680868  -01777620389  
  4420.000000  -01771678868  -01765837426  -01760140183  -01754594307  -01749278844  
  4410.000000  -01744230195  -01739542331  -01735246683  -01731410642  -01728028052  
  4400.000000  -01725122775  -01722655450  -01720625058  -01718984270  -01717725895  
  4390.000000  -01716802662  -01716197059  -01715852954  -01715735508  -01715780232  
  4380.000000  -01715942749  -01716160461  -01716386486  -01716560716  -01716629519  
  4370.000000  -01716532331  -01716212352  -01715621999  -01714721714  -01713496605  
  4360.000000  -01711938908  -01710067653  -01707902197  -01705482203  -01702844491  
  4350.000000  -01700038390  -01697108604  -01694099409  -01691041950  -01687952817  
  4340.000000  -01684833099  -01681676690  -01678486452  -01675290323  -01672157500  
  4330.000000  -01669196423  -01666546624  -01664343803  -01662694620  -01661633896  
  4320.000000  -01661123970  -01661040200  -01661219744  -01661469480  -01661637781  
  4310.000000  -01661602834  -01661326788  -01660803779  -01660090019  -01659234747  
  4300.000000  -01658307494  -01657345180  -01656387018  -01655447259  -01654545503  
  4290.000000  -01653694368  -01652912211  -01652215732  -01651619489  -01651127918  
  4280.000000  -01650737286  -01650422721  -01650156639  -01649888155  -01649581829  
  4270.000000  -01649191121  -01648709311  -01648137170  -01647528113  -01646946996  
  4260.000000  -01646496185  -01646268495  -01646357217  -01646815537  -01647666132  
  4250.000000  -01648879234  -01650394752  -01652117286  -01653949063  -01655786651  
  4240.000000  -01657554442  -01659190422  -01660672267  -01661989700  -01663162277  
  4230.000000  -01664209051  -01665163626  -01666053833  -01666912631  -01667770521  
  4220.000000  -01668653915  -01669587608  -01670578081  -01671626353  -01672706145  
  4210.000000  -01673790302  -01674834016  -01675807778  -01676681418  -01677450720  
  4200.000000  -01678114340  -01678691275  -01679191573  -01679636410  -01680028391  
  4190.000000  -01680383167  -01680695430  -01680979743  -01681224585  -01681439841  
  4180.000000  -01681600031  -01681702187  -01681704851  -01681596838  -01681332018  
  4170.000000  -01680902035  -01680263363  -01679411401  -01678302610  -01676935335  
  4160.000000  -01675270467  -01673320409  -01671063115  -01668532092  -01665718693  
  4150.000000  -01662662185  -01659347029  -01655799770  -01651988845  -01647929921  
  4140.000000  -01643586570  -01638977508  -01634073866  -01628903491  -01623447757  
  4130.000000  -01617743284  -01611782536  -01605609600  -01599223560  -01592664417  
  4120.000000  -01585921338  -01579011646  -01571901966  -01564587675  -01557029991  
  4110.000000  -01549231964  -01541180899  -01532910127  -01524439024  -01515818024  
  4100.000000  -01507072613  -01498241486  -01489335062  -01480371148  -01471346694  
  4090.000000  -01462266990  -01453125967  -01443923573  -01434655549  -01425318864  
  4080.000000  -01415916804  -01406451367  -01396942242  -01387401460  -01377861981  
  4070.000000  -01368334834  -01358849651  -01349401092  -01340009016  -01330660067  
  4060.000000  -01321387199  -01312197593  -01303158136  -01294297486  -01285693962  
  4050.000000  -01277356900  -01269333564  -01261587651  -01254138739  -01246938343  
  4040.000000  -01240026970  -01233387641  -01227099662  -01221164903  -01215664862  
  4030.000000  -01210581379  -01205973594  -01201808412  -01198137773  -01194940511  
  4020.000000  -01192287895  -01190151337  -01188551737  -01187436002  -01186828914  
  4010.000000  -01186642090  -01186831636  -01187374642  -01188388237  -01189811942  
  4000.000000  -01191439447  
##END= 
