##TITLE= Sample 039 By ssteindl date Dienstag, November 20 2018
##JCAMP-DX= 4.24
##DATA TYPE= INFRARED SPECTRUM
##ORIGIN= Exported PE Spectrum Data File
##OWNER= Sandra Steindl
##DATE= 18/11/20
##TIME= 15:30:51.00
##SPECTROMETER/DATA SYSTEM= PERKIN-ELMER Frontier FT-IR/NIR IR
##INSTRUMENT PARAMETERS=
  APODIZATION=stark
  DETECTOR=INGAAS
##RESOLUTION= 16.000000
##DELTAX= -2.000000
##XUNITS= 1/CM
##YUNITS= A
##XFACTOR= 1.00
##YFACTOR= 0.00000011920928955078
##FIRSTX= 10000.00
##LASTX= 4000.00
##NPOINTS= 3001
##FIRSTY= 0.184340
##MAXY= 0.596728
##MINY= 0.157648
##XYDATA= (X++(Y..Y))
 10000.000000   1546356   1542311   1538443   1535544   1534633  
  9990.000000   1536049   1538974   1541784   1543070   1541927  
  9980.000000   1538062   1531576   1523033   1513196   1502950  
  9970.000000   1493234   1485084   1479511   1477242   1478528  
  9960.000000   1482954   1489493   1496702   1503111   1507610  
  9950.000000   1509669   1509439   1507482   1504604   1501460  
  9940.000000   1498532   1496006   1493951   1492386   1491365  
  9930.000000   1491003   1491349   1492403   1493938   1495647  
  9920.000000   1497085   1497879   1497769   1496666   1494711  
  9910.000000   1492127   1489256   1486320   1483468   1480642  
  9900.000000   1477709   1474504   1470997   1467400   1464158  
  9890.000000   1461941   1461385   1462968   1466746   1472360  
  9880.000000   1479079   1485989   1492242   1497166   1500397  
  9870.000000   1501786   1501393   1499373   1496007   1491699  
  9860.000000   1487005   1482612   1479173   1477213   1476847  
  9850.000000   1477842   1479549   1481214   1482142   1481933  
  9840.000000   1480560   1478236   1475312   1471993   1468351  
  9830.000000   1464279   1459715   1454775   1449891   1445778  
  9820.000000   1443271   1443107   1445655   1450801   1457883  
  9810.000000   1465834   1473391   1479367   1482958   1483876  
  9800.000000   1482459   1479503   1476076   1473200   1471574  
  9790.000000   1471423   1472439   1473980   1475265   1475719  
  9780.000000   1475071   1473454   1471204   1468706   1466163  
  9770.000000   1463534   1460578   1457014   1452723   1447864  
  9760.000000   1442896   1438463   1435204   1433575   1433707  
  9750.000000   1435401   1438169   1441356   1444281   1446328  
  9740.000000   1447119   1446533   1444805   1442439   1440103  
  9730.000000   1438435   1437851   1438420   1439887   1441764  
  9720.000000   1443589   1445039   1446064   1446755   1447214  
  9710.000000   1447369   1446930   1445523   1442916   1439310  
  9700.000000   1435406   1432354   1431320   1433134   1437828  
  9690.000000   1444640   1452179   1458888   1463536   1465447  
  9680.000000   1464654   1461600   1456983   1451388   1445271  
  9670.000000   1438950   1432786   1427311   1423197   1421192  
  9660.000000   1421775   1425078   1430646   1437688   1445126  
  9650.000000   1451975   1457422   1460953   1462351   1461616  
  9640.000000   1459012   1454947   1450032   1444906   1440160  
  9630.000000   1436151   1432903   1430128   1427330   1424098  
  9620.000000   1420254   1416046   1411988   1408721   1406664  
  9610.000000   1405879   1406003   1406447   1406635   1406261  
  9600.000000   1405391   1404384   1403711   1403670   1404280  
  9590.000000   1405182   1405859   1405709   1404377   1401706  
  9580.000000   1397889   1393260   1388296   1383487   1379329  
  9570.000000   1376308   1374846   1375271   1377708   1382046  
  9560.000000   1387904   1394694   1401700   1408200   1413576  
  9550.000000   1417390   1419459   1419848   1418868   1417007  
  9540.000000   1414863   1413027   1411958   1411878   1412690  
  9530.000000   1414025   1415302   1415946   1415478   1413701  
  9520.000000   1410663   1406691   1402260   1397946   1394303  
  9510.000000   1391790   1390679   1391006   1392535   1394791  
  9500.000000   1397136   1398934   1399717   1399324   1397959  
  9490.000000   1396072   1394231   1392838   1392068   1391756  
  9480.000000   1391593   1391231   1390499   1389472   1388407  
  9470.000000   1387673   1387532   1388136   1389446   1391383  
  9460.000000   1393834   1396719   1399907   1403143   1406010  
  9450.000000   1407956   1408451   1407139   1404022   1399472  
  9440.000000   1394159   1388848   1384170   1380489   1377838  
  9430.000000   1376072   1374954   1374346   1374181   1374470  
  9420.000000   1375169   1376120   1377037   1377573   1377457  
  9410.000000   1376572   1375036   1373106   1371124   1369361  
  9400.000000   1368011   1367145   1366794   1366927   1367486  
  9390.000000   1368306   1369135   1369622   1369453   1368436  
  9380.000000   1366635   1364388   1362233   1360780   1360509  
  9370.000000   1361655   1364134   1367629   1371684   1375837  
  9360.000000   1379694   1382941   1385342   1386700   1386879  
  9350.000000   1385837   1383696   1380773   1377534   1374508  
  9340.000000   1372146   1370752   1370415   1371058   1372417  
  9330.000000   1374152   1375818   1376990   1377270   1376405  
  9320.000000   1374351   1371341   1367906   1364730   1362482  
  9310.000000   1361531   1361829   1362897   1364011   1364455  
  9300.000000   1363774   1361960   1359425   1356862   1354933  
  9290.000000   1354055   1354272   1355320   1356768   1358181  
  9280.000000   1359215   1359668   1359447   1358541   1356978  
  9270.000000   1354832   1352283   1349608   1347178   1345269  
  9260.000000   1343977   1343096   1342228   1340903   1338816  
  9250.000000   1335965   1332731   1329772   1327815   1327387  
  9240.000000   1328627   1331264   1334731   1338384   1341710  
  9230.000000   1344458   1346681   1348603   1350476   1352424  
  9220.000000   1354386   1356120   1357291   1357601   1356910  
  9210.000000   1355300   1353057   1350623   1348450   1346899  
  9200.000000   1346080   1345842   1345782   1345396   1344239  
  9190.000000   1342093   1339063   1335590   1332304   1329828  
  9180.000000   1328543   1328506   1329464   1330972   1332587  
  9170.000000   1333977   1335056   1335890   1336613   1337255  
  9160.000000   1337702   1337746   1337222   1336128   1334691  
  9150.000000   1333339   1332584   1332835   1334231   1336565  
  9140.000000   1339342   1341939   1343787   1344505   1343972  
  9130.000000   1342335   1339931   1337196   1334547   1332372  
  9120.000000   1330985   1330607   1331288   1332891   1335089  
  9110.000000   1337405   1339281   1340203   1339851   1338186  
  9100.000000   1335491   1332245   1329028   1326329   1324476  
  9090.000000   1323559   1323451   1323908   1324661   1325536  
  9080.000000   1326443   1327414   1328508   1329769   1331156  
  9070.000000   1332517   1333649   1334320   1334394   1333798  
  9060.000000   1332597   1330924   1329000   1327050   1325278  
  9050.000000   1323863   1322938   1322613   1322923   1323854  
  9040.000000   1325315   1327146   1329132   1331018   1332590  
  9030.000000   1333674   1334180   1334075   1333401   1332267  
  9020.000000   1330853   1329420   1328279   1327770   1328168  
  9010.000000   1329592   1331907   1334726   1337471   1339501  
  9000.000000   1340291   1339575   1337460   1334371   1330935  
  8990.000000   1327803   1325486   1324266   1324152   1324982  
  8980.000000   1326482   1328397   1330494   1332619   1334632  
  8970.000000   1336393   1337734   1338464   1338460   1337638  
  8960.000000   1336057   1333846   1331272   1328626   1326203  
  8950.000000   1324261   1322972   1322445   1322660   1323555  
  8940.000000   1325001   1326876   1329054   1331408   1333812  
  8930.000000   1336082   1338005   1339302   1339748   1339197  
  8920.000000   1337703   1335526   1333101   1330973   1329620  
  8910.000000   1329371   1330273   1332157   1334664   1337377  
  8900.000000   1339887   1341864   1343081   1343363   1342613  
  8890.000000   1340788   1338022   1334581   1330928   1327601  
  8880.000000   1325148   1323962   1324163   1325612   1327942  
  8870.000000   1330754   1333689   1336570   1339365   1342132  
  8860.000000   1344918   1347629   1350071   1351935   1352987  
  8850.000000   1353068   1352240   1350712   1348831   1346978  
  8840.000000   1345474   1344588   1344474   1345248   1346914  
  8830.000000   1349418   1352571   1356089   1359570   1362589  
  8820.000000   1364776   1365905   1365982   1365189   1363889  
  8810.000000   1362446   1361189   1360278   1359729   1359430  
  8800.000000   1359235   1359048   1358872   1358849   1359196  
  8790.000000   1360153   1361858   1364301   1367280   1370454  
  8780.000000   1373429   1375864   1377591   1378648   1379289  
  8770.000000   1379864   1380706   1381992   1383687   1385548  
  8760.000000   1387210   1388320   1388662   1388243   1387278  
  8750.000000   1386131   1385191   1384761   1384970   1385760  
  8740.000000   1386917   1388163   1389240   1389994   1390411  
  8730.000000   1390609   1390800   1391208   1392025   1393320  
  8720.000000   1395053   1397034   1399023   1400757   1402067  
  8710.000000   1402911   1403407   1403809   1404431   1405581  
  8700.000000   1407453   1410101   1413398   1417085   1420805  
  8690.000000   1424198   1426965   1428908   1429974   1430219  
  8680.000000   1429832   1429029   1428045   1427032   1426082  
  8670.000000   1425208   1424407   1423719   1423256   1423244  
  8660.000000   1423942   1425600   1428314   1431997   1436348  
  8650.000000   1440916   1445219   1448845   1451603   1453489  
  8640.000000   1454714   1455542   1456262   1457059   1458025  
  8630.000000   1459152   1460378   1461663   1462992   1464437  
  8620.000000   1466084   1468053   1470405   1473154   1476196  
  8610.000000   1479332   1482274   1484690   1486290   1486899  
  8600.000000   1486547   1485467   1484061   1482797   1482075  
  8590.000000   1482129   1482960   1484378   1486070   1487743  
  8580.000000   1489194   1490373   1491339   1492210   1493092  
  8570.000000   1494031   1495023   1496023   1497013   1497987  
  8560.000000   1498980   1500005   1501058   1502098   1503086  
  8550.000000   1504020   1504968   1506059   1507437   1509191  
  8540.000000   1511299   1513617   1515926   1518015   1519761  
  8530.000000   1521178   1522392   1523584   1524902   1526402  
  8520.000000   1528032   1529677   1531211   1532570   1533750  
  8510.000000   1534799   1535743   1536588   1537282   1537785  
  8500.000000   1538093   1538282   1538493   1538866   1539473  
  8490.000000   1540251   1541013   1541497   1541481   1540884  
  8480.000000   1539835   1538637   1537678   1537306   1537722  
  8470.000000   1538944   1540805   1543044   1545386   1547629  
  8460.000000   1549672   1551495   1553135   1554627   1556007  
  8450.000000   1557268   1558404   1559375   1560158   1560714  
  8440.000000   1561039   1561154   1561139   1561149   1561371  
  8430.000000   1562018   1563219   1565023   1567324   1569927  
  8420.000000   1572563   1574994   1577054   1578679   1579876  
  8410.000000   1580681   1581112   1581148   1580753   1579906  
  8400.000000   1578664   1577172   1575643   1574319   1573373  
  8390.000000   1572897   1572843   1573113   1573555   1574083  
  8380.000000   1574655   1575303   1576069   1576962   1577924  
  8370.000000   1578808   1579425   1579576   1579145   1578102  
  8360.000000   1576552   1574687   1572765   1571049   1569745  
  8350.000000   1568991   1568814   1569170   1569940   1570971  
  8340.000000   1572094   1573157   1574038   1574653   1574955  
  8330.000000   1574924   1574585   1573994   1573260   1572509  
  8320.000000   1571889   1571532   1571522   1571874   1572507  
  8310.000000   1573269   1573968   1574431   1574545   1574283  
  8300.000000   1573716   1572977   1572228   1571596   1571149  
  8290.000000   1570881   1570725   1570597   1570409   1570139  
  8280.000000   1569813   1569545   1569462   1569693   1570286  
  8270.000000   1571199   1572268   1573235   1573802   1573712  
  8260.000000   1572834   1571195   1568994   1566525   1564118  
  8250.000000   1562029   1560387   1559165   1558221   1557375  
  8240.000000   1556474   1555478   1554429   1553464   1552727  
  8230.000000   1552348   1552387   1552825   1553572   1554470  
  8220.000000   1555330   1555944   1556116   1555685   1554570  
  8210.000000   1552811   1550593   1548214   1546017   1544299  
  8200.000000   1543208   1542713   1542593   1542536   1542225  
  8190.000000   1541464   1540220   1538629   1536904   1535262  
  8180.000000   1533829   1532625   1531578   1530591   1529597  
  8170.000000   1528588   1527602   1526682   1525816   1524923  
  8160.000000   1523869   1522523   1520823   1518814   1516652  
  8150.000000   1514545   1512699   1511233   1510164   1509398  
  8140.000000   1508788   1508185   1507482   1506634   1505651  
  8130.000000   1504584   1503504   1502487   1501621   1500980  
  8120.000000   1500625   1500559   1500715   1500940   1501026  
  8110.000000   1500766   1500023   1498780   1497166   1495405  
  8100.000000   1493759   1492434   1491515   1490950   1490574  
  8090.000000   1490183   1489608   1488781   1487741   1486620  
  8080.000000   1485574   1484740   1484177   1483860   1483691  
  8070.000000   1483526   1483228   1482685   1481851   1480745  
  8060.000000   1479452   1478102   1476837   1475782   1475009  
  8050.000000   1474521   1474257   1474105   1473941   1473664  
  8040.000000   1473220   1472613   1471894   1471140   1470431  
  8030.000000   1469827   1469367   1469053   1468870   1468771  
  8020.000000   1468699   1468580   1468345   1467941   1467356  
  8010.000000   1466617   1465793   1464975   1464242   1463648  
  8000.000000   1463199   1462876   1462642   1462480   1462392  
  7990.000000   1462399   1462516   1462721   1462945   1463068  
  7980.000000   1462958   1462505   1461667   1460482   1459069  
  7970.000000   1457589   1456206   1455048   1454190   1453649  
  7960.000000   1453397   1453375   1453505   1453697   1453851  
  7950.000000   1453879   1453716   1453346   1452819   1452237  
  7940.000000   1451750   1451484   1451526   1451858   1452380  
  7930.000000   1452905   1453235   1453204   1452746   1451914  
  7920.000000   1450880   1449892   1449211   1449045   1449483  
  7910.000000   1450482   1451860   1453360   1454708   1455690  
  7900.000000   1456209   1456290   1456063   1455687   1455294  
  7890.000000   1454937   1454575   1454118   1453478   1452647  
  7880.000000   1451715   1450872   1450332   1450268   1450717  
  7870.000000   1451566   1452556   1453369   1453722   1453453  
  7860.000000   1452577   1451263   1449791   1448451   1447472  
  7850.000000   1446963   1446906   1447178   1447609   1448027  
  7840.000000   1448309   1448392   1448279   1448021   1447688  
  7830.000000   1447362   1447109   1446982   1447016   1447228  
  7820.000000   1447629   1448210   1448944   1449779   1450630  
  7810.000000   1451383   1451909   1452089   1451845   1451174  
  7800.000000   1450154   1448943   1447734   1446724   1446042  
  7790.000000   1445740   1445761   1445980   1446231   1446359  
  7780.000000   1446250   1445855   1445172   1444245   1443131  
  7770.000000   1441899   1440622   1439391   1438304   1437468  
  7760.000000   1436969   1436845   1437056   1437486   1437951  
  7750.000000   1438246   1438202   1437724   1436835   1435648  
  7740.000000   1434346   1433111   1432078   1431301   1430755  
  7730.000000   1430367   1430058   1429791   1429579   1429480  
  7720.000000   1429547   1429790   1430147   1430480   1430622  
  7710.000000   1430414   1429787   1428766   1427493   1426171  
  7700.000000   1425014   1424195   1423800   1423834   1424228  
  7690.000000   1424877   1425669   1426498   1427270   1427893  
  7680.000000   1428286   1428365   1428090   1427452   1426526  
  7670.000000   1425430   1424340   1423431   1422847   1422677  
  7660.000000   1422925   1423534   1424393   1425380   1426378  
  7650.000000   1427303   1428100   1428745   1429227   1429533  
  7640.000000   1429650   1429555   1429245   1428731   1428071  
  7630.000000   1427353   1426688   1426182   1425896   1425833  
  7620.000000   1425921   1426045   1426076   1425919   1425550  
  7610.000000   1425016   1424433   1423934   1423635   1423584  
  7600.000000   1423776   1424138   1424589   1425044   1425458  
  7590.000000   1425822   1426166   1426540   1427005   1427610  
  7580.000000   1428393   1429358   1430479   1431690   1432901  
  7570.000000   1434008   1434936   1435658   1436224   1436737  
  7560.000000   1437330   1438105   1439099   1440257   1441453  
  7550.000000   1442534   1443386   1443972   1444360   1444685  
  7540.000000   1445105   1445733   1446609   1447690   1448884  
  7530.000000   1450092   1451256   1452375   1453504   1454720  
  7520.000000   1456093   1457646   1459362   1461171   1462989  
  7510.000000   1464721   1466298   1467676   1468856   1469876  
  7500.000000   1470822   1471802   1472931   1474292   1475915  
  7490.000000   1477758   1479730   1481701   1483560   1485238  
  7480.000000   1486736   1488109   1489446   1490825   1492300  
  7470.000000   1493884   1495570   1497334   1499162   1501042  
  7460.000000   1502970   1504918   1506853   1508723   1510501  
  7450.000000   1512178   1513789   1515390   1517043   1518782  
  7440.000000   1520611   1522503   1524428   1526380   1528386  
  7430.000000   1530504   1532790   1535262   1537878   1540534  
  7420.000000   1543097   1545441   1547496   1549263   1550811  
  7410.000000   1552247   1553676   1555179   1556803   1558571  
  7400.000000   1560494   1562582   1564840   1567256   1569781  
  7390.000000   1572331   1574798   1577081   1579111   1580881  
  7380.000000   1582444   1583900   1585367   1586943   1588688  
  7370.000000   1590615   1592695   1594874   1597083   1599261  
  7360.000000   1601359   1603354   1605248   1607074   1608876  
  7350.000000   1610701   1612583   1614527   1616513   1618508  
  7340.000000   1620484   1622440   1624398   1626394   1628448  
  7330.000000   1630553   1632662   1634707   1636623   1638379  
  7320.000000   1639992   1641521   1643031   1644572   1646146  
  7310.000000   1647715   1649218   1650617   1651908   1653145  
  7300.000000   1654401   1655749   1657217   1658782   1660376  
  7290.000000   1661922   1663362   1664678   1665887   1667022  
  7280.000000   1668102   1669124   1670066   1670908   1671660  
  7270.000000   1672366   1673103   1673941   1674923   1676033  
  7260.000000   1677208   1678355   1679400   1680309   1681123  
  7250.000000   1681926   1682842   1683973   1685402   1687146  
  7240.000000   1689191   1691477   1693936   1696481   1699044  
  7230.000000   1701550   1703968   1706276   1708507   1710702  
  7220.000000   1712940   1715273   1717752   1720376   1723145  
  7210.000000   1726027   1729019   1732117   1735341   1738695  
  7200.000000   1742176   1745745   1749364   1752986   1756609  
  7190.000000   1760252   1763984   1767859   1771927   1776170  
  7180.000000   1780541   1784937   1789277   1793479   1797524  
  7170.000000   1801408   1805180   1808883   1812590   1816361  
  7160.000000   1820284   1824430   1828881   1833675   1838819  
  7150.000000   1844255   1849896   1855616   1861323   1866944  
  7140.000000   1872483   1877964   1883449   1888962   1894527  
  7130.000000   1900115   1905719   1911323   1916967   1922694  
  7120.000000   1928576   1934654   1940947   1947423   1954037  
  7110.000000   1960724   1967444   1974164   1980888   1987614  
  7100.000000   1994363   2001138   2007962   2014844   2021810  
  7090.000000   2028873   2036043   2043302   2050621   2057955  
  7080.000000   2065263   2072513   2079698   2086826   2093914  
  7070.000000   2100969   2107988   2114948   2121822   2128582  
  7060.000000   2135215   2141726   2148139   2154487   2160810  
  7050.000000   2167147   2173523   2179954   2186437   2192963  
  7040.000000   2199507   2206058   2212609   2219179   2225785  
  7030.000000   2232454   2239181   2245937   2252649   2259233  
  7020.000000   2265603   2271715   2277566   2283208   2288710  
  7010.000000   2294146   2299548   2304917   2310210   2315386  
  7000.000000   2320401   2325260   2329975   2334594   2339139  
  6990.000000   2343641   2348090   2352490   2356823   2361101  
  6980.000000   2365319   2369480   2373558   2377526   2381338  
  6970.000000   2384974   2388427   2391731   2394925   2398061  
  6960.000000   2401156   2404218   2407216   2410131   2412939  
  6950.000000   2415648   2418265   2420813   2423286   2425679  
  6940.000000   2427966   2430143   2432214   2434216   2436180  
  6930.000000   2438143   2440104   2442049   2443937   2445750  
  6920.000000   2447477   2449147   2450787   2452427   2454057  
  6910.000000   2455647   2457146   2458520   2459766   2460926  
  6900.000000   2462056   2463210   2464401   2465601   2466749  
  6890.000000   2467788   2468693   2469499   2470280   2471129  
  6880.000000   2472112   2473247   2474496   2475793   2477072  
  6870.000000   2478302   2479488   2480665   2481865   2483095  
  6860.000000   2484325   2485502   2486570   2487503   2488315  
  6850.000000   2489061   2489809   2490625   2491540   2492555  
  6840.000000   2493634   2494727   2495774   2496727   2497543  
  6830.000000   2498206   2498711   2499084   2499362   2499607  
  6820.000000   2499867   2500184   2500564   2500993   2501432  
  6810.000000   2501851   2502224   2502556   2502853   2503125  
  6800.000000   2503360   2503530   2503589   2503505   2503268  
  6790.000000   2502909   2502484   2502072   2501731   2501501  
  6780.000000   2501383   2501361   2501397   2501455   2501489  
  6770.000000   2501458   2501311   2501007   2500519   2499855  
  6760.000000   2499060   2498217   2497423   2496760   2496267  
  6750.000000   2495940   2495725   2495559   2495376   2495146  
  6740.000000   2494855   2494511   2494120   2493680   2493180  
  6730.000000   2492614   2491990   2491334   2490680   2490053  
  6720.000000   2489453   2488855   2488212   2487497   2486705  
  6710.000000   2485882   2485096   2484417   2483880   2483469  
  6700.000000   2483112   2482712   2482180   2481467   2480578  
  6690.000000   2479564   2478501   2477461   2476488   2475602  
  6680.000000   2474792   2474039   2473311   2472581   2471812  
  6670.000000   2470972   2470026   2468958   2467771   2466496  
  6660.000000   2465179   2463871   2462600   2461371   2460158  
  6650.000000   2458929   2457649   2456311   2454922   2453510  
  6640.000000   2452098   2450704   2449322   2447949   2446574  
  6630.000000   2445203   2443847   2442521   2441227   2439952  
  6620.000000   2438663   2437328   2435917   2434428   2432878  
  6610.000000   2431301   2429731   2428191   2426684   2425202  
  6600.000000   2423725   2422240   2420737   2419213   2417663  
  6590.000000   2416088   2414487   2412872   2411263   2409688  
  6580.000000   2408177   2406743   2405378   2404049   2402708  
  6570.000000   2401310   2399833   2398285   2396702   2395135  
  6560.000000   2393632   2392222   2390913   2389691   2388535  
  6550.000000   2387422   2386335   2385260   2384184   2383090  
  6540.000000   2381967   2380808   2379620   2378420   2377228  
  6530.000000   2376057   2374904   2373752   2372578   2371373  
  6520.000000   2370143   2368925   2367761   2366692   2365731  
  6510.000000   2364853   2364004   2363118   2362136   2361030  
  6500.000000   2359808   2358510   2357190   2355907   2354703  
  6490.000000   2353604   2352617   2351733   2350929   2350165  
  6480.000000   2349392   2348559   2347623   2346563   2345388  
  6470.000000   2344136   2342862   2341616   2340432   2339316  
  6460.000000   2338255   2337227   2336218   2335228   2334273  
  6450.000000   2333372   2332534   2331747   2330986   2330214  
  6440.000000   2329408   2328559   2327682   2326802   2325947  
  6430.000000   2325131   2324359   2323625   2322924   2322253  
  6420.000000   2321621   2321029   2320480   2319959   2319447  
  6410.000000   2318927   2318396   2317871   2317385   2316976  
  6400.000000   2316668   2316462   2316327   2316213   2316068  
  6390.000000   2315848   2315533   2315125   2314645   2314118  
  6380.000000   2313569   2313015   2312468   2311932   2311411  
  6370.000000   2310907   2310416   2309936   2309461   2308989  
  6360.000000   2308523   2308071   2307643   2307246   2306877  
  6350.000000   2306527   2306177   2305812   2305421   2305005  
  6340.000000   2304568   2304120   2303660   2303181   2302665  
  6330.000000   2302098   2301466   2300767   2300003   2299185  
  6320.000000   2298313   2297392   2296414   2295385   2294308  
  6310.000000   2293203   2292090   2290992   2289916   2288863  
  6300.000000   2287814   2286755   2285665   2284540   2283377  
  6290.000000   2282181   2280956   2279703   2278418   2277101  
  6280.000000   2275750   2274374   2272981   2271581   2270177  
  6270.000000   2268768   2267344   2265898   2264417   2262901  
  6260.000000   2261342   2259739   2258086   2256380   2254619  
  6250.000000   2252813   2250972   2249120   2247270   2245434  
  6240.000000   2243606   2241779   2239938   2238078   2236201  
  6230.000000   2234324   2232459   2230620   2228807   2227008  
  6220.000000   2225207   2223390   2221553   2219699   2217843  
  6210.000000   2215999   2214179   2212389   2210632   2208909  
  6200.000000   2207223   2205578   2203974   2202403   2200852  
  6190.000000   2199307   2197755   2196194   2194633   2193085  
  6180.000000   2191561   2190062   2188581   2187104   2185623  
  6170.000000   2184142   2182684   2181279   2179956   2178729  
  6160.000000   2177587   2176492   2175396   2174248   2173016  
  6150.000000   2171688   2170274   2168801   2167305   2165818  
  6140.000000   2164372   2162987   2161679   2160445   2159272  
  6130.000000   2158130   2156979   2155784   2154525   2153210  
  6120.000000   2151872   2150562   2149336   2148227   2147249  
  6110.000000   2146382   2145595   2144842   2144096   2143333  
  6100.000000   2142552   2141754   2140950   2140146   2139360  
  6090.000000   2138606   2137909   2137284   2136744   2136279  
  6080.000000   2135870   2135486   2135107   2134722   2134352  
  6070.000000   2134020   2133764   2133597   2133527   2133530  
  6060.000000   2133591   2133686   2133827   2134027   2134324  
  6050.000000   2134732   2135266   2135907   2136639   2137429  
  6040.000000   2138274   2139174   2140159   2141246   2142464  
  6030.000000   2143813   2145294   2146884   2148572   2150331  
  6020.000000   2152145   2153982   2155816   2157609   2159346  
  6010.000000   2161016   2162644   2164258   2165904   2167607  
  6000.000000   2169384   2171214   2173078   2174944   2176809  
  5990.000000   2178680   2180597   2182598   2184728   2187004  
  5980.000000   2189439   2192018   2194731   2197553   2200474  
  5970.000000   2203469   2206529   2209625   2212748   2215880  
  5960.000000   2219024   2222179   2225355   2228547   2231755  
  5950.000000   2234961   2238163   2241357   2244566   2247819  
  5940.000000   2251150   2254581   2258115   2261730   2265389  
  5930.000000   2269055   2272701   2276319   2279912   2283487  
  5920.000000   2287038   2290540   2293955   2297239   2300360  
  5910.000000   2303306   2306089   2308742   2311298   2313799  
  5900.000000   2316273   2318748   2321242   2323778   2326361  
  5890.000000   2328998   2331667   2334343   2336985   2339564  
  5880.000000   2342054   2344453   2346766   2349001   2351161  
  5870.000000   2353236   2355215   2357089   2358872   2360596  
  5860.000000   2362312   2364076   2365933   2367906   2369998  
  5850.000000   2372200   2374497   2376881   2379351   2381906  
  5840.000000   2384540   2387232   2389952   2392663   2395337  
  5830.000000   2397957   2400521   2403037   2405513   2407952  
  5820.000000   2410348   2412694   2414982   2417214   2419390  
  5810.000000   2421516   2423581   2425577   2427474   2429271  
  5800.000000   2430954   2432561   2434109   2435653   2437194  
  5790.000000   2438742   2440239   2441631   2442822   2443742  
  5780.000000   2444303   2444461   2444169   2443421   2442227  
  5770.000000   2440643   2438742   2436641   2434451   2432290  
  5760.000000   2430235   2428347   2426638   2425116   2423763  
  5750.000000   2422576   2421538   2420640   2419856   2419148  
  5740.000000   2418480   2417813   2417136   2416446   2415773  
  5730.000000   2415133   2414552   2414022   2413534   2413063  
  5720.000000   2412598   2412135   2411693   2411288   2410939  
  5710.000000   2410646   2410402   2410186   2409986   2409801  
  5700.000000   2409643   2409529   2409477   2409489   2409553  
  5690.000000   2409648   2409748   2409840   2409915   2409978  
  5680.000000   2410028   2410069   2410085   2410063   2409969  
  5670.000000   2409775   2409438   2408924   2408191   2407213  
  5660.000000   2405978   2404508   2402847   2401075   2399270  
  5650.000000   2397510   2395839   2394280   2392820   2391441  
  5640.000000   2390119   2388846   2387615   2386424   2385265  
  5630.000000   2384122   2382976   2381814   2380642   2379477  
  5620.000000   2378352   2377291   2376305   2375378   2374483  
  5610.000000   2373587   2372670   2371735   2370805   2369910  
  5600.000000   2369078   2368317   2367614   2366944   2366277  
  5590.000000   2365594   2364885   2364150   2363391   2362607  
  5580.000000   2361789   2360930   2360025   2359080   2358105  
  5570.000000   2357112   2356105   2355082   2354031   2352943  
  5560.000000   2351817   2350661   2349491   2348324   2347164  
  5550.000000   2346009   2344843   2343654   2342440   2341213  
  5540.000000   2339996   2338812   2337674   2336583   2335524  
  5530.000000   2334483   2333450   2332429   2331430   2330465  
  5520.000000   2329533   2328619   2327693   2326725   2325692  
  5510.000000   2324588   2323422   2322214   2320982   2319736  
  5500.000000   2318480   2317217   2315954   2314709   2313498  
  5490.000000   2312335   2311214   2310114   2308997   2307829  
  5480.000000   2306584   2305262   2303875   2302452   2301009  
  5470.000000   2299555   2298080   2296568   2295003   2293379  
  5460.000000   2291698   2289967   2288190   2286366   2284490  
  5450.000000   2282566   2280603   2278629   2276677   2274777  
  5440.000000   2272949   2271194   2269506   2267874   2266300  
  5430.000000   2264785   2263341   2261962   2260637   2259331  
  5420.000000   2258025   2256699   2255380   2254107   2252954  
  5410.000000   2251966   2251181   2250582   2250147   2249830  
  5400.000000   2249619   2249503   2249511   2249649   2249933  
  5390.000000   2250332   2250832   2251392   2252024   2252741  
  5380.000000   2253613   2254680   2256000   2257559   2259349  
  5370.000000   2261302   2263393   2265568   2267847   2270211  
  5360.000000   2272717   2275357   2278195   2281234   2284562  
  5350.000000   2288207   2292277   2296789   2301822   2307336  
  5340.000000   2313357   2319809   2326723   2334037   2341810  
  5330.000000   2349988   2358625   2367648   2377107   2386941  
  5320.000000   2397254   2408047   2419482   2431580   2444491  
  5310.000000   2458178   2472714   2488000   2504075   2520850  
  5300.000000   2538403   2556702   2575876   2595920   2616958  
  5290.000000   2638946   2661927   2685762   2710385   2735596  
  5280.000000   2761318   2787424   2813957   2840935   2868496  
  5270.000000   2896685   2925538   2954939   2984717   3014639  
  5260.000000   3044512   3074239   3103813   3133324   3162827  
  5250.000000   3192351   3221753   3250856   3279344   3307030  
  5240.000000   3333716   3359457   3384286   3408436   3431994  
  5230.000000   3455131   3477780   3499926   3521341   3541940  
  5220.000000   3561523   3580123   3597695   3614423   3630356  
  5210.000000   3645693   3660417   3674607   3688112   3700923  
  5200.000000   3712878   3724033   3734339   3743952   3752872  
  5190.000000   3761235   3768974   3776133   3782585   3788360  
  5180.000000   3793376   3797729   3801401   3804511   3807027  
  5170.000000   3809022   3810426   3811288   3811554   3811299  
  5160.000000   3810497   3809237   3807487   3805313   3802678  
  5150.000000   3799648   3796210   3792451   3788374   3784047  
  5140.000000   3779449   3774612   3769497   3764133   3758509  
  5130.000000   3752681   3746661   3740504   3734212   3727816  
  5120.000000   3721307   3714714   3708040   3701327   3694581  
  5110.000000   3687824   3681042   3674229   3667366   3660460  
  5100.000000   3653523   3646599   3639720   3632924   3626215  
  5090.000000   3619591   3613022   3606489   3599965   3593447  
  5080.000000   3586927   3580411   3573889   3567354   3560786  
  5070.000000   3554173   3547499   3540763   3533956   3527078  
  5060.000000   3520115   3513066   3505920   3498689   3491384  
  5050.000000   3484036   3476664   3469290   3461914   3454531  
  5040.000000   3447120   3439670   3432172   3424636   3417075  
  5030.000000   3409515   3401973   3394464   3386999   3379582  
  5020.000000   3372225   3364933   3357723   3350598   3343570  
  5010.000000   3336630   3329784   3323019   3316350   3309777  
  5000.000000   3303333   3297029   3290901   3284951   3279208  
  4990.000000   3273659   3268326   3263192   3258283   3253580  
  4980.000000   3249114   3244866   3240871   3237109   3233621  
  4970.000000   3230396   3227478   3224852   3222557   3220563  
  4960.000000   3218899   3217528   3216484   3215739   3215343  
  4950.000000   3215279   3215597   3216269   3217330   3218735  
  4940.000000   3220506   3222595   3225029   3227767   3230842  
  4930.000000   3234216   3237919   3241913   3246234   3250854  
  4920.000000   3255818   3261106   3266758   3272743   3279076  
  4910.000000   3285706   3292633   3299813   3307253   3314929  
  4900.000000   3322855   3331007   3339376   3347918   3356593  
  4890.000000   3365343   3374119   3382876   3391576   3400195  
  4880.000000   3408698   3417070   3425264   3433255   3440983  
  4870.000000   3448419   3455497   3462201   3468478   3474336  
  4860.000000   3479746   3484742   3489316   3493520   3497358  
  4850.000000   3500892   3504139   3507168   3509999   3512697  
  4840.000000   3515273   3517771   3520178   3522514   3524752  
  4830.000000   3526900   3528939   3530883   3532727   3534493  
  4820.000000   3536184   3537825   3539425   3541010   3542593  
  4810.000000   3544194   3545820   3547474   3549147   3550827  
  4800.000000   3552501   3554163   3555814   3557465   3559129  
  4790.000000   3560820   3562540   3564291   3566062   3567844  
  4780.000000   3569628   3571410   3573183   3574944   3576674  
  4770.000000   3578361   3579976   3581507   3582936   3584270  
  4760.000000   3585514   3586687   3587793   3588841   3589812  
  4750.000000   3590698   3591469   3592118   3592627   3593003  
  4740.000000   3593243   3593360   3593352   3593229   3592985  
  4730.000000   3592630   3592166   3591612   3590984   3590311  
  4720.000000   3589613   3588913   3588223   3587553   3586904  
  4710.000000   3586277   3585674   3585101   3584571   3584102  
  4700.000000   3583719   3583442   3583294   3583282   3583412  
  4690.000000   3583675   3584062   3584552   3585133   3585779  
  4680.000000   3586476   3587192   3587905   3588580   3589198  
  4670.000000   3589731   3590183   3590556   3590880   3591185  
  4660.000000   3591519   3591918   3592431   3593089   3593923  
  4650.000000   3594948   3596175   3597595   3599200   3600966  
  4640.000000   3602875   3604906   3607047   3609284   3611608  
  4630.000000   3613998   3616423   3618843   3621208   3623472  
  4620.000000   3625595   3627552   3629330   3630929   3632349  
  4610.000000   3633600   3634679   3635602   3636372   3637025  
  4600.000000   3637582   3638091   3638570   3639051   3639523  
  4590.000000   3639988   3640410   3640780   3641066   3641266  
  4580.000000   3641364   3641363   3641249   3641022   3640667  
  4570.000000   3640190   3639587   3638877   3638068   3637184  
  4560.000000   3636229   3635217   3634145   3633018   3631838  
  4550.000000   3630616   3629362   3628094   3626822   3625558  
  4540.000000   3624309   3623080   3621882   3620718   3619603  
  4530.000000   3618534   3617521   3616551   3615636   3614763  
  4520.000000   3613964   3613240   3612649   3612201   3611961  
  4510.000000   3611933   3612184   3612713   3613599   3614852  
  4500.000000   3616566   3618751   3621498   3624792   3628706  
  4490.000000   3633209   3638369   3644157   3650646   3657805  
  4480.000000   3665687   3674226   3683431   3693202   3703520  
  4470.000000   3714281   3725479   3737037   3748967   3761210  
  4460.000000   3773773   3786589   3799643   3812856   3826197  
  4450.000000   3839595   3853020   3866428   3879804   3893138  
  4440.000000   3906426   3919678   3932886   3946061   3959170  
  4430.000000   3972213   3985129   3997909   4010477   4022826  
  4420.000000   4034875   4046621   4057977   4068932   4079386  
  4410.000000   4089314   4098607   4107247   4115146   4122322  
  4400.000000   4128739   4134466   4139517   4143991   4147925  
  4390.000000   4151425   4154538   4157369   4159977   4162468  
  4380.000000   4164903   4167376   4169936   4172653   4175564  
  4370.000000   4178720   4182150   4185886   4189935   4194291  
  4360.000000   4198924   4203791   4208832   4214000   4219230  
  4350.000000   4224497   4229742   4234968   4240126   4245242  
  4340.000000   4250284   4255277   4260153   4264842   4269131  
  4330.000000   4272760   4275352   4276562   4276084   4273809  
  4320.000000   4269823   4264471   4258245   4251750   4245516  
  4310.000000   4239980   4235353   4231705   4228925   4226866  
  4300.000000   4225340   4224216   4223391   4222807   4222433  
  4290.000000   4222231   4222192   4222283   4222518   4222892  
  4280.000000   4223429   4224132   4224997   4226011   4227138  
  4270.000000   4228363   4229643   4230950   4232198   4233274  
  4260.000000   4233989   4234131   4233475   4231857   4229202  
  4250.000000   4225574   4221145   4216197   4211026   4205938  
  4240.000000   4201150   4196827   4193014   4189713   4186848  
  4230.000000   4184334   4182054   4179904   4177782   4175608  
  4220.000000   4173341   4170963   4168518   4166051   4163660  
  4210.000000   4161406   4159374   4157589   4156086   4154846  
  4200.000000   4153866   4153104   4152544   4152139   4151876  
  4190.000000   4151711   4151648   4151658   4151775   4151989  
  4180.000000   4152353   4152864   4153580   4154493   4155666  
  4170.000000   4157104   4158887   4161036   4163641   4166708  
  4160.000000   4170297   4174373   4178952   4183965   4189420  
  4150.000000   4195253   4201497   4208110   4215145   4222573  
  4140.000000   4230448   4238734   4247481   4256645   4266265  
  4130.000000   4276287   4286741   4297566   4308787   4320354  
  4120.000000   4332303   4344605   4357313   4370421   4383983  
  4110.000000   4397994   4412494   4427457   4442885   4458711  
  4100.000000   4474887   4491313   4507915   4524600   4541316  
  4090.000000   4558023   4574715   4591403   4608110   4624871  
  4080.000000   4641699   4658626   4675631   4692715   4709802  
  4070.000000   4726845   4743714   4760339   4776590   4792439  
  4060.000000   4807809   4822736   4837172   4851166   4864649  
  4050.000000   4877656   4890106   4902051   4913431   4924320  
  4040.000000   4934646   4944453   4953619   4962152   4969920  
  4030.000000   4976964   4983199   4988704   4993426   4997425  
  4020.000000   5000605   5003019   5004635   5005542   5005714  
  4010.000000   5005316   5004445   5003140   5001190   4998638  
  4000.000000   4995774  
##END= 
