##TITLE= Sample 011 By ssteindl date Montag, November 19 2018
##JCAMP-DX= 4.24
##DATA TYPE= INFRARED SPECTRUM
##ORIGIN= Exported PE Spectrum Data File
##OWNER= Sandra Steindl
##DATE= 18/11/19
##TIME= 16:16:46.00
##SPECTROMETER/DATA SYSTEM= PERKIN-ELMER Frontier FT-IR/NIR IR
##INSTRUMENT PARAMETERS=
  APODIZATION=stark
  DETECTOR=INGAAS
##RESOLUTION= 16.000000
##DELTAX= -2.000000
##XUNITS= 1/CM
##YUNITS= A
##XFACTOR= 1.00
##YFACTOR= 0.00000011920928955078
##FIRSTX= 10000.00
##LASTX= 4000.00
##NPOINTS= 3001
##FIRSTY= 0.139307
##MAXY= 0.518524
##MINY= 0.116518
##XYDATA= (X++(Y..Y))
 10000.000000   1168595   1161124   1155617   1154743   1159020  
  9990.000000   1166918   1176679   1186684   1195325   1201114  
  9980.000000   1203430   1202386   1198547   1192784   1186337  
  9970.000000   1180663   1177167   1176967   1180568   1187641  
  9960.000000   1196924   1206513   1214216   1218228   1217536  
  9950.000000   1212218   1203367   1192695   1182140   1173302  
  9940.000000   1167199   1164058   1163379   1164192   1165326  
  9930.000000   1165898   1165451   1164220   1162859   1162304  
  9920.000000   1163282   1166046   1170199   1174728   1178372  
  9910.000000   1179934   1178758   1174855   1168939   1162089  
  9900.000000   1155439   1149767   1145437   1142359   1140241  
  9890.000000   1138709   1137385   1135977   1134178   1131885  
  9880.000000   1129185   1126620   1125075   1125670   1129288  
  9870.000000   1136118   1145320   1155006   1162773   1166348  
  9860.000000   1164499   1157342   1146492   1134333   1123364  
  9850.000000   1115229   1110438   1108339   1107711   1107421  
  9840.000000   1106894   1106368   1106504   1108155   1111758  
  9830.000000   1117380   1124635   1133006   1141968   1151004  
  9820.000000   1159557   1166800   1171755   1173378   1171051  
  9810.000000   1164830   1155684   1145225   1135250   1127132  
  9800.000000   1121362   1117558   1114735   1111986   1108905  
  9790.000000   1105902   1103873   1103804   1106093   1110355  
  9780.000000   1115440   1119942   1122787   1123662   1123161  
  9770.000000   1122407   1122552   1124175   1127051   1130216  
  9760.000000   1132448   1132719   1130681   1126647   1121466  
  9750.000000   1116058   1111070   1106708   1102791   1099057  
  9740.000000   1095452   1092317   1090329   1090264   1092571  
  9730.000000   1097199   1103375   1109961   1115685   1119662  
  9720.000000   1121640   1122003   1121650   1121476   1122096  
  9710.000000   1123417   1124700   1124705   1122224   1116549  
  9700.000000   1107876   1097377   1086924   1078611   1074086  
  9690.000000   1074127   1078344   1085385   1093284   1100093  
  9680.000000   1104392   1105652   1104295   1101448   1098555  
  9670.000000   1096876   1097173   1099465   1103145   1107126  
  9660.000000   1110259   1111631   1110857   1108179   1104322  
  9650.000000   1100309   1097034   1095082   1094483   1094837  
  9640.000000   1095476   1095781   1095412   1094413   1093116  
  9630.000000   1091930   1091089   1090511   1089843   1088596  
  9620.000000   1086446   1083347   1079653   1075951   1072877  
  9610.000000   1070910   1070217   1070724   1072145   1074213  
  9600.000000   1076690   1079447   1082362   1085244   1087836  
  9590.000000   1089783   1090826   1090766   1089623   1087460  
  9580.000000   1084432   1080638   1076239   1071490   1066864  
  9570.000000   1063074   1060900   1061043   1063734   1068711  
  9560.000000   1075083   1081717   1087488   1091722   1094338  
  9550.000000   1095780   1096731   1097663   1098626   1099120  
  9540.000000   1098397   1095759   1090967   1084379   1076880  
  9530.000000   1069631   1063659   1059629   1057663   1057472  
  9520.000000   1058517   1060237   1062169   1063955   1065288  
  9510.000000   1065888   1065550   1064253   1062291   1060268  
  9500.000000   1059018   1059314   1061605   1065760   1071013  
  9490.000000   1076164   1079923   1081384   1080315   1077214  
  9480.000000   1073089   1069051   1065936   1064035   1063057  
  9470.000000   1062318   1061041   1058722   1055334   1051385  
  9460.000000   1047677   1045049   1043999   1044565   1046277  
  9450.000000   1048382   1050071   1050749   1050164   1048455  
  9440.000000   1046057   1043555   1041499   1040241   1039871  
  9430.000000   1040148   1040656   1040805   1040068   1038013  
  9420.000000   1034477   1029601   1023868   1018031   1012977  
  9410.000000   1009528   1008280   1009424   1012771   1017744  
  9400.000000   1023564   1029355   1034335   1037927   1039887  
  9390.000000   1040346   1039811   1039025   1038826   1039910  
  9380.000000   1042662   1047023   1052439   1058003   1062652  
  9370.000000   1065536   1066239   1064924   1062203   1058926  
  9360.000000   1055852   1053440   1051700   1050309   1048782  
  9350.000000   1046817   1044414   1041965   1040005   1039044  
  9340.000000   1039274   1040530   1042296   1043875   1044606  
  9330.000000   1044040   1042083   1038956   1035128   1031165  
  9320.000000   1027627   1024979   1023524   1023348   1024288  
  9310.000000   1025934   1027732   1029088   1029540   1028860  
  9300.000000   1027112   1024611   1021815   1019182   1017069  
  9290.000000   1015659   1015016   1015101   1015865   1017213  
  9280.000000   1019013   1020993   1022783   1023955   1024176  
  9270.000000   1023313   1021499   1019126   1016746   1014954  
  9260.000000   1014221   1014812   1016738   1019831   1023729  
  9250.000000   1027971   1031918   1034916   1036350   1035876  
  9240.000000   1033525   1029745   1025350   1021256   1018224  
  9230.000000   1016493   1015700   1015004   1013469   1010453  
  9220.000000   1005867   1000290   0994753   0990445   0988229  
  9210.000000   0988427   0990721   0994365   0998476   1002273  
  9200.000000   1005270   1007238   1008202   1008251   1007529  
  9190.000000   1006143   1004271   1002125   1000004   0998169  
  9180.000000   0996826   0996058   0995852   0996179   0996983  
  9170.000000   0998282   1000035   1002154   1004384   1006383  
  9160.000000   1007816   1008502   1008517   1008141   1007744  
  9150.000000   1007575   1007631   1007601   1006996   1005392  
  9140.000000   1002674   0999154   0995483   0992425   0990562  
  9130.000000   0990050   0990585   0991535   0992247   0992264  
  9120.000000   0991488   0990161   0988746   0987713   0987370  
  9110.000000   0987841   0989109   0991115   0993773   0996965  
  9100.000000   1000480   1003984   1007030   1009160   1010047  
  9090.000000   1009605   1008040   1005733   1003129   1000539  
  9080.000000   0998106   0995783   0993446   0991036   0988615  
  9070.000000   0986408   0984674   0983648   0983432   0983999  
  9060.000000   0985217   0986890   0988817   0990779   0992547  
  9050.000000   0993862   0994488   0994323   0993490   0992364  
  9040.000000   0991502   0991478   0992701   0995181   0998472  
  9030.000000   1001760   1004123   1004796   1003406   1000097  
  9020.000000   0995506   0990550   0986180   0983149   0981883  
  9010.000000   0982416   0984400   0987248   0990263   0992838  
  9000.000000   0994533   0995228   0995095   0994586   0994230  
  8990.000000   0994466   0995475   0997098   0998922   1000379  
  8980.000000   1000986   1000472   0998881   0996501   0993734  
  8970.000000   0990942   0988356   0986033   0983932   0981997  
  8960.000000   0980256   0978819   0977833   0977423   0977617  
  8950.000000   0978376   0979591   0981180   0983103   0985359  
  8940.000000   0987942   0990751   0993595   0996158   0998121  
  8930.000000   0999206   0999307   0998474   0996929   0994977  
  8920.000000   0992963   0991198   0989909   0989252   0989250  
  8910.000000   0989843   0990828   0991958   0992965   0993679  
  8900.000000   0994061   0994219   0994362   0994664   0995183  
  8890.000000   0995771   0996143   0995968   0995054   0993460  
  8880.000000   0991518   0989756   0988691   0988676   0989758  
  8870.000000   0991695   0994047   0996332   0998181   0999393  
  8860.000000   0999949   0999917   0999409   0998527   0997394  
  8850.000000   0996167   0995068   0994342   0994215   0994791  
  8840.000000   0996018   0997689   0999515   1001227   1002651  
  8830.000000   1003745   1004573   1005242   1005843   1006419  
  8820.000000   1006979   1007548   1008195   1009050   1010239  
  8810.000000   1011831   1013754   1015805   1017673   1019049  
  8800.000000   1019710   1019572   1018706   1017280   1015533  
  8790.000000   1013671   1011874   1010263   1008936   1007969  
  8780.000000   1007401   1007257   1007513   1008162   1009177  
  8770.000000   1010588   1012419   1014699   1017377   1020284  
  8760.000000   1023148   1025608   1027352   1028147   1027968  
  8750.000000   1026930   1025306   1023376   1021394   1019519  
  8740.000000   1017853   1016486   1015542   1015191   1015585  
  8730.000000   1016821   1018838   1021455   1024343   1027189  
  8720.000000   1029745   1031943   1033862   1035670   1037528  
  8710.000000   1039478   1041417   1043081   1044148   1044308  
  8700.000000   1043399   1041419   1038582   1035243   1031851  
  8690.000000   1028845   1026568   1025228   1024851   1025332  
  8680.000000   1026436   1027934   1029635   1031478   1033496  
  8670.000000   1035784   1038416   1041357   1044438   1047335  
  8660.000000   1049700   1051211   1051735   1051305   1050175  
  8650.000000   1048676   1047174   1045920   1045029   1044467  
  8640.000000   1044131   1043920   1043792   1043817   1044148  
  8630.000000   1044989   1046500   1048765   1051736   1055239  
  8620.000000   1058997   1062686   1066028   1068831   1071052  
  8610.000000   1072767   1074160   1075432   1076732   1078110  
  8600.000000   1079508   1080799   1081845   1082576   1083015  
  8590.000000   1083293   1083564   1083972   1084557   1085274  
  8580.000000   1085988   1086556   1086879   1086958   1086889  
  8570.000000   1086828   1086936   1087309   1087962   1088814  
  8560.000000   1089733   1090576   1091247   1091717   1092044  
  8550.000000   1092351   1092799   1093538   1094666   1096192  
  8540.000000   1098034   1100021   1101951   1103640   1104982  
  8530.000000   1105976   1106711   1107341   1108014   1108830  
  8520.000000   1109802   1110876   1111966   1112987   1113891  
  8510.000000   1114643   1115229   1115602   1115691   1115422  
  8500.000000   1114785   1113865   1112869   1112096   1111865  
  8490.000000   1112424   1113845   1116027   1118707   1121567  
  8480.000000   1124305   1126723   1128748   1130408   1131765  
  8470.000000   1132867   1133723   1134311   1134622   1134680  
  8460.000000   1134590   1134473   1134459   1134602   1134875  
  8450.000000   1135160   1135284   1135113   1134606   1133877  
  8440.000000   1133155   1132776   1133066   1134287   1136508  
  8430.000000   1139611   1143279   1147080   1150552   1153287  
  8420.000000   1155032   1155700   1155377   1154244   1152530  
  8410.000000   1150459   1148246   1146096   1144214   1142818  
  8400.000000   1142100   1142202   1143092   1144602   1146383  
  8390.000000   1148053   1149252   1149801   1149737   1149296  
  8380.000000   1148822   1148599   1148774   1149251   1149776  
  8370.000000   1149999   1149643   1148600   1146969   1145033  
  8360.000000   1143140   1141642   1140773   1140653   1141244  
  8350.000000   1142425   1143999   1145738   1147366   1148615  
  8340.000000   1149246   1149124   1148251   1146771   1144953  
  8330.000000   1143094   1141455   1140141   1139107   1138174  
  8320.000000   1137136   1135844   1134269   1132529   1130834  
  8310.000000   1129435   1128523   1128195   1128433   1129136  
  8300.000000   1130158   1131336   1132513   1133544   1134318  
  8290.000000   1134762   1134866   1134693   1134372   1134065  
  8280.000000   1133904   1133944   1134127   1134308   1134300  
  8270.000000   1133954   1133201   1132086   1130722   1129251  
  8260.000000   1127763   1126275   1124734   1123072   1121258  
  8250.000000   1119340   1117442   1115734   1114361   1113403  
  8240.000000   1112834   1112564   1112462   1112419   1112371  
  8230.000000   1112307   1112237   1112161   1112054   1111850  
  8220.000000   1111485   1110902   1110100   1109108   1107987  
  8210.000000   1106783   1105523   1104202   1102808   1101350  
  8200.000000   1099875   1098473   1097246   1096284   1095616  
  8190.000000   1095214   1094987   1094827   1094639   1094366  
  8180.000000   1093993   1093526   1092967   1092298   1091478  
  8170.000000   1090467   1089259   1087909   1086540   1085306  
  8160.000000   1084337   1083684   1083283   1082965   1082500  
  8150.000000   1081676   1080368   1078589   1076494   1074324  
  8140.000000   1072335   1070719   1069554   1068804   1068342  
  8130.000000   1068011   1067675   1067254   1066726   1066114  
  8120.000000   1065456   1064781   1064098   1063393   1062646  
  8110.000000   1061833   1060942   1059964   1058905   1057784  
  8100.000000   1056643   1055542   1054557   1053753   1053151  
  8090.000000   1052703   1052287   1051741   1050919   1049753  
  8080.000000   1048303   1046747   1045337   1044306   1043786  
  8070.000000   1043744   1043997   1044268   1044286   1043878  
  8060.000000   1043029   1041879   1040665   1039640   1038987  
  8050.000000   1038770   1038934   1039336   1039808   1040196  
  8040.000000   1040396   1040364   1040094   1039626   1039014  
  8030.000000   1038340   1037688   1037140   1036751   1036527  
  8020.000000   1036424   1036348   1036191   1035849   1035263  
  8010.000000   1034422   1033360   1032148   1030863   1029605  
  8000.000000   1028471   1027586   1027067   1027021   1027487  
  7990.000000   1028418   1029652   1030930   1031958   1032457  
  7980.000000   1032260   1031320   1029742   1027721   1025497  
  7970.000000   1023296   1021295   1019619   1018351   1017546  
  7960.000000   1017230   1017397   1017974   1018824   1019744  
  7950.000000   1020509   1020922   1020861   1020327   1019421  
  7940.000000   1018344   1017310   1016520   1016087   1016039  
  7930.000000   1016302   1016741   1017192   1017505   1017581  
  7920.000000   1017390   1016981   1016460   1015962   1015612  
  7910.000000   1015485   1015599   1015898   1016296   1016689  
  7900.000000   1017000   1017193   1017272   1017278   1017261  
  7890.000000   1017267   1017334   1017481   1017718   1018033  
  7880.000000   1018399   1018759   1019047   1019193   1019155  
  7870.000000   1018935   1018593   1018235   1017984   1017941  
  7860.000000   1018149   1018588   1019182   1019839   1020484  
  7850.000000   1021080   1021623   1022122   1022566   1022908  
  7840.000000   1023075   1022991   1022619   1021974   1021137  
  7830.000000   1020223   1019351   1018610   1018044   1017659  
  7820.000000   1017435   1017353   1017390   1017531   1017738  
  7810.000000   1017969   1018166   1018292   1018344   1018365  
  7800.000000   1018426   1018589   1018864   1019190   1019439  
  7790.000000   1019461   1019135   1018425   1017390   1016170  
  7780.000000   1014927   1013797   1012844   1012058   1011377  
  7770.000000   1010732   1010079   1009417   1008782   1008225  
  7760.000000   1007788   1007496   1007353   1007353   1007483  
  7750.000000   1007716   1008014   1008307   1008520   1008578  
  7740.000000   1008448   1008149   1007753   1007359   1007051  
  7730.000000   1006861   1006761   1006682   1006553   1006348  
  7720.000000   1006099   1005892   1005807   1005886   1006083  
  7710.000000   1006289   1006364   1006206   1005790   1005185  
  7700.000000   1004521   1003927   1003481   1003171   1002912  
  7690.000000   1002585   1002103   1001445   1000674   0999902  
  7680.000000   0999245   0998772   0998489   0998344   0998265  
  7670.000000   0998194   0998118   0998058   0998068   0998192  
  7660.000000   0998454   0998846   0999333   0999866   1000396  
  7650.000000   1000879   1001281   1001572   1001732   1001752  
  7640.000000   1001635   1001404   1001094   1000745   1000397  
  7630.000000   1000077   0999800   0999573   0999395   0999262  
  7620.000000   0999162   0999081   0998998   0998899   0998786  
  7610.000000   0998680   0998626   0998667   0998827   0999087  
  7600.000000   0999385   0999630   0999743   0999685   0999488  
  7590.000000   0999247   0999089   0999123   0999395   0999865  
  7580.000000   1000418   1000912   1001227   1001310   1001190  
  7570.000000   1000953   1000714   1000557   1000516   1000563  
  7560.000000   1000642   1000685   1000658   1000559   1000426  
  7550.000000   1000320   1000304   1000433   1000742   1001250  
  7540.000000   1001956   1002835   1003851   1004938   1006026  
  7530.000000   1007027   1007880   1008532   1008976   1009218  
  7520.000000   1009304   1009285   1009234   1009234   1009375  
  7510.000000   1009747   1010419   1011429   1012758   1014337  
  7500.000000   1016046   1017745   1019305   1020631   1021688  
  7490.000000   1022483   1023067   1023492   1023819   1024086  
  7480.000000   1024332   1024586   1024890   1025292   1025842  
  7470.000000   1026584   1027536   1028689   1030002   1031414  
  7460.000000   1032859   1034278   1035642   1036942   1038207  
  7450.000000   1039469   1040771   1042125   1043527   1044938  
  7440.000000   1046311   1047607   1048819   1049979   1051157  
  7430.000000   1052434   1053877   1055503   1057273   1059097  
  7420.000000   1060868   1062497   1063947   1065245   1066468  
  7410.000000   1067716   1069072   1070576   1072221   1073963  
  7400.000000   1075745   1077515   1079243   1080905   1082482  
  7390.000000   1083943   1085250   1086378   1087331   1088165  
  7380.000000   1088990   1089944   1091152   1092686   1094530  
  7370.000000   1096591   1098709   1100720   1102493   1103970  
  7360.000000   1105172   1106179   1107098   1108024   1109011  
  7350.000000   1110067   1111166   1112273   1113368   1114459  
  7340.000000   1115571   1116742   1117986   1119293   1120622  
  7330.000000   1121914   1123119   1124212   1125211   1126157  
  7320.000000   1127114   1128128   1129223   1130388   1131592  
  7310.000000   1132801   1134000   1135201   1136440   1137750  
  7300.000000   1139148   1140612   1142085   1143494   1144785  
  7290.000000   1145940   1146996   1148034   1149144   1150397  
  7280.000000   1151814   1153359   1154950   1156487   1157891  
  7270.000000   1159114   1160155   1161043   1161825   1162539  
  7260.000000   1163213   1163855   1164482   1165117   1165816  
  7250.000000   1166643   1167682   1168990   1170603   1172496  
  7240.000000   1174610   1176838   1179081   1181243   1183291  
  7230.000000   1185227   1187125   1189062   1191133   1193383  
  7220.000000   1195823   1198405   1201064   1203725   1206353  
  7210.000000   1208942   1211538   1214190   1216942   1219786  
  7200.000000   1222674   1225519   1228246   1230813   1233257  
  7190.000000   1235669   1238193   1240956   1244042   1247440  
  7180.000000   1251059   1254743   1258334   1261702   1264804  
  7170.000000   1267664   1270394   1273124   1275998   1279097  
  7160.000000   1282456   1286031   1289751   1293516   1297265  
  7150.000000   1300961   1304631   1308332   1312160   1316190  
  7140.000000   1320478   1325012   1329752   1334602   1339487  
  7130.000000   1344327   1349101   1353802   1358474   1363155  
  7120.000000   1367908   1372775   1377808   1383037   1388493  
  7110.000000   1394169   1400040   1406026   1412029   1417928  
  7100.000000   1423629   1429075   1434282   1439314   1444279  
  7090.000000   1449278   1454390   1459645   1465036   1470534  
  7080.000000   1476103   1481722   1487385   1493090   1498835  
  7070.000000   1504600   1510356   1516068   1521709   1527265  
  7060.000000   1532742   1538152   1543513   1548839   1554141  
  7050.000000   1559428   1564709   1569987   1575264   1580528  
  7040.000000   1585760   1590943   1596065   1601144   1606210  
  7030.000000   1611318   1616502   1621786   1627146   1632538  
  7020.000000   1637895   1643167   1648321   1653358   1658280  
  7010.000000   1663088   1667754   1672231   1676460   1680415  
  7000.000000   1684109   1687625   1691072   1694582   1698240  
  6990.000000   1702090   1706092   1710177   1714237   1718192  
  6980.000000   1721979   1725582   1728998   1732248   1735340  
  6970.000000   1738291   1741106   1743804   1746404   1748946  
  6960.000000   1751456   1753972   1756508   1759080   1761675  
  6950.000000   1764283   1766864   1769384   1771793   1774063  
  6940.000000   1776173   1778142   1779999   1781799   1783578  
  6930.000000   1785356   1787112   1788809   1790397   1791854  
  6920.000000   1793187   1794449   1795707   1797029   1798441  
  6910.000000   1799928   1801421   1802839   1804102   1805170  
  6900.000000   1806046   1806786   1807468   1808182   1808996  
  6890.000000   1809952   1811052   1812270   1813554   1814849  
  6880.000000   1816100   1817275   1818358   1819362   1820310  
  6870.000000   1821229   1822134   1823024   1823880   1824677  
  6860.000000   1825396   1826039   1826625   1827190   1827766  
  6850.000000   1828377   1829022   1829687   1830350   1830995  
  6840.000000   1831614   1832215   1832804   1833391   1833970  
  6830.000000   1834540   1835093   1835638   1836185   1836750  
  6820.000000   1837332   1837917   1838468   1838949   1839325  
  6810.000000   1839591   1839756   1839850   1839897   1839906  
  6800.000000   1839868   1839772   1839612   1839415   1839227  
  6790.000000   1839113   1839114   1839245   1839467   1839715  
  6780.000000   1839910   1840000   1839969   1839842   1839661  
  6770.000000   1839464   1839265   1839049   1838789   1838463  
  6760.000000   1838067   1837623   1837159   1836702   1836257  
  6750.000000   1835819   1835374   1834928   1834508   1834162  
  6740.000000   1833936   1833856   1833909   1834046   1834199  
  6730.000000   1834305   1834328   1834262   1834125   1833935  
  6720.000000   1833699   1833407   1833041   1832596   1832091  
  6710.000000   1831572   1831095   1830708   1830425   1830233  
  6700.000000   1830084   1829935   1829746   1829509   1829225  
  6690.000000   1828907   1828558   1828174   1827742   1827257  
  6680.000000   1826720   1826146   1825544   1824915   1824236  
  6670.000000   1823479   1822609   1821622   1820536   1819400  
  6660.000000   1818263   1817166   1816112   1815088   1814059  
  6650.000000   1813012   1811948   1810898   1809885   1808919  
  6640.000000   1807972   1806991   1805913   1804704   1803374  
  6630.000000   1801980   1800599   1799301   1798114   1797020  
  6620.000000   1795960   1794876   1793729   1792525   1791296  
  6610.000000   1790089   1788927   1787806   1786686   1785519  
  6600.000000   1784271   1782936   1781535   1780101   1778655  
  6590.000000   1777200   1775718   1774189   1772606   1770983  
  6580.000000   1769351   1767742   1766172   1764635   1763104  
  6570.000000   1761557   1759989   1758422   1756899   1755459  
  6560.000000   1754118   1752858   1751625   1750356   1749003  
  6550.000000   1747552   1746031   1744489   1742984   1741554  
  6540.000000   1740214   1738955   1737756   1736597   1735463  
  6530.000000   1734345   1733233   1732114   1730977   1729816  
  6520.000000   1728639   1727467   1726324   1725223   1724157  
  6510.000000   1723096   1721998   1720831   1719591   1718311  
  6500.000000   1717053   1715888   1714865   1713993   1713234  
  6490.000000   1712514   1711749   1710870   1709841   1708666  
  6480.000000   1707383   1706051   1704734   1703488   1702354  
  6470.000000   1701348   1700461   1699658   1698888   1698089  
  6460.000000   1697212   1696228   1695138   1693970   1692771  
  6450.000000   1691585   1690445   1689362   1688335   1687358  
  6440.000000   1686428   1685553   1684743   1684001   1683321  
  6430.000000   1682675   1682034   1681365   1680655   1679903  
  6420.000000   1679127   1678342   1677565   1676801   1676054  
  6410.000000   1675327   1674637   1674004   1673450   1672984  
  6400.000000   1672603   1672283   1672003   1671745   1671513  
  6390.000000   1671320   1671187   1671115   1671083   1671045  
  6380.000000   1670948   1670746   1670428   1670014   1669553  
  6370.000000   1669100   1668694   1668350   1668053   1667778  
  6360.000000   1667498   1667203   1666889   1666563   1666221  
  6350.000000   1665856   1665450   1664993   1664487   1663953  
  6340.000000   1663415   1662896   1662395   1661894   1661358  
  6330.000000   1660759   1660085   1659357   1658609   1657890  
  6320.000000   1657225   1656623   1656057   1655490   1654879  
  6310.000000   1654201   1653445   1652620   1651731   1650789  
  6300.000000   1649793   1648747   1647660   1646554   1645451  
  6290.000000   1644375   1643330   1642311   1641294   1640260  
  6280.000000   1639198   1638115   1637028   1635954   1634899  
  6270.000000   1633851   1632784   1631669   1630487   1629242  
  6260.000000   1627957   1626671   1625417   1624223   1623093  
  6250.000000   1622021   1620989   1619977   1618962   1617923  
  6240.000000   1616832   1615670   1614419   1613082   1611678  
  6230.000000   1610242   1608813   1607422   1606079   1604774  
  6220.000000   1603480   1602174   1600841   1599488   1598130  
  6210.000000   1596789   1595477   1594190   1592916   1591640  
  6200.000000   1590362   1589094   1587861   1586688   1585590  
  6190.000000   1584568   1583610   1582701   1581832   1581006  
  6180.000000   1580233   1579520   1578858   1578224   1577581  
  6170.000000   1576896   1576149   1575339   1574486   1573614  
  6160.000000   1572741   1571869   1570985   1570068   1569105  
  6150.000000   1568096   1567057   1566014   1564986   1563985  
  6140.000000   1563001   1562020   1561023   1560000   1558953  
  6130.000000   1557892   1556831   1555782   1554754   1553752  
  6120.000000   1552786   1551860   1550986   1550164   1549391  
  6110.000000   1548654   1547944   1547255   1546595   1545983  
  6100.000000   1545446   1545000   1544654   1544393   1544194  
  6090.000000   1544022   1543858   1543688   1543513   1543333  
  6080.000000   1543151   1542954   1542738   1542491   1542227  
  6070.000000   1541962   1541739   1541588   1541542   1541608  
  6060.000000   1541786   1542058   1542420   1542861   1543392  
  6050.000000   1544015   1544742   1545561   1546470   1547451  
  6040.000000   1548508   1549640   1550870   1552207   1553667  
  6030.000000   1555238   1556908   1558641   1560419   1562212  
  6020.000000   1564021   1565839   1567681   1569545   1571446  
  6010.000000   1573385   1575376   1577420   1579531   1581702  
  6000.000000   1583936   1586213   1588530   1590875   1593265  
  5990.000000   1595713   1598252   1600893   1603654   1606519  
  5980.000000   1609482   1612518   1615630   1618816   1622098  
  5970.000000   1625485   1628991   1632602   1636307   1640078  
  5960.000000   1643907   1647778   1651695   1655648   1659632  
  5950.000000   1663621   1667595   1671536   1675448   1679349  
  5940.000000   1683278   1687267   1691337   1695487   1699690  
  5930.000000   1703911   1708112   1712273   1716382   1720436  
  5920.000000   1724425   1728330   1732114   1735746   1739196  
  5910.000000   1742462   1745557   1748515   1751368   1754152  
  5900.000000   1756887   1759603   1762319   1765076   1767901  
  5890.000000   1770823   1773835   1776910   1779980   1782980  
  5880.000000   1785841   1788532   1791048   1793415   1795671  
  5870.000000   1797846   1799960   1802015   1804008   1805944  
  5860.000000   1807840   1809726   1811636   1813597   1815624  
  5850.000000   1817722   1819890   1822127   1824438   1826829  
  5840.000000   1829300   1831839   1834421   1837009   1839574  
  5830.000000   1842091   1844561   1846996   1849422   1851855  
  5820.000000   1854311   1856786   1859272   1861755   1864221  
  5810.000000   1866663   1869069   1871440   1873766   1876064  
  5800.000000   1878334   1880619   1882927   1885295   1887702  
  5790.000000   1890136   1892514   1894765   1896769   1898431  
  5780.000000   1899629   1900283   1900303   1899654   1898318  
  5770.000000   1896356   1893863   1891007   1887958   1884908  
  5760.000000   1881987   1879299   1876864   1874687   1872724  
  5750.000000   1870957   1869354   1867907   1866596   1865394  
  5740.000000   1864262   1863153   1862031   1860873   1859688  
  5730.000000   1858490   1857316   1856180   1855101   1854071  
  5720.000000   1853088   1852144   1851247   1850403   1849627  
  5710.000000   1848920   1848281   1847695   1847149   1846624  
  5700.000000   1846111   1845597   1845072   1844522   1843933  
  5690.000000   1843303   1842635   1841960   1841305   1840708  
  5680.000000   1840176   1839708   1839256   1838769   1838171  
  5670.000000   1837401   1836401   1835140   1833592   1831758  
  5660.000000   1829652   1827316   1824805   1822204   1819591  
  5650.000000   1817047   1814616   1812321   1810149   1808076  
  5640.000000   1806070   1804115   1802203   1800341   1798535  
  5630.000000   1796788   1795099   1793459   1791870   1790333  
  5620.000000   1788865   1787469   1786155   1784909   1783718  
  5610.000000   1782556   1781414   1780286   1779185   1778124  
  5600.000000   1777117   1776163   1775253   1774372   1773510  
  5590.000000   1772662   1771834   1771036   1770271   1769534  
  5580.000000   1768806   1768064   1767287   1766465   1765596  
  5570.000000   1764687   1763744   1762772   1761766   1760726  
  5560.000000   1759650   1758549   1757438   1756338   1755261  
  5550.000000   1754215   1753195   1752193   1751199   1750212  
  5540.000000   1749228   1748249   1747270   1746283   1745275  
  5530.000000   1744242   1743184   1742115   1741055   1740023  
  5520.000000   1739029   1738071   1737138   1736217   1735295  
  5510.000000   1734366   1733425   1732464   1731468   1730412  
  5500.000000   1729273   1728040   1726718   1725338   1723943  
  5490.000000   1722575   1721257   1719993   1718756   1717520  
  5480.000000   1716254   1714946   1713596   1712217   1710820  
  5470.000000   1709413   1707994   1706560   1705113   1703656  
  5460.000000   1702198   1700739   1699272   1697776   1696230  
  5450.000000   1694619   1692949   1691246   1689551   1687902  
  5440.000000   1686327   1684832   1683413   1682056   1680764  
  5430.000000   1679545   1678419   1677388   1676442   1675543  
  5420.000000   1674656   1673740   1672799   1671856   1670977  
  5410.000000   1670216   1669623   1669191   1668902   1668698  
  5400.000000   1668552   1668437   1668376   1668392   1668530  
  5390.000000   1668802   1669221   1669763   1670428   1671200  
  5380.000000   1672106   1673154   1674380   1675774   1677347  
  5370.000000   1679058   1680910   1682868   1684962   1687179  
  5360.000000   1689571   1692129   1694907   1697895   1701163  
  5350.000000   1704717   1708640   1712936   1717675   1722820  
  5340.000000   1728409   1734379   1740773   1747543   1754756  
  5330.000000   1762371   1770455   1778951   1787912   1797282  
  5320.000000   1807140   1817464   1828378   1839873   1852071  
  5310.000000   1864932   1878540   1892819   1907835   1923525  
  5300.000000   1939982   1957176   1975227   1994115   2013942  
  5290.000000   2034649   2056269   2078665   2101787   2125460  
  5280.000000   2149635   2174207   2199232   2224726   2250821  
  5270.000000   2277547   2304938   2332881   2361221   2389739  
  5260.000000   2418252   2446647   2474897   2503055   2531162  
  5250.000000   2559252   2587232   2614990   2642296   2669021  
  5240.000000   2694996   2720244   2744747   2768649   2791971  
  5230.000000   2814830   2837164   2858985   2880139   2900597  
  5220.000000   2920221   2939058   2957066   2974393   2991058  
  5210.000000   3007218   3022839   3037975   3052479   3066329  
  5200.000000   3079360   3091607   3103008   3113693   3123663  
  5190.000000   3133049   3141815   3150028   3157607   3164604  
  5180.000000   3170955   3176747   3181937   3186608   3190698  
  5170.000000   3194259   3197225   3199667   3201565   3203026  
  5160.000000   3204046   3204701   3204931   3204750   3204067  
  5150.000000   3202904   3201227   3199124   3196618   3193812  
  5140.000000   3190713   3187377   3183775   3179939   3175852  
  5130.000000   3171567   3167092   3162483   3157734   3152870  
  5120.000000   3147865   3142732   3137460   3132078   3126593  
  5110.000000   3121034   3115403   3109714   3103965   3098181  
  5100.000000   3092387   3086633   3080956   3075392   3069948  
  5090.000000   3064614   3059362   3054167   3049002   3043861  
  5080.000000   3038736   3033627   3028519   3023398   3018240  
  5070.000000   3013030   3007756   3002424   2997037   2991609  
  5060.000000   2986131   2980602   2974999   2969312   2963520  
  5050.000000   2957627   2951626   2945530   2939335   2933054  
  5040.000000   2926682   2920232   2913705   2907118   2900471  
  5030.000000   2893774   2887018   2880202   2873319   2866376  
  5020.000000   2859385   2852373   2845370   2838409   2831520  
  5010.000000   2824723   2818036   2811463   2805011   2798673  
  5000.000000   2792453   2786337   2780333   2774434   2768667  
  4990.000000   2763041   2757599   2752351   2747335   2742535  
  4980.000000   2737966   2733591   2729420   2725423   2721631  
  4970.000000   2718036   2714687   2711579   2708754   2706192  
  4960.000000   2703925   2701929   2700241   2698840   2697772  
  4950.000000   2697010   2696587   2696463   2696665   2697150  
  4940.000000   2697961   2699073   2700545   2702356   2704552  
  4930.000000   2707094   2710006   2713239   2716817   2720707  
  4920.000000   2724954   2729539   2734511   2739845   2745567  
  4910.000000   2751636   2758059   2764790   2771825   2779117  
  4900.000000   2786646   2794357   2802213   2810164   2818174  
  4890.000000   2826214   2834258   2842291   2850279   2858194  
  4880.000000   2865971   2873566   2880895   2887916   2894550  
  4870.000000   2900776   2906527   2911802   2916554   2920802  
  4860.000000   2924520   2927753   2930496   2932811   2934701  
  4850.000000   2936232   2937409   2938294   2938897   2939277  
  4840.000000   2939446   2939458   2939328   2939106   2938814  
  4830.000000   2938505   2938209   2937976   2937827   2937785  
  4820.000000   2937843   2937992   2938210   2938479   2938792  
  4810.000000   2939149   2939567   2940054   2940628   2941284  
  4800.000000   2942025   2942837   2943716   2944655   2945662  
  4790.000000   2946738   2947897   2949144   2950487   2951920  
  4780.000000   2953438   2955021   2956647   2958282   2959892  
  4770.000000   2961446   2962925   2964324   2965656   2966945  
  4760.000000   2968213   2969477   2970735   2971972   2973163  
  4750.000000   2974291   2975342   2976325   2977253   2978152  
  4740.000000   2979037   2979918   2980792   2981651   2982486  
  4730.000000   2983292   2984065   2984805   2985504   2986153  
  4720.000000   2986740   2987258   2987717   2988134   2988553  
  4710.000000   2989008   2989546   2990187   2990952   2991840  
  4700.000000   2992864   2994030   2995368   2996901   2998664  
  4690.000000   3000668   3002918   3005383   3008030   3010798  
  4680.000000   3013637   3016479   3019281   3021989   3024579  
  4670.000000   3027023   3029335   3031525   3033646   3035743  
  4660.000000   3037882   3040108   3042475   3045009   3047741  
  4650.000000   3050681   3053839   3057209   3060778   3064515  
  4640.000000   3068379   3072328   3076320   3080328   3084332  
  4630.000000   3088327   3092300   3096236   3100100   3103851  
  4620.000000   3107432   3110801   3113912   3116756   3119319  
  4610.000000   3121624   3123674   3125506   3127123   3128564  
  4600.000000   3129833   3130972   3131982   3132900   3133714  
  4590.000000   3134441   3135051   3135542   3135876   3136047  
  4580.000000   3136024   3135810   3135389   3134778   3133977  
  4570.000000   3133015   3131904   3130677   3129345   3127934  
  4560.000000   3126442   3124885   3123257   3121571   3119828  
  4550.000000   3118046   3116232   3114403   3112562   3110717  
  4540.000000   3108867   3107015   3105166   3103323   3101496  
  4530.000000   3099683   3097888   3096099   3094321   3092543  
  4520.000000   3090790   3089068   3087429   3085891   3084520  
  4510.000000   3083329   3082385   3081692   3081319   3081266  
  4500.000000   3081605   3082327   3083503   3085114   3087231  
  4490.000000   3089836   3093018   3096774   3101200   3106290  
  4480.000000   3112120   3118647   3125905   3133810   3142367  
  4470.000000   3151477   3161133   3171232   3181764   3192628  
  4460.000000   3203813   3215236   3226906   3238773   3250870  
  4450.000000   3263170   3275702   3288436   3301371   3314469  
  4440.000000   3327708   3341054   3354484   3367978   3381502  
  4430.000000   3395034   3408518   3421917   3435154   3448192  
  4420.000000   3460952   3473412   3485499   3497201   3508443  
  4410.000000   3519205   3529406   3539027   3547996   3556325  
  4400.000000   3563988   3571045   3577529   3583546   3589167  
  4390.000000   3594523   3599694   3604804   3609914   3615113  
  4380.000000   3620421   3625877   3631462   3637188   3643031  
  4370.000000   3649003   3655096   3661322   3667667   3674118  
  4360.000000   3680629   3687165   3693656   3700076   3706344  
  4350.000000   3712461   3718338   3723999   3729366   3734506  
  4340.000000   3739389   3744109   3748617   3752882   3756644  
  4330.000000   3759577   3761153   3760878   3758289   3753202  
  4320.000000   3745706   3736271   3725588   3714515   3703828  
  4310.000000   3694164   3685857   3679016   3673517   3669148  
  4300.000000   3665665   3662877   3660664   3658951   3657725  
  4290.000000   3656939   3656601   3656654   3657114   3657943  
  4280.000000   3659169   3660766   3662731   3665025   3667601  
  4270.000000   3670413   3673393   3676472   3679515   3682342  
  4260.000000   3684678   3686208   3686601   3685606   3683095  
  4250.000000   3679141   3673980   3668017   3661693   3655465  
  4240.000000   3649665   3644530   3640116   3636401   3633250  
  4230.000000   3630528   3628076   3625769   3623506   3621214  
  4220.000000   3618863   3616434   3613974   3611520   3609184  
  4210.000000   3607038   3605202   3603722   3602655   3601978  
  4200.000000   3601669   3601645   3601848   3602190   3602636  
  4190.000000   3603136   3603703   3604324   3605043   3605854  
  4180.000000   3606805   3607881   3609123   3610519   3612123  
  4170.000000   3613946   3616063   3618498   3621326   3624552  
  4160.000000   3628222   3632300   3636799   3641659   3646885  
  4150.000000   3652417   3658273   3664407   3670856   3677592  
  4140.000000   3684668   3692068   3699851   3707997   3716554  
  4130.000000   3725481   3734805   3744471   3754502   3764854  
  4120.000000   3775565   3786617   3798064   3809906   3822197  
  4110.000000   3834935   3848160   3861846   3875993   3890534  
  4100.000000   3905413   3920525   3935789   3951107   3966428  
  4090.000000   3981711   3996949   4012149   4027316   4042463  
  4080.000000   4057576   4072662   4087686   4102655   4117514  
  4070.000000   4132254   4146785   4161070   4174990   4188511  
  4060.000000   4201525   4214030   4225948   4237309   4248056  
  4050.000000   4258243   4267834   4276914   4285456   4293546  
  4040.000000   4301130   4308252   4314813   4320835   4326227  
  4030.000000   4331049   4335258   4338939   4342061   4344680  
  4020.000000   4346721   4348229   4349189   4349678   4349690  
  4010.000000   4349354   4348742   4347865   4346532   4344751  
  4000.000000   4342732  
##END= 
