##TITLE= Sample 026 By ssteindl date Dienstag, November 20 2018
##JCAMP-DX= 4.24
##DATA TYPE= INFRARED SPECTRUM
##ORIGIN= Exported PE Spectrum Data File
##OWNER= Sandra Steindl
##DATE= 18/11/20
##TIME= 14:50:34.00
##SPECTROMETER/DATA SYSTEM= PERKIN-ELMER Frontier FT-IR/NIR IR
##INSTRUMENT PARAMETERS=
  APODIZATION=stark
  DETECTOR=INGAAS
##RESOLUTION= 16.000000
##DELTAX= -2.000000
##XUNITS= 1/CM
##YUNITS= A
##XFACTOR= 1.00
##YFACTOR= 0.00000011920928955078
##FIRSTX= 10000.00
##LASTX= 4000.00
##NPOINTS= 3001
##FIRSTY= 0.201955
##MAXY= 0.591789
##MINY= 0.176819
##XYDATA= (X++(Y..Y))
 10000.000000   1694119   1690785   1686884   1681860   1676201  
  9990.000000   1670972   1666914   1664103   1662239   1660730  
  9980.000000   1658851   1656021   1652272   1648175   1644615  
  9970.000000   1642330   1641669   1642368   1643760   1645035  
  9960.000000   1645691   1645652   1645331   1645281   1645986  
  9950.000000   1647527   1649679   1651968   1654031   1655721  
  9940.000000   1657159   1658579   1660105   1661702   1663178  
  9930.000000   1664470   1665761   1667606   1670655   1675352  
  9920.000000   1681523   1688226   1693953   1697054   1696452  
  9910.000000   1692016   1684734   1676288   1668422   1662333  
  9900.000000   1658295   1655897   1654405   1653446   1653169  
  9890.000000   1654310   1657567   1663235   1670657   1678417  
  9880.000000   1684677   1687900   1687418   1683596   1677668  
  9870.000000   1671057   1664887   1659513   1654663   1649718  
  9860.000000   1644244   1638246   1632190   1626735   1622330  
  9850.000000   1619058   1616597   1614578   1612870   1611794  
  9840.000000   1612036   1614256   1618728   1624961   1631871  
  9830.000000   1638000   1642219   1643996   1643711   1642269  
  9820.000000   1640748   1639872   1639776   1640166   1640572  
  9810.000000   1640866   1641342   1642759   1645868   1651079  
  9800.000000   1658031   1665613   1672166   1675993   1675916  
  9790.000000   1671591   1663673   1653498   1642750   1632994  
  9780.000000   1625360   1620452   1618290   1618529   1620526  
  9770.000000   1623610   1627124   1630592   1633706   1636319  
  9760.000000   1638406   1639930   1640861   1641064   1640452  
  9750.000000   1638982   1636804   1634276   1631917   1630350  
  9740.000000   1630079   1631420   1634290   1638263   1642520  
  9730.000000   1646086   1647950   1647374   1644035   1638172  
  9720.000000   1630563   1622342   1614781   1608894   1605236  
  9710.000000   1603682   1603523   1603687   1603081   1601004  
  9700.000000   1597301   1592483   1587504   1583514   1581542  
  9690.000000   1582173   1585473   1590861   1597324   1603499  
  9680.000000   1608040   1609851   1608438   1604061   1597776  
  9670.000000   1591194   1586082   1583848   1585113   1589505  
  9660.000000   1595736   1602041   1606680   1608545   1607404  
  9650.000000   1603952   1599445   1595232   1592290   1590925  
  9640.000000   1590820   1591212   1591283   1590405   1588346  
  9630.000000   1585271   1581648   1578129   1575360   1573872  
  9620.000000   1573939   1575512   1578219   1581397   1584302  
  9610.000000   1586286   1587063   1586796   1586047   1585554  
  9600.000000   1585911   1587322   1589522   1591895   1593786  
  9590.000000   1594781   1594870   1594398   1593819   1593453  
  9580.000000   1593293   1593046   1592334   1590919   1588909  
  9570.000000   1586703   1584822   1583624   1583101   1582892  
  9560.000000   1582480   1581519   1580090   1578733   1578244  
  9550.000000   1579286   1582010   1585932   1590049   1593287  
  9540.000000   1594921   1594907   1593857   1592778   1592607  
  9530.000000   1593843   1596301   1599234   1601600   1602489  
  9520.000000   1601426   1598496   1594237   1589401   1584655  
  9510.000000   1580432   1576836   1573756   1570961   1568240  
  9500.000000   1565474   1562666   1559934   1557469   1555471  
  9490.000000   1554084   1553350   1553150   1553275   1553414  
  9480.000000   1553332   1552870   1552091   1551180   1550457  
  9470.000000   1550195   1550592   1551669   1553324   1555369  
  9460.000000   1557584   1559799   1561864   1563719   1565326  
  9450.000000   1566728   1568003   1569274   1570661   1572185  
  9440.000000   1573705   1574828   1575010   1573685   1570543  
  9430.000000   1565678   1559667   1553431   1547990   1544190  
  9420.000000   1542437   1542660   1544330   1546757   1549293  
  9410.000000   1551583   1553570   1555422   1557363   1559507  
  9400.000000   1561796   1563972   1565703   1566634   1566570  
  9390.000000   1565466   1563507   1561022   1558417   1556117  
  9380.000000   1554420   1553505   1553319   1553668   1554244  
  9370.000000   1554765   1555044   1555032   1554770   1554326  
  9360.000000   1553698   1552796   1551486   1549698   1547563  
  9350.000000   1545447   1543888   1543387   1544198   1546176  
  9340.000000   1548774   1551209   1552698   1552756   1551331  
  9330.000000   1548845   1545983   1543455   1541759   1541091  
  9320.000000   1541384   1542375   1543710   1544962   1545694  
  9310.000000   1545472   1543973   1541060   1536916   1532076  
  9300.000000   1527376   1523751   1521937   1522215   1524292  
  9290.000000   1527434   1530754   1533543   1535482   1536676  
  9280.000000   1537476   1538232   1539051   1539759   1540012  
  9270.000000   1539524   1538285   1536627   1535128   1534334  
  9260.000000   1534488   1535389   1536441   1536893   1536120  
  9250.000000   1533838   1530202   1525714   1521059   1516866  
  9240.000000   1513566   1511368   1510316   1510372   1511441  
  9230.000000   1513367   1515903   1518730   1521488   1523869  
  9220.000000   1525691   1526947   1527790   1528422   1529016  
  9210.000000   1529591   1530054   1530238   1530020   1529369  
  9200.000000   1528365   1527153   1525873   1524626   1523411  
  9190.000000   1522202   1520936   1519636   1518364   1517251  
  9180.000000   1516424   1515991   1516037   1516565   1517500  
  9170.000000   1518628   1519639   1520142   1519764   1518253  
  9160.000000   1515620   1512243   1508841   1506281   1505306  
  9150.000000   1506311   1509211   1513404   1517915   1521689  
  9140.000000   1523910   1524187   1522596   1519629   1516065  
  9130.000000   1512747   1510402   1509464   1510052   1511931  
  9120.000000   1514584   1517299   1519339   1520174   1519627  
  9110.000000   1517957   1515737   1513710   1512528   1512540  
  9100.000000   1513679   1515531   1517546   1519246   1520374  
  9090.000000   1520938   1521111   1521099   1520985   1520723  
  9080.000000   1520200   1519338   1518193   1516943   1515815  
  9070.000000   1514962   1514364   1513864   1513239   1512381  
  9060.000000   1511354   1510401   1509808   1509745   1510141  
  9050.000000   1510661   1510849   1510311   1508934   1506914  
  9040.000000   1504715   1502833   1501628   1501182   1501312  
  9030.000000   1501708   1502084   1502350   1502584   1502995  
  9020.000000   1503742   1504882   1506316   1507839   1509220  
  9010.000000   1510245   1510788   1510697   1509832   1507994  
  9000.000000   1505094   1501181   1496575   1491826   1487629  
  8990.000000   1484642   1483266   1483591   1485360   1488155  
  8980.000000   1491503   1495068   1498656   1502189   1505592  
  8970.000000   1508686   1511233   1512945   1513669   1513383  
  8960.000000   1512275   1510615   1508703   1506753   1504870  
  8950.000000   1503118   1501567   1500370   1499701   1499710  
  8940.000000   1500385   1501525   1502728   1503562   1503706  
  8930.000000   1503111   1502008   1500837   1500084   1500089  
  8920.000000   1500950   1502474   1504295   1505963   1507107  
  8910.000000   1507481   1507020   1505783   1503945   1501762  
  8900.000000   1499566   1497724   1496574   1496357   1497144  
  8890.000000   1498803   1501009   1503349   1505449   1507078  
  8880.000000   1508191   1508875   1509302   1509599   1509830  
  8870.000000   1509967   1509967   1509830   1509638   1509562  
  8860.000000   1509779   1510448   1511614   1513239   1515159  
  8850.000000   1517177   1519067   1520619   1521650   1521996  
  8840.000000   1521595   1520441   1518681   1516519   1514246  
  8830.000000   1512110   1510297   1508877   1507838   1507181  
  8820.000000   1506977   1507426   1508780   1511278   1514984  
  8810.000000   1519710   1524994   1530188   1534664   1537953  
  8800.000000   1539922   1540713   1540713   1540349   1539974  
  8790.000000   1539765   1539714   1539744   1539770   1539837  
  8780.000000   1540071   1540676   1541771   1543345   1545167  
  8770.000000   1546860   1547980   1548165   1547271   1545407  
  8760.000000   1542944   1540393   1538285   1537034   1536840  
  8750.000000   1537678   1539317   1541430   1543677   1545791  
  8740.000000   1547622   1549107   1550259   1551092   1551639  
  8730.000000   1551894   1551890   1551656   1551297   1550943  
  8720.000000   1550756   1550894   1551466   1552557   1554188  
  8710.000000   1556361   1559013   1562041   1565271   1568469  
  8700.000000   1571370   1573699   1575272   1575993   1575933  
  8690.000000   1575255   1574221   1573097   1572129   1571504  
  8680.000000   1571349   1571755   1572761   1574381   1576535  
  8670.000000   1579099   1581867   1584633   1587209   1589481  
  8660.000000   1591427   1593077   1594493   1595665   1596539  
  8650.000000   1596987   1596920   1596312   1595278   1594058  
  8640.000000   1592965   1592310   1592290   1592989   1594349  
  8630.000000   1596245   1598501   1600959   1603483   1605948  
  8620.000000   1608231   1610192   1611730   1612780   1613392  
  8610.000000   1613680   1613846   1614070   1614501   1615189  
  8600.000000   1616112   1617207   1618415   1619729   1621174  
  8590.000000   1622816   1624690   1626807   1629112   1631522  
  8580.000000   1633929   1636229   1638328   1640136   1641583  
  8570.000000   1642598   1643154   1643266   1643024   1642573  
  8560.000000   1642085   1641719   1641579   1641716   1642122  
  8550.000000   1642791   1643715   1644918   1646412   1648188  
  8540.000000   1650175   1652240   1654210   1655916   1657256  
  8530.000000   1658212   1658864   1659335   1659768   1660263  
  8520.000000   1660872   1661596   1662409   1663284   1664203  
  8510.000000   1665157   1666138   1667135   1668125   1669090  
  8500.000000   1670013   1670897   1671753   1672596   1673446  
  8490.000000   1674324   1675260   1676294   1677466   1678790  
  8480.000000   1680225   1681667   1682966   1683965   1684571  
  8470.000000   1684809   1684842   1684934   1685354   1686288  
  8460.000000   1687753   1689601   1691555   1693330   1694738  
  8450.000000   1695747   1696486   1697154   1697932   1698881  
  8440.000000   1699924   1700863   1701489   1701682   1701488  
  8430.000000   1701120   1700881   1701085   1701931   1703463  
  8420.000000   1705527   1707857   1710145   1712138   1713688  
  8410.000000   1714761   1715404   1715706   1715726   1715502  
  8400.000000   1715038   1714368   1713584   1712840   1712329  
  8390.000000   1712210   1712542   1713223   1713971   1714418  
  8380.000000   1714219   1713200   1711437   1709270   1707222  
  8370.000000   1705837   1705495   1706290   1707996   1710164  
  8360.000000   1712268   1713880   1714789   1715032   1714836  
  8350.000000   1714482   1714191   1714039   1713992   1713924  
  8340.000000   1713727   1713338   1712787   1712155   1711522  
  8330.000000   1710953   1710473   1710122   1709940   1710005  
  8320.000000   1710379   1711084   1712047   1713096   1713992  
  8310.000000   1714504   1714499   1713984   1713103   1712076  
  8300.000000   1711118   1710360   1709807   1709363   1708892  
  8290.000000   1708304   1707591   1706851   1706232   1705886  
  8280.000000   1705883   1706200   1706696   1707180   1707453  
  8270.000000   1707373   1706894   1706074   1705065   1704060  
  8260.000000   1703235   1702699   1702451   1702390   1702327  
  8250.000000   1702061   1701436   1700408   1699062   1697590  
  8240.000000   1696208   1695098   1694317   1693813   1693420  
  8230.000000   1692963   1692312   1691455   1690486   1689564  
  8220.000000   1688828   1688322   1687976   1687601   1686980  
  8210.000000   1685911   1684310   1682218   1679810   1677337  
  8200.000000   1675056   1673197   1671896   1671220   1671134  
  8190.000000   1671556   1672343   1673325   1674303   1675076  
  8180.000000   1675458   1675301   1674526   1673119   1671153  
  8170.000000   1668752   1666093   1663364   1660742   1658378  
  8160.000000   1656359   1654732   1653470   1652525   1651804  
  8150.000000   1651225   1650699   1650151   1649517   1648730  
  8140.000000   1647738   1646490   1644979   1643224   1641306  
  8130.000000   1639330   1637430   1635720   1634284   1633152  
  8120.000000   1632310   1631713   1631298   1631005   1630782  
  8110.000000   1630581   1630362   1630081   1629706   1629212  
  8100.000000   1628604   1627909   1627181   1626482   1625876  
  8090.000000   1625411   1625105   1624954   1624915   1624926  
  8080.000000   1624899   1624739   1624363   1623709   1622762  
  8070.000000   1621553   1620154   1618662   1617172   1615768  
  8060.000000   1614499   1613409   1612523   1611869   1611460  
  8050.000000   1611281   1611259   1611261   1611107   1610611  
  8040.000000   1609651   1608207   1606392   1604415   1602531  
  8030.000000   1600948   1599781   1599015   1598542   1598212  
  8020.000000   1597904   1597562   1597202   1596870   1596602  
  8010.000000   1596385   1596159   1595835   1595351   1594701  
  8000.000000   1593951   1593210   1592594   1592172   1591952  
  7990.000000   1591873   1591838   1591751   1591541   1591179  
  7980.000000   1590664   1590016   1589261   1588435   1587589  
  7970.000000   1586797   1586145   1585707   1585518   1585541  
  7960.000000   1585673   1585766   1585681   1585337   1584741  
  7950.000000   1583993   1583252   1582680   1582395   1582420  
  7940.000000   1582700   1583105   1583490   1583721   1583719  
  7930.000000   1583468   1583011   1582447   1581898   1581501  
  7920.000000   1581364   1581553   1582057   1582787   1583581  
  7910.000000   1584242   1584589   1584504   1583969   1583070  
  7900.000000   1581966   1580841   1579846   1579070   1578521  
  7890.000000   1578159   1577918   1577759   1577672   1577681  
  7880.000000   1577806   1578033   1578298   1578477   1578436  
  7870.000000   1578050   1577274   1576146   1574807   1573453  
  7860.000000   1572295   1571511   1571191   1571347   1571899  
  7850.000000   1572729   1573697   1574685   1575602   1576379  
  7840.000000   1576970   1577319   1577377   1577091   1576443  
  7830.000000   1575451   1574205   1572846   1571556   1570522  
  7820.000000   1569887   1569730   1570028   1570681   1571515  
  7810.000000   1572343   1572991   1573345   1573366   1573092  
  7800.000000   1572624   1572083   1571589   1571220   1571008  
  7790.000000   1570933   1570942   1570977   1570986   1570955  
  7780.000000   1570887   1570813   1570749   1570703   1570640  
  7770.000000   1570506   1570230   1569754   1569050   1568135  
  7760.000000   1567060   1565904   1564745   1563642   1562618  
  7750.000000   1561667   1560760   1559861   1558947   1558009  
  7740.000000   1557060   1556120   1555213   1554359   1553571  
  7730.000000   1552867   1552269   1551811   1551536   1551478  
  7720.000000   1551652   1552032   1552546   1553075   1553482  
  7710.000000   1553622   1553395   1552753   1551729   1550426  
  7700.000000   1549013   1547680   1546610   1545931   1545686  
  7690.000000   1545827   1546213   1546654   1546951   1546960  
  7680.000000   1546627   1546002   1545223   1544459   1543862  
  7670.000000   1543509   1543394   1543432   1543505   1543511  
  7660.000000   1543407   1543220   1543026   1542911   1542922  
  7650.000000   1543040   1543185   1543240   1543112   1542750  
  7640.000000   1542189   1541518   1540860   1540332   1540007  
  7630.000000   1539917   1540048   1540370   1540847   1541450  
  7620.000000   1542141   1542871   1543570   1544153   1544537  
  7610.000000   1544661   1544513   1544121   1543558   1542909  
  7600.000000   1542265   1541696   1541260   1540999   1540938  
  7590.000000   1541087   1541430   1541918   1542475   1543010  
  7580.000000   1543445   1543737   1543895   1543967   1544027  
  7570.000000   1544138   1544338   1544622   1544969   1545350  
  7560.000000   1545764   1546231   1546778   1547421   1548141  
  7550.000000   1548877   1549548   1550083   1550460   1550704  
  7540.000000   1550894   1551100   1551376   1551704   1552026  
  7530.000000   1552257   1552354   1552335   1552304   1552415  
  7520.000000   1552820   1553615   1554806   1556297   1557941  
  7510.000000   1559579   1561108   1562487   1563750   1564956  
  7500.000000   1566173   1567427   1568720   1570018   1571300  
  7490.000000   1572554   1573801   1575069   1576384   1577751  
  7480.000000   1579146   1580531   1581873   1583160   1584416  
  7470.000000   1585682   1587012   1588428   1589930   1591468  
  7460.000000   1592978   1594392   1595684   1596874   1598044  
  7450.000000   1599312   1600805   1602625   1604822   1607376  
  7440.000000   1610202   1613162   1616117   1618935   1621534  
  7430.000000   1623875   1625973   1627869   1629629   1631310  
  7420.000000   1632969   1634648   1636384   1638203   1640122  
  7410.000000   1642139   1644225   1646338   1648414   1650404  
  7400.000000   1652276   1654044   1655752   1657479   1659306  
  7390.000000   1661293   1663457   1665765   1668145   1670500  
  7380.000000   1672733   1674766   1676562   1678128   1679506  
  7370.000000   1680770   1682008   1683314   1684769   1686428  
  7360.000000   1688306   1690371   1692545   1694716   1696766  
  7350.000000   1698601   1700172   1701498   1702669   1703817  
  7340.000000   1705086   1706589   1708379   1710439   1712688  
  7330.000000   1715001   1717247   1719326   1721182   1722823  
  7320.000000   1724304   1725711   1727126   1728611   1730188  
  7310.000000   1731840   1733519   1735169   1736731   1738175  
  7300.000000   1739488   1740691   1741814   1742908   1744010  
  7290.000000   1745157   1746357   1747597   1748831   1749998  
  7280.000000   1751031   1751876   1752511   1752960   1753288  
  7270.000000   1753592   1753975   1754514   1755242   1756144  
  7260.000000   1757167   1758239   1759301   1760317   1761294  
  7250.000000   1762254   1763244   1764288   1765410   1766599  
  7240.000000   1767852   1769153   1770518   1771961   1773523  
  7230.000000   1775224   1777084   1779083   1781204   1783398  
  7220.000000   1785640   1787898   1790178   1792492   1794884  
  7210.000000   1797392   1800069   1802943   1806032   1809313  
  7200.000000   1812741   1816235   1819717   1823104   1826352  
  7190.000000   1829441   1832408   1835301   1838197   1841147  
  7180.000000   1844189   1847314   1850501   1853710   1856927  
  7170.000000   1860147   1863413   1866763   1870255   1873905  
  7160.000000   1877716   1881645   1885654   1889702   1893793  
  7150.000000   1897957   1902271   1906804   1911625   1916729  
  7140.000000   1922074   1927533   1932977   1938263   1943322  
  7130.000000   1948131   1952760   1957311   1961931   1966739  
  7120.000000   1971841   1977276   1983052   1989123   1995434  
  7110.000000   2001904   2008465   2015038   2021570   2028013  
  7100.000000   2034366   2040644   2046914   2053235   2059677  
  7090.000000   2066262   2072987   2079795   2086621   2093399  
  7080.000000   2100097   2106716   2113296   2119888   2126542  
  7070.000000   2133279   2140095   2146958   2153829   2160667  
  7060.000000   2167445   2174146   2180766   2187311   2193797  
  7050.000000   2200253   2206714   2213223   2219806   2226472  
  7040.000000   2233193   2239915   2246567   2253090   2259440  
  7030.000000   2265614   2271633   2277544   2283383   2289188  
  7020.000000   2294966   2300727   2306467   2312194   2317907  
  7010.000000   2323614   2329301   2334951   2340521   2345983  
  7000.000000   2351298   2356462   2361465   2366331   2371068  
  6990.000000   2375709   2380267   2384773   2389234   2393666  
  6980.000000   2398042   2402330   2406456   2410359   2413980  
  6970.000000   2417321   2420419   2423368   2426258   2429178  
  6960.000000   2432144   2435137   2438073   2440886   2443516  
  6950.000000   2445979   2448321   2450633   2452979   2455402  
  6940.000000   2457870   2460321   2462659   2464809   2466721  
  6930.000000   2468401   2469883   2471236   2472518   2473788  
  6920.000000   2475071   2476382   2477706   2479031   2480331  
  6910.000000   2481599   2482829   2484035   2485224   2486413  
  6900.000000   2487597   2488764   2489885   2490934   2491891  
  6890.000000   2492761   2493566   2494341   2495113   2495895  
  6880.000000   2496673   2497427   2498135   2498802   2499454  
  6870.000000   2500143   2500912   2501785   2502741   2503725  
  6860.000000   2504662   2505483   2506151   2506671   2507082  
  6850.000000   2507439   2507794   2508179   2508603   2509063  
  6840.000000   2509549   2510060   2510595   2511157   2511739  
  6830.000000   2512330   2512908   2513456   2513956   2514398  
  6820.000000   2514769   2515058   2515250   2515343   2515349  
  6810.000000   2515311   2515288   2515350   2515542   2515874  
  6800.000000   2516294   2516715   2517030   2517151   2517032  
  6790.000000   2516685   2516164   2515548   2514914   2514320  
  6780.000000   2513800   2513374   2513044   2512810   2512654  
  6770.000000   2512549   2512441   2512277   2512003   2511595  
  6760.000000   2511059   2510434   2509772   2509119   2508506  
  6750.000000   2507939   2507420   2506952   2506552   2506244  
  6740.000000   2506041   2505934   2505876   2505795   2505617  
  6730.000000   2505295   2504827   2504265   2503681   2503153  
  6720.000000   2502721   2502389   2502124   2501881   2501624  
  6710.000000   2501338   2501016   2500652   2500216   2499667  
  6700.000000   2498957   2498069   2497026   2495901   2494789  
  6690.000000   2493783   2492924   2492203   2491550   2490886  
  6680.000000   2490137   2489284   2488347   2487385   2486447  
  6670.000000   2485564   2484715   2483858   2482930   2481889  
  6660.000000   2480715   2479418   2478021   2476551   2475024  
  6650.000000   2473455   2471852   2470238   2468636   2467084  
  6640.000000   2465605   2464214   2462904   2461660   2460452  
  6630.000000   2459248   2458014   2456709   2455293   2453725  
  6620.000000   2451982   2450070   2448031   2445946   2443914  
  6610.000000   2442028   2440346   2438879   2437580   2436372  
  6600.000000   2435155   2433845   2432383   2430748   2428956  
  6590.000000   2427048   2425085   2423130   2421236   2419439  
  6580.000000   2417744   2416131   2414562   2412998   2411412  
  6570.000000   2409809   2408214   2406667   2405198   2403808  
  6560.000000   2402468   2401124   2399726   2398251   2396719  
  6550.000000   2395180   2393702   2392326   2391057   2389849  
  6540.000000   2388633   2387341   2385945   2384462   2382955  
  6530.000000   2381500   2380156   2378948   2377858   2376838  
  6520.000000   2375840   2374824   2373779   2372706   2371614  
  6510.000000   2370509   2369392   2368263   2367131   2366017  
  6500.000000   2364948   2363951   2363033   2362183   2361370  
  6490.000000   2360560   2359725   2358855   2357949   2357010  
  6480.000000   2356029   2354983   2353841   2352582   2351205  
  6470.000000   2349744   2348255   2346804   2345440   2344189  
  6460.000000   2343047   2341991   2340995   2340043   2339131  
  6450.000000   2338261   2337429   2336616   2335789   2334908  
  6440.000000   2333949   2332903   2331796   2330666   2329562  
  6430.000000   2328523   2327572   2326715   2325946   2325251  
  6420.000000   2324614   2324019   2323449   2322883   2322302  
  6410.000000   2321691   2321043   2320361   2319657   2318945  
  6400.000000   2318240   2317554   2316899   2316289   2315739  
  6390.000000   2315264   2314867   2314537   2314245   2313950  
  6380.000000   2313613   2313209   2312738   2312224   2311701  
  6370.000000   2311200   2310730   2310278   2309812   2309300  
  6360.000000   2308718   2308068   2307369   2306655   2305953  
  6350.000000   2305288   2304663   2304082   2303534   2303013  
  6340.000000   2302503   2301985   2301432   2300819   2300128  
  6330.000000   2299366   2298557   2297744   2296962   2296235  
  6320.000000   2295545   2294851   2294092   2293223   2292219  
  6310.000000   2291101   2289912   2288712   2287541   2286417  
  6300.000000   2285320   2284219   2283070   2281844   2280521  
  6290.000000   2279103   2277593   2276007   2274362   2272692  
  6280.000000   2271031   2269429   2267916   2266505   2265167  
  6270.000000   2263852   2262482   2260994   2259345   2257539  
  6260.000000   2255608   2253609   2251587   2249577   2247581  
  6250.000000   2245588   2243579   2241543   2239478   2237389  
  6240.000000   2235278   2233145   2230980   2228785   2226572  
  6230.000000   2224373   2222230   2220185   2218260   2216450  
  6220.000000   2214718   2213013   2211277   2209473   2207582  
  6210.000000   2205611   2203583   2201523   2199455   2197394  
  6200.000000   2195355   2193345   2191376   2189455   2187586  
  6190.000000   2185764   2183981   2182224   2180484   2178759  
  6180.000000   2177052   2175367   2173712   2172092   2170513  
  6170.000000   2168981   2167508   2166103   2164771   2163503  
  6160.000000   2162279   2161060   2159809   2158490   2157089  
  6150.000000   2155611   2154082   2152535   2151005   2149516  
  6140.000000   2148082   2146704   2145380   2144099   2142851  
  6130.000000   2141620   2140390   2139141   2137863   2136555  
  6120.000000   2135235   2133929   2132672   2131484   2130379  
  6110.000000   2129345   2128365   2127410   2126463   2125515  
  6100.000000   2124573   2123646   2122754   2121902   2121101  
  6090.000000   2120350   2119655   2119014   2118436   2117913  
  6080.000000   2117446   2117022   2116640   2116292   2115993  
  6070.000000   2115752   2115594   2115523   2115553   2115668  
  6060.000000   2115865   2116126   2116453   2116840   2117302  
  6050.000000   2117834   2118450   2119136   2119898   2120725  
  6040.000000   2121633   2122627   2123732   2124954   2126307  
  6030.000000   2127782   2129378   2131078   2132877   2134761  
  6020.000000   2136724   2138743   2140806   2142880   2144954  
  6010.000000   2147009   2149056   2151100   2153165   2155258  
  6000.000000   2157389   2159544   2161721   2163908   2166115  
  5990.000000   2168353   2170649   2173017   2175475   2178016  
  5980.000000   2180635   2183316   2186056   2188848   2191703  
  5970.000000   2194620   2197607   2200652   2203751   2206887  
  5960.000000   2210058   2213253   2216477   2219721   2222985  
  5950.000000   2226256   2229534   2232813   2236105   2239419  
  5940.000000   2242776   2246184   2249648   2253166   2256737  
  5930.000000   2260361   2264045   2267800   2271625   2275510  
  5920.000000   2279419   2283303   2287103   2290767   2294263  
  5910.000000   2297579   2300723   2303718   2306585   2309353  
  5900.000000   2312046   2314701   2317351   2320042   2322799  
  5890.000000   2325640   2328545   2331485   2334409   2337280  
  5880.000000   2340066   2342760   2345363   2347880   2350305  
  5870.000000   2352622   2354815   2356875   2358817   2360677  
  5860.000000   2362512   2364373   2366299   2368306   2370387  
  5850.000000   2372532   2374732   2376994   2379334   2381771  
  5840.000000   2384313   2386949   2389657   2392406   2395169  
  5830.000000   2397932   2400691   2403442   2406177   2408873  
  5820.000000   2411499   2414028   2416443   2418749   2420958  
  5810.000000   2423094   2425158   2427151   2429042   2430826  
  5800.000000   2432486   2434061   2435576   2437094   2438622  
  5790.000000   2440170   2441670   2443055   2444207   2445042  
  5780.000000   2445463   2445428   2444897   2443879   2442390  
  5770.000000   2440498   2438279   2435852   2433325   2430816  
  5760.000000   2428398   2426129   2424014   2422055   2420234  
  5750.000000   2418555   2417016   2415631   2414399   2413309  
  5740.000000   2412335   2411440   2410598   2409781   2408991  
  5730.000000   2408223   2407489   2406784   2406111   2405462  
  5720.000000   2404843   2404256   2403720   2403241   2402827  
  5710.000000   2402468   2402151   2401860   2401592   2401348  
  5700.000000   2401142   2400981   2400864   2400778   2400695  
  5690.000000   2400599   2400479   2400350   2400229   2400143  
  5680.000000   2400090   2400055   2399983   2399817   2399487  
  5670.000000   2398949   2398169   2397143   2395873   2394379  
  5660.000000   2392679   2390811   2388816   2386756   2384689  
  5650.000000   2382676   2380750   2378931   2377207   2375564  
  5640.000000   2373981   2372448   2370965   2369537   2368167  
  5630.000000   2366854   2365593   2364375   2363205   2362086  
  5620.000000   2361033   2360050   2359136   2358270   2357429  
  5610.000000   2356587   2355733   2354866   2354003   2353157  
  5600.000000   2352337   2351540   2350751   2349956   2349148  
  5590.000000   2348334   2347528   2346746   2345993   2345257  
  5580.000000   2344514   2343736   2342902   2342009   2341064  
  5570.000000   2340087   2339089   2338076   2337040   2335973  
  5560.000000   2334868   2333729   2332566   2331394   2330222  
  5550.000000   2329052   2327880   2326706   2325536   2324387  
  5540.000000   2323280   2322233   2321245   2320303   2319376  
  5530.000000   2318438   2317472   2316479   2315473   2314475  
  5520.000000   2313492   2312520   2311538   2310523   2309453  
  5510.000000   2308325   2307145   2305930   2304693   2303444  
  5500.000000   2302183   2300911   2299634   2298368   2297122  
  5490.000000   2295906   2294705   2293494   2292231   2290888  
  5480.000000   2289448   2287928   2286355   2284770   2283197  
  5470.000000   2281643   2280086   2278499   2276850   2275123  
  5460.000000   2273313   2271431   2269484   2267480   2265421  
  5450.000000   2263315   2261175   2259029   2256903   2254824  
  5440.000000   2252803   2250836   2248916   2247037   2245211  
  5430.000000   2243452   2241783   2240206   2238708   2237248  
  5420.000000   2235798   2234329   2232867   2231452   2230163  
  5410.000000   2229048   2228140   2227407   2226806   2226269  
  5400.000000   2225774   2225308   2224918   2224639   2224518  
  5390.000000   2224553   2224732   2225007   2225361   2225778  
  5380.000000   2226296   2226942   2227768   2228776   2229974  
  5370.000000   2231314   2232786   2234350   2236028   2237811  
  5360.000000   2239750   2241838   2244127   2246604   2249333  
  5350.000000   2252320   2255653   2259343   2263467   2268001  
  5340.000000   2272987   2278371   2284197   2290424   2297113  
  5330.000000   2304220   2311797   2319771   2328176   2336940  
  5320.000000   2346136   2355745   2365902   2376618   2388035  
  5310.000000   2400126   2412982   2426526   2440815   2455777  
  5300.000000   2471496   2487938   2505226   2523351   2542428  
  5290.000000   2562419   2583371   2605161   2627739   2650920  
  5280.000000   2674636   2698760   2723330   2748353   2773960  
  5270.000000   2800194   2827104   2854585   2882485   2910575  
  5260.000000   2938655   2966600   2994374   3022034   3049623  
  5250.000000   3077180   3104602   3131760   3158397   3184360  
  5240.000000   3209468   3233748   3257198   3279987   3302154  
  5230.000000   3323829   3344936   3365479   3385276   3404295  
  5220.000000   3422392   3439633   3455986   3471617   3486541  
  5210.000000   3500908   3514665   3527855   3540324   3552063  
  5200.000000   3562932   3572998   3582222   3590755   3598598  
  5190.000000   3605878   3612535   3618621   3624032   3628816  
  5180.000000   3632907   3636403   3639284   3641653   3643466  
  5170.000000   3644786   3645543   3645790   3645488   3644723  
  5160.000000   3643486   3641865   3639832   3637438   3634632  
  5150.000000   3631458   3627887   3623987   3619757   3615263  
  5140.000000   3610491   3605478   3600200   3594694   3588961  
  5130.000000   3583065   3577031   3570923   3564753   3558551  
  5120.000000   3552303   3546026   3539711   3533381   3527039  
  5110.000000   3520704   3514363   3508015   3501637   3495226  
  5100.000000   3488783   3482329   3475890   3469495   3463160  
  5090.000000   3456888   3450664   3444470   3438283   3432088  
  5080.000000   3425877   3419651   3413412   3407169   3400927  
  5070.000000   3394699   3388490   3382312   3376164   3370046  
  5060.000000   3363939   3357828   3351684   3345491   3339229  
  5050.000000   3332897   3326489   3320014   3313477   3306890  
  5040.000000   3300260   3293605   3286940   3280283   3273648  
  5030.000000   3267041   3260462   3253905   3247365   3240839  
  5020.000000   3234343   3227889   3221513   3215232   3209075  
  5010.000000   3203042   3197145   3191368   3185722   3180194  
  5000.000000   3174812   3169576   3164525   3159662   3155024  
  4990.000000   3150604   3146437   3142509   3138853   3135448  
  4980.000000   3132324   3129451   3126850   3124487   3122393  
  4970.000000   3120542   3118981   3117699   3116750   3116117  
  4960.000000   3115842   3115894   3116303   3117033   3118118  
  4950.000000   3119528   3121301   3123404   3125871   3128660  
  4940.000000   3131799   3135246   3139039   3143146   3147611  
  4930.000000   3152405   3157562   3163042   3168867   3174990  
  4920.000000   3181434   3188163   3195206   3202539   3210190  
  4910.000000   3218130   3226372   3234878   3243642   3252616  
  4900.000000   3261783   3271096   3280531   3290051   3299632  
  4890.000000   3309250   3318875   3328481   3338024   3347468  
  4880.000000   3356754   3365850   3374694   3383270   3391523  
  4870.000000   3399447   3406986   3414135   3420839   3427106  
  4860.000000   3432901   3438262   3443186   3447734   3451916  
  4850.000000   3455794   3459367   3462686   3465744   3468587  
  4840.000000   3471213   3473674   3475979   3478182   3480295  
  4830.000000   3482361   3484386   3486396   3488379   3490340  
  4820.000000   3492252   3494108   3495889   3497597   3499237  
  4810.000000   3500829   3502392   3503946   3505498   3507050  
  4800.000000   3508589   3510106   3511594   3513057   3514504  
  4790.000000   3515958   3517433   3518949   3520507   3522107  
  4780.000000   3523735   3525380   3527019   3528639   3530218  
  4770.000000   3531743   3533194   3534566   3535848   3537046  
  4760.000000   3538159   3539204   3540177   3541088   3541920  
  4750.000000   3542671   3543317   3543853   3544257   3544533  
  4740.000000   3544671   3544684   3544569   3544346   3544017  
  4730.000000   3543600   3543096   3542517   3541859   3541123  
  4720.000000   3540302   3539397   3538411   3537359   3536264  
  4710.000000   3535157   3534075   3533055   3532131   3531329  
  4700.000000   3530671   3530165   3529820   3529634   3529605  
  4690.000000   3529725   3529986   3530373   3530875   3531466  
  4680.000000   3532126   3532815   3533505   3534146   3534714  
  4670.000000   3535173   3535525   3535771   3535954   3536113  
  4660.000000   3536314   3536608   3537051   3537677   3538515  
  4650.000000   3539569   3540843   3542321   3543988   3545813  
  4640.000000   3547769   3549822   3551942   3554101   3556279  
  4630.000000   3558459   3560633   3562790   3564920   3567007  
  4620.000000   3569026   3570950   3572742   3574370   3575802  
  4610.000000   3577022   3578021   3578819   3579437   3579925  
  4600.000000   3580320   3580678   3581020   3581376   3581735  
  4590.000000   3582093   3582413   3582672   3582824   3582852  
  4580.000000   3582719   3582421   3581945   3581305   3580508  
  4570.000000   3579583   3578545   3577421   3576214   3574936  
  4560.000000   3573580   3572153   3570658   3569118   3567559  
  4550.000000   3566016   3564512   3563062   3561661   3560289  
  4540.000000   3558921   3557533   3556120   3554683   3553254  
  4530.000000   3551857   3550539   3549315   3548224   3547258  
  4520.000000   3546447   3545771   3545265   3544909   3544749  
  4510.000000   3544770   3545038   3545555   3546416   3547641  
  4500.000000   3549344   3551539   3554325   3557685   3561690  
  4490.000000   3566301   3571585   3577507   3584145   3591468  
  4480.000000   3599547   3608328   3617848   3628025   3638873  
  4470.000000   3650307   3662337   3674887   3687963   3701481  
  4460.000000   3715425   3729695   3744250   3758987   3773860  
  4450.000000   3788787   3803737   3818661   3833545   3848377  
  4440.000000   3863152   3877880   3892549   3907171   3921710  
  4430.000000   3936163   3950458   3964580   3978431   3991990  
  4420.000000   4005154   4017910   4030156   4041889   4053006  
  4410.000000   4063501   4073265   4082288   4090471   4097828  
  4400.000000   4104307   4109979   4114862   4119085   4122716  
  4390.000000   4125907   4128736   4131339   4133779   4136159  
  4380.000000   4138517   4140926   4143410   4146019   4148777  
  4370.000000   4151728   4154906   4158352   4162100   4166175  
  4360.000000   4170588   4175332   4180373   4185671   4191140  
  4350.000000   4196718   4202297   4207832   4213243   4218548  
  4340.000000   4223728   4228831   4233814   4238615   4243009  
  4330.000000   4246706   4249291   4250381   4249656   4247018  
  4320.000000   4242587   4236769   4230116   4223291   4216861  
  4310.000000   4211277   4206738   4203283   4200758   4198974  
  4300.000000   4197710   4196810   4196168   4195727   4195468  
  4290.000000   4195357   4195388   4195525   4195780   4196146  
  4280.000000   4196661   4197349   4198232   4199323   4200597  
  4270.000000   4202035   4203570   4205140   4206615   4207849  
  4260.000000   4208628   4208729   4207923   4206055   4203058  
  4250.000000   4199013   4194109   4188654   4182970   4177392  
  4240.000000   4172154   4167423   4163234   4159566   4156315  
  4230.000000   4153378   4150633   4147983   4145344   4142648  
  4220.000000   4139864   4136964   4133983   4130953   4127975  
  4210.000000   4125129   4122536   4120262   4118374   4116870  
  4200.000000   4115736   4114901   4114306   4113860   4113518  
  4190.000000   4113212   4112942   4112678   4112460   4112280  
  4180.000000   4112203   4112228   4112425   4112799   4113430  
  4170.000000   4114335   4115609   4117281   4119449   4122133  
  4160.000000   4125406   4129243   4133674   4138630   4144110  
  4150.000000   4150024   4156374   4163080   4170164   4177574  
  4140.000000   4185360   4193491   4202036   4210971   4220359  
  4130.000000   4230159   4240406   4251041   4262081   4273473  
  4120.000000   4285250   4297391   4309958   4322956   4336453  
  4110.000000   4350441   4364954   4379939   4395374   4411160  
  4100.000000   4427236   4443497   4459889   4476345   4492856  
  4090.000000   4509413   4526039   4542756   4559581   4576531  
  4080.000000   4593599   4610788   4628061   4645407   4662749  
  4070.000000   4680044   4697171   4714068   4730609   4746764  
  4060.000000   4762449   4777691   4792433   4806721   4820487  
  4050.000000   4833773   4846505   4858741   4870420   4881611  
  4040.000000   4892229   4902312   4911723   4920471   4928418  
  4030.000000   4935606   4941945   4947515   4952259   4956244  
  4020.000000   4959379   4961735   4963294   4964155   4964285  
  4010.000000   4963837   4962882   4961442   4959291   4956490  
  4000.000000   4953356  
##END= 
