##TITLE= Sample 026 By ssteindl date Dienstag, November 20 2018
##JCAMP-DX= 4.24
##DATA TYPE= INFRARED SPECTRUM
##ORIGIN= Exported PE Spectrum Data File
##OWNER= Sandra Steindl
##DATE= 18/11/20
##TIME= 16:35:26.00
##SPECTROMETER/DATA SYSTEM= PERKIN-ELMER Frontier FT-IR/NIR IR
##INSTRUMENT PARAMETERS=
  APODIZATION=stark
  DETECTOR=INGAAS
##RESOLUTION= 16.000000
##DELTAX= -2.000000
##XUNITS= 1/CM
##YUNITS= A
##XFACTOR= 1.00
##YFACTOR= 0.00000011920928955078
##FIRSTX= 10000.00
##LASTX= 4000.00
##NPOINTS= 3001
##FIRSTY= 0.203540
##MAXY= 0.700604
##MINY= 0.167554
##XYDATA= (X++(Y..Y))
 10000.000000   1707421   1703147   1699182   1695904   1693428  
  9990.000000   1691556   1690169   1689259   1688938   1689267  
  9980.000000   1690268   1691764   1693467   1695029   1696311  
  9970.000000   1697379   1698550   1700148   1702393   1705171  
  9960.000000   1708135   1710803   1712802   1714069   1714791  
  9950.000000   1715403   1716239   1717545   1719282   1721373  
  9940.000000   1723688   1726215   1728907   1731564   1733649  
  9930.000000   1734280   1732442   1727336   1718781   1707420  
  9920.000000   1694647   1682244   1671854   1664529   1660501  
  9910.000000   1659278   1659943   1661563   1663422   1665147  
  9900.000000   1666548   1667537   1668008   1667919   1667457  
  9890.000000   1667054   1667447   1669260   1672800   1677646  
  9880.000000   1682729   1686573   1687804   1685725   1680552  
  9870.000000   1673489   1666243   1660562   1657575   1657546  
  9860.000000   1659806   1663063   1665843   1666886   1665482  
  9850.000000   1661477   1655246   1647467   1638976   1630628  
  9840.000000   1623212   1617378   1613603   1612118   1612911  
  9830.000000   1615738   1620149   1625569   1631320   1636693  
  9820.000000   1641037   1643811   1644798   1644060   1642095  
  9810.000000   1639565   1637231   1635612   1634925   1635020  
  9800.000000   1635558   1636226   1636888   1637695   1638902  
  9790.000000   1640773   1643284   1646153   1648845   1650879  
  9780.000000   1652007   1652378   1652426   1652676   1653425  
  9770.000000   1654604   1655761   1656281   1655655   1653697  
  9760.000000   1650602   1646809   1642784   1638802   1634889  
  9750.000000   1630913   1626773   1622577   1618675   1615576  
  9740.000000   1613717   1613303   1614179   1615965   1618149  
  9730.000000   1620362   1622399   1624249   1625952   1627462  
  9720.000000   1628654   1629277   1629178   1628245   1626551  
  9710.000000   1624135   1621017   1617061   1612116   1606181  
  9700.000000   1599591   1593157   1587962   1585158   1585461  
  9690.000000   1588972   1595007   1602382   1609723   1615879  
  9680.000000   1620192   1622488   1623024   1622139   1620197  
  9670.000000   1617387   1613908   1609972   1605956   1602318  
  9660.000000   1599506   1597839   1597366   1597974   1599366  
  9650.000000   1601311   1603573   1606045   1608538   1610830  
  9640.000000   1612576   1613464   1613329   1612273   1610671  
  9630.000000   1608982   1607566   1606428   1605214   1603307  
  9620.000000   1600092   1595247   1588875   1581569   1574198  
  9610.000000   1567724   1562894   1560121   1559384   1560328  
  9600.000000   1562346   1564715   1566704   1567648   1567131  
  9590.000000   1565025   1561664   1557687   1553963   1551204  
  9580.000000   1549795   1549598   1550102   1550633   1550710  
  9570.000000   1550261   1549665   1549577   1550576   1552870  
  9560.000000   1556111   1559513   1562153   1563346   1562945  
  9550.000000   1561365   1559409   1557903   1557378   1557896  
  9540.000000   1559086   1560350   1561105   1560984   1559895  
  9530.000000   1557986   1555514   1552773   1550006   1547455  
  9520.000000   1545347   1543908   1543286   1543469   1544233  
  9510.000000   1545172   1545815   1545794   1544959   1543444  
  9500.000000   1541588   1539818   1538482   1537758   1537615  
  9490.000000   1537875   1538296   1538661   1538816   1538668  
  9480.000000   1538154   1537226   1535842   1534004   1531771  
  9470.000000   1529272   1526683   1524189   1521951   1520081  
  9460.000000   1518643   1517650   1517058   1516766   1516607  
  9450.000000   1516385   1515898   1515013   1513717   1512154  
  9440.000000   1510610   1509416   1508836   1508937   1509554  
  9430.000000   1510332   1510857   1510784   1509951   1508404  
  9420.000000   1506376   1504191   1502175   1500550   1499388  
  9410.000000   1498630   1498108   1497652   1497098   1496377  
  9400.000000   1495502   1494605   1493895   1493588   1493808  
  9390.000000   1494460   1495236   1495623   1495123   1493368  
  9380.000000   1490333   1486331   1482003   1478120   1475384  
  9370.000000   1474223   1474691   1476508   1479192   1482240  
  9360.000000   1485242   1487967   1490315   1492298   1493930  
  9350.000000   1495233   1496216   1496903   1497362   1497670  
  9340.000000   1497913   1498105   1498167   1497907   1497049  
  9330.000000   1495360   1492715   1489211   1485151   1481006  
  9320.000000   1477308   1474541   1472991   1472672   1473261  
  9310.000000   1474247   1475039   1475217   1474627   1473476  
  9300.000000   1472261   1471599   1471973   1473486   1475781  
  9290.000000   1478116   1479646   1479679   1477937   1474616  
  9280.000000   1470347   1465953   1462197   1459518   1457967  
  9270.000000   1457263   1456977   1456693   1456131   1455214  
  9260.000000   1454053   1452906   1452067   1451821   1452370  
  9250.000000   1453803   1456053   1458867   1461841   1464489  
  9240.000000   1466396   1467321   1467279   1466510   1465383  
  9230.000000   1464228   1463208   1462265   1461196   1459786  
  9220.000000   1457937   1455752   1453457   1451347   1449598  
  9210.000000   1448264   1447228   1446351   1445541   1444839  
  9200.000000   1444369   1444216   1444328   1444439   1444182  
  9190.000000   1443188   1441300   1438641   1435650   1432879  
  9180.000000   1430812   1429675   1429417   1429769   1430408  
  9170.000000   1431119   1431849   1432693   1433737   1434974  
  9160.000000   1436245   1437317   1437999   1438236   1438161  
  9150.000000   1437988   1437907   1437905   1437768   1437139  
  9140.000000   1435735   1433494   1430674   1427784   1425416  
  9130.000000   1424003   1423658   1424149   1425038   1425872  
  9120.000000   1426382   1426564   1426668   1427030   1427899  
  9110.000000   1429336   1431199   1433263   1435303   1437204  
  9100.000000   1438966   1440674   1442416   1444187   1445860  
  9090.000000   1447207   1447994   1448005   1447100   1445232  
  9080.000000   1442466   1439004   1435150   1431357   1428110  
  9070.000000   1425932   1425155   1425903   1427935   1430771  
  9060.000000   1433742   1436172   1437518   1437483   1436080  
  9050.000000   1433510   1430096   1426147   1421983   1417860  
  9040.000000   1414013   1410659   1408025   1406298   1405547  
  9030.000000   1405723   1406625   1407965   1409393   1410594  
  9020.000000   1411389   1411704   1411634   1411300   1410921  
  9010.000000   1410647   1410611   1410830   1411278   1411895  
  9000.000000   1412643   1413550   1414687   1416207   1418247  
  8990.000000   1420905   1424119   1427694   1431303   1434553  
  8980.000000   1437065   1438557   1438923   1438209   1436594  
  8970.000000   1434320   1431669   1428908   1426247   1423866  
  8960.000000   1421884   1420400   1419419   1418941   1418898  
  8950.000000   1419254   1419930   1420868   1421987   1423168  
  8940.000000   1424241   1424978   1425186   1424696   1423483  
  8930.000000   1421618   1419330   1416875   1414528   1412485  
  8920.000000   1410890   1409812   1409272   1409284   1409835  
  8910.000000   1410902   1412389   1414177   1416119   1418115  
  8900.000000   1420125   1422168   1424294   1426486   1428627  
  8890.000000   1430451   1431652   1431937   1431198   1429547  
  8880.000000   1427343   1425057   1423129   1421840   1421242  
  8870.000000   1421199   1421467   1421855   1422292   1422863  
  8860.000000   1423708   1424952   1426598   1428521   1430494  
  8850.000000   1432277   1433726   1434799   1435576   1436147  
  8840.000000   1436601   1436937   1437124   1437100   1436865  
  8830.000000   1436470   1436028   1435655   1435444   1435443  
  8820.000000   1435682   1436199   1437066   1438379   1440216  
  8810.000000   1442566   1445285   1448105   1450721   1452878  
  8800.000000   1454493   1455667   1456665   1457790   1459273  
  8790.000000   1461159   1463306   1465437   1467266   1468620  
  8780.000000   1469494   1470053   1470521   1471114   1471920  
  8770.000000   1472924   1474014   1475080   1476074   1477028  
  8760.000000   1478038   1479173   1480426   1481666   1482683  
  8750.000000   1483256   1483268   1482763   1481978   1481268  
  8740.000000   1481011   1481498   1482848   1484995   1487710  
  8730.000000   1490696   1493670   1496438   1498913   1501085  
  8720.000000   1502991   1504654   1506084   1507251   1508150  
  8710.000000   1508788   1509245   1509630   1510082   1510712  
  8700.000000   1511583   1512703   1514020   1515471   1517002  
  8690.000000   1518597   1520287   1522118   1524142   1526358  
  8680.000000   1528727   1531144   1533498   1535667   1537596  
  8670.000000   1539274   1540794   1542292   1543957   1545955  
  8660.000000   1548405   1551332   1554648   1558191   1561747  
  8650.000000   1565136   1568246   1571084   1573756   1576413  
  8640.000000   1579179   1582067   1584962   1587621   1589765  
  8630.000000   1591168   1591779   1591757   1591448   1591311  
  8620.000000   1591772   1593138   1595474   1598638   1602300  
  8610.000000   1606087   1609662   1612830   1615543   1617880  
  8600.000000   1619976   1621943   1623821   1625556   1627053  
  8590.000000   1628197   1628945   1629333   1629503   1629655  
  8580.000000   1629977   1630617   1631615   1632948   1634525  
  8570.000000   1636261   1638111   1640084   1642220   1644549  
  8560.000000   1647032   1649555   1651938   1653998   1655621  
  8550.000000   1656816   1657733   1658607   1659683   1661111  
  8540.000000   1662887   1664835   1666666   1668081   1668879  
  8530.000000   1669015   1668620   1667952   1667323   1667009  
  8520.000000   1667185   1667905   1669121   1670724   1672574  
  8510.000000   1674541   1676523   1678458   1680324   1682136  
  8500.000000   1683941   1685789   1687724   1689728   1691744  
  8490.000000   1693648   1695321   1696669   1697689   1698468  
  8480.000000   1699168   1699967   1700987   1702258   1703709  
  8470.000000   1705218   1706671   1708028   1709348   1710762  
  8460.000000   1712407   1714345   1716518   1718745   1720789  
  8450.000000   1722431   1723562   1724231   1724642   1725088  
  8440.000000   1725853   1727141   1729008   1731373   1734028  
  8430.000000   1736726   1739224   1741365   1743069   1744370  
  8420.000000   1745374   1746239   1747118   1748122   1749284  
  8410.000000   1750532   1751704   1752597   1753016   1752868  
  8400.000000   1752168   1751107   1749979   1749144   1748886  
  8390.000000   1749368   1750556   1752236   1754046   1755585  
  8380.000000   1756514   1756653   1756010   1754783   1753298  
  8370.000000   1751933   1751008   1750713   1751063   1751911  
  8360.000000   1753008   1754067   1754846   1755211   1755156  
  8350.000000   1754787   1754271   1753771   1753417   1753261  
  8340.000000   1753298   1753466   1753706   1753969   1754239  
  8330.000000   1754525   1754844   1755225   1755682   1756235  
  8320.000000   1756892   1757667   1758562   1759568   1760644  
  8310.000000   1761720   1762703   1763492   1764003   1764186  
  8300.000000   1764032   1763572   1762871   1762009   1761075  
  8290.000000   1760153   1759316   1758627   1758118   1757809  
  8280.000000   1757674   1757684   1757778   1757912   1758045  
  8270.000000   1758163   1758264   1758349   1758399   1758378  
  8260.000000   1758228   1757902   1757376   1756677   1755875  
  8250.000000   1755073   1754365   1753812   1753407   1753093  
  8240.000000   1752764   1752323   1751693   1750854   1749823  
  8230.000000   1748659   1747423   1746177   1744968   1743824  
  8220.000000   1742765   1741790   1740887   1740011   1739093  
  8210.000000   1738055   1736840   1735463   1734014   1732674  
  8200.000000   1731647   1731114   1731145   1731672   1732466  
  8190.000000   1733210   1733566   1733285   1732268   1730584  
  8180.000000   1728432   1726063   1723700   1721477   1719423  
  8170.000000   1717479   1715554   1713576   1711528   1709462  
  8160.000000   1707460   1705616   1703976   1702549   1701285  
  8150.000000   1700118   1698979   1697832   1696682   1695572  
  8140.000000   1694568   1693724   1693063   1692542   1692072  
  8130.000000   1691510   1690712   1689552   1687974   1686004  
  8120.000000   1683759   1681425   1679212   1677314   1675855  
  8110.000000   1674874   1674315   1674049   1673908   1673713  
  8100.000000   1673309   1672578   1671457   1669935   1668061  
  8090.000000   1665940   1663725   1661595   1659725   1658245  
  8080.000000   1657207   1656572   1656217   1655969   1655657  
  8070.000000   1655147   1654381   1653363   1652157   1650831  
  8060.000000   1649460   1648081   1646726   1645411   1644171  
  8050.000000   1643060   1642141   1641477   1641091   1640970  
  8040.000000   1641043   1641213   1641362   1641390   1641229  
  8030.000000   1640847   1640255   1639478   1638560   1637536  
  8020.000000   1636440   1635295   1634121   1632943   1631789  
  8010.000000   1630702   1629722   1628895   1628249   1627798  
  8000.000000   1627527   1627398   1627355   1627332   1627268  
  7990.000000   1627109   1626825   1626391   1625803   1625057  
  7980.000000   1624171   1623169   1622104   1621043   1620069  
  7970.000000   1619264   1618685   1618352   1618241   1618288  
  7960.000000   1618414   1618542   1618623   1618639   1618601  
  7950.000000   1618536   1618470   1618418   1618379   1618342  
  7940.000000   1618294   1618225   1618128   1617993   1617802  
  7930.000000   1617529   1617145   1616626   1615966   1615184  
  7920.000000   1614316   1613409   1612504   1611630   1610802  
  7910.000000   1610028   1609322   1608702   1608196   1607822  
  7900.000000   1607582   1607450   1607381   1607327   1607258  
  7890.000000   1607177   1607124   1607155   1607318   1607624  
  7880.000000   1608031   1608454   1608797   1608976   1608967  
  7870.000000   1608794   1608527   1608243   1607988   1607766  
  7860.000000   1607537   1607249   1606871   1606421   1605967  
  7850.000000   1605608   1605428   1605465   1605676   1605967  
  7840.000000   1606202   1606271   1606113   1605735   1605199  
  7830.000000   1604591   1603976   1603383   1602797   1602177  
  7820.000000   1601487   1600718   1599896   1599073   1598308  
  7810.000000   1597640   1597075   1596588   1596132   1595669  
  7800.000000   1595176   1594665   1594173   1593748   1593435  
  7790.000000   1593250   1593177   1593167   1593149   1593046  
  7780.000000   1592801   1592391   1591835   1591191   1590534  
  7770.000000   1589939   1589448   1589065   1588750   1588438  
  7760.000000   1588061   1587574   1586961   1586239   1585438  
  7750.000000   1584587   1583700   1582777   1581820   1580843  
  7740.000000   1579895   1579037   1578335   1577819   1577469  
  7730.000000   1577208   1576928   1576533   1575980   1575306  
  7720.000000   1574620   1574066   1573767   1573773   1574043  
  7710.000000   1574442   1574795   1574929   1574739   1574194  
  7700.000000   1573360   1572350   1571303   1570340   1569541  
  7690.000000   1568940   1568534   1568293   1568181   1568161  
  7680.000000   1568204   1568292   1568414   1568566   1568748  
  7670.000000   1568955   1569183   1569407   1569606   1569743  
  7660.000000   1569789   1569722   1569544   1569280   1568980  
  7650.000000   1568711   1568543   1568524   1568674   1568967  
  7640.000000   1569333   1569672   1569883   1569895   1569702  
  7630.000000   1569371   1569035   1568851   1568952   1569390  
  7620.000000   1570128   1571028   1571918   1572625   1573049  
  7610.000000   1573181   1573106   1572967   1572914   1573067  
  7600.000000   1573482   1574167   1575094   1576224   1577514  
  7590.000000   1578910   1580342   1581700   1582862   1583702  
  7580.000000   1584148   1584193   1583923   1583482   1583049  
  7570.000000   1582782   1582793   1583132   1583799   1584769  
  7560.000000   1586011   1587489   1589158   1590944   1592743  
  7550.000000   1594417   1595853   1596968   1597778   1598364  
  7540.000000   1598883   1599496   1600352   1601522   1603021  
  7530.000000   1604785   1606727   1608748   1610774   1612750  
  7520.000000   1614658   1616493   1618281   1620052   1621864  
  7510.000000   1623762   1625792   1627961   1630256   1632625  
  7500.000000   1635016   1637384   1639729   1642080   1644496  
  7490.000000   1647027   1649695   1652464   1655260   1657977  
  7480.000000   1660534   1662884   1665053   1667107   1669153  
  7470.000000   1671283   1673565   1676023   1678648   1681406  
  7460.000000   1684270   1687216   1690233   1693308   1696428  
  7450.000000   1699561   1702680   1705751   1708766   1711726  
  7440.000000   1714669   1717627   1720643   1723731   1726896  
  7430.000000   1730120   1733381   1736666   1739976   1743334  
  7420.000000   1746773   1750321   1753985   1757737   1761513  
  7410.000000   1765223   1768775   1772095   1775154   1777974  
  7400.000000   1780630   1783230   1785887   1788698   1791718  
  7390.000000   1794958   1798377   1801902   1805442   1808910  
  7380.000000   1812232   1815367   1818304   1821071   1823719  
  7370.000000   1826312   1828920   1831603   1834403   1837340  
  7360.000000   1840413   1843598   1846852   1850122   1853344  
  7350.000000   1856454   1859397   1862142   1864693   1867104  
  7340.000000   1869454   1871856   1874409   1877191   1880223  
  7330.000000   1883480   1886878   1890308   1893641   1896764  
  7320.000000   1899587   1902064   1904181   1905977   1907531  
  7310.000000   1908969   1910429   1912052   1913931   1916101  
  7300.000000   1918507   1921040   1923540   1925868   1927925  
  7290.000000   1929686   1931188   1932510   1933737   1934930  
  7280.000000   1936113   1937281   1938417   1939521   1940612  
  7270.000000   1941731   1942927   1944241   1945692   1947274  
  7260.000000   1948966   1950732   1952541   1954348   1956122  
  7250.000000   1957813   1959397   1960852   1962211   1963532  
  7240.000000   1964925   1966495   1968344   1970512   1973002  
  7230.000000   1975755   1978713   1981803   1985007   1988307  
  7220.000000   1991729   1995263   1998911   2002626   2006382  
  7210.000000   2010138   2013912   2017727   2021658   2025760  
  7200.000000   2030096   2034683   2039532   2044614   2049913  
  7190.000000   2055376   2060968   2066610   2072235   2077749  
  7180.000000   2083102   2088259   2093270   2098207   2103209  
  7170.000000   2108385   2113846   2119625   2125723   2132071  
  7160.000000   2138599   2145214   2151865   2158515   2165183  
  7150.000000   2171900   2178746   2185784   2193089   2200673  
  7140.000000   2208523   2216541   2224632   2232675   2240630  
  7130.000000   2248496   2256374   2264373   2272627   2281182  
  7120.000000   2290033   2299071   2308181   2317240   2326218  
  7110.000000   2335134   2344094   2353194   2362519   2372078  
  7100.000000   2381848   2391761   2401784   2411894   2422122  
  7090.000000   2432484   2442989   2453584   2464189   2474701  
  7080.000000   2485056   2495232   2505284   2515295   2525367  
  7070.000000   2535564   2545909   2556373   2566905   2577447  
  7060.000000   2587958   2598406   2608769   2619024   2629147  
  7050.000000   2639131   2648987   2658762   2668519   2678328  
  7040.000000   2688228   2698225   2708279   2718336   2728324  
  7030.000000   2738197   2747918   2757475   2766844   2776013  
  7020.000000   2784956   2793689   2802241   2810699   2819151  
  7010.000000   2827697   2836370   2845162   2853981   2862721  
  7000.000000   2871249   2879490   2887389   2894960   2902221  
  6990.000000   2909222   2915995   2922600   2929081   2935514  
  6980.000000   2941948   2948436   2954966   2961508   2967975  
  6970.000000   2974311   2980454   2986421   2992233   2997951  
  6960.000000   3003587   3009135   3014521   3019676   3024526  
  6950.000000   3029060   3033296   3037306   3041142   3044862  
  6940.000000   3048467   3051970   3055363   3058693   3062006  
  6930.000000   3065382   3068854   3072426   3076019   3079536  
  6920.000000   3082850   3085890   3088627   3091103   3093387  
  6910.000000   3095561   3097674   3099746   3101762   3103709  
  6900.000000   3105574   3107381   3109160   3110961   3112809  
  6890.000000   3114725   3116691   3118686   3120671   3122616  
  6880.000000   3124493   3126292   3128011   3129667   3131281  
  6870.000000   3132886   3134508   3136163   3137846   3139535  
  6860.000000   3141195   3142794   3144305   3145728   3147066  
  6850.000000   3148342   3149570   3150766   3151937   3153098  
  6840.000000   3154258   3155433   3156625   3157824   3158990  
  6830.000000   3160079   3161037   3161842   3162497   3163049  
  6820.000000   3163556   3164084   3164661   3165289   3165930  
  6810.000000   3166545   3167096   3167582   3168015   3168432  
  6800.000000   3168848   3169269   3169660   3169983   3170194  
  6790.000000   3170276   3170230   3170088   3169883   3169646  
  6780.000000   3169388   3169099   3168752   3168315   3167757  
  6770.000000   3167069   3166257   3165363   3164443   3163581  
  6760.000000   3162848   3162308   3161975   3161823   3161775  
  6750.000000   3161735   3161603   3161315   3160845   3160212  
  6740.000000   3159457   3158622   3157737   3156807   3155824  
  6730.000000   3154786   3153698   3152589   3151488   3150423  
  6720.000000   3149397   3148403   3147415   3146427   3145440  
  6710.000000   3144482   3143576   3142739   3141955   3141183  
  6700.000000   3140364   3139448   3138401   3137226   3135938  
  6690.000000   3134569   3133138   3131656   3130126   3128559  
  6680.000000   3126971   3125394   3123847   3122337   3120838  
  6670.000000   3119305   3117685   3115950   3114101   3112184  
  6660.000000   3110257   3108377   3106566   3104819   3103103  
  6650.000000   3101387   3099655   3097923   3096215   3094552  
  6640.000000   3092926   3091300   3089617   3087829   3085917  
  6630.000000   3083906   3081853   3079824   3077867   3075997  
  6620.000000   3074190   3072410   3070619   3068804   3066972  
  6610.000000   3065139   3063311   3061475   3059601   3057655  
  6600.000000   3055619   3053504   3051348   3049202   3047108  
  6590.000000   3045085   3043125   3041208   3039315   3037441  
  6580.000000   3035597   3033799   3032052   3030337   3028614  
  6570.000000   3026833   3024956   3022973   3020913   3018833  
  6560.000000   3016803   3014876   3013082   3011414   3009841  
  6550.000000   3008318   3006806   3005280   3003739   3002196  
  6540.000000   3000685   2999235   2997872   2996602   2995412  
  6530.000000   2994266   2993120   2991931   2990682   2989376  
  6520.000000   2988052   2986758   2985544   2984431   2983414  
  6510.000000   2982460   2981523   2980563   2979565   2978533  
  6500.000000   2977491   2976459   2975450   2974456   2973465  
  6490.000000   2972461   2971450   2970449   2969491   2968605  
  6480.000000   2967808   2967089   2966423   2965773   2965106  
  6470.000000   2964399   2963645   2962846   2962017   2961172  
  6460.000000   2960334   2959529   2958785   2958122   2957548  
  6450.000000   2957049   2956590   2956124   2955614   2955038  
  6440.000000   2954408   2953751   2953107   2952499   2951932  
  6430.000000   2951384   2950830   2950250   2949650   2949061  
  6420.000000   2948529   2948096   2947784   2947587   2947476  
  6410.000000   2947408   2947345   2947253   2947110   2946898  
  6400.000000   2946601   2946209   2945730   2945192   2944648  
  6390.000000   2944163   2943791   2943555   2943432   2943364  
  6380.000000   2943270   2943080   2942758   2942317   2941806  
  6370.000000   2941293   2940835   2940462   2940167   2939922  
  6360.000000   2939682   2939410   2939071   2938648   2938124  
  6350.000000   2937494   2936762   2935946   2935078   2934201  
  6340.000000   2933352   2932559   2931821   2931128   2930457  
  6330.000000   2929802   2929164   2928568   2928028   2927549  
  6320.000000   2927097   2926619   2926043   2925311   2924395  
  6310.000000   2923307   2922086   2920784   2919436   2918062  
  6300.000000   2916651   2915196   2913685   2912132   2910553  
  6290.000000   2908975   2907400   2905827   2904228   2902587  
  6280.000000   2900885   2899133   2897340   2895524   2893687  
  6270.000000   2891821   2889902   2887919   2885866   2883768  
  6260.000000   2881652   2879553   2877482   2875436   2873384  
  6250.000000   2871302   2869166   2866976   2864742   2862481  
  6240.000000   2860199   2857892   2855542   2853138   2850674  
  6230.000000   2848168   2845645   2843134   2840649   2838190  
  6220.000000   2835738   2833274   2830786   2828277   2825763  
  6210.000000   2823266   2820803   2818380   2815992   2813634  
  6200.000000   2811306   2809017   2806780   2804603   2802483  
  6190.000000   2800400   2798326   2796230   2794095   2791916  
  6180.000000   2789701   2787461   2785208   2782943   2780671  
  6170.000000   2778401   2776154   2773961   2771853   2769851  
  6160.000000   2767951   2766127   2764338   2762540   2760703  
  6150.000000   2758813   2756878   2754909   2752919   2750913  
  6140.000000   2748895   2746868   2744850   2742863   2740934  
  6130.000000   2739078   2737295   2735563   2733856   2732144  
  6120.000000   2730421   2728696   2726997   2725345   2723759  
  6110.000000   2722232   2720753   2719300   2717873   2716480  
  6100.000000   2715148   2713905   2712771   2711744   2710808  
  6090.000000   2709935   2709104   2708301   2707532   2706799  
  6080.000000   2706116   2705469   2704850   2704231   2703603  
  6070.000000   2702959   2702319   2701702   2701145   2700667  
  6060.000000   2700292   2700023   2699867   2699814   2699864  
  6050.000000   2699997   2700209   2700476   2700795   2701158  
  6040.000000   2701576   2702058   2702624   2703274   2704009  
  6030.000000   2704809   2705661   2706550   2707481   2708463  
  6020.000000   2709517   2710652   2711869   2713144   2714447  
  6010.000000   2715734   2716978   2718157   2719275   2720335  
  6000.000000   2721362   2722368   2723381   2724417   2725504  
  5990.000000   2726659   2727900   2729225   2730632   2732099  
  5980.000000   2733614   2735167   2736775   2738455   2740242  
  5970.000000   2742153   2744201   2746366   2748633   2750964  
  5960.000000   2753345   2755753   2758189   2760638   2763099  
  5950.000000   2765557   2768013   2770471   2772963   2775525  
  5940.000000   2778202   2781020   2783985   2787072   2790236  
  5930.000000   2793426   2796601   2799735   2802824   2805869  
  5920.000000   2808873   2811826   2814715   2817517   2820220  
  5910.000000   2822819   2825321   2827735   2830072   2832342  
  5900.000000   2834558   2836746   2838942   2841197   2843558  
  5890.000000   2846058   2848698   2851449   2854255   2857056  
  5880.000000   2859806   2862483   2865092   2867652   2870182  
  5870.000000   2872683   2875146   2877546   2879867   2882103  
  5860.000000   2884270   2886394   2888510   2890644   2892819  
  5850.000000   2895051   2897360   2899768   2902301   2904979  
  5840.000000   2907804   2910760   2913808   2916903   2919999  
  5830.000000   2923065   2926083   2929046   2931948   2934779  
  5820.000000   2937524   2940169   2942708   2945153   2947522  
  5810.000000   2949849   2952144   2954422   2956656   2958835  
  5800.000000   2960922   2962923   2964824   2966649   2968387  
  5790.000000   2970040   2971563   2972925   2974059   2974931  
  5780.000000   2975494   2975740   2975651   2975239   2974510  
  5770.000000   2973500   2972248   2970824   2969297   2967751  
  5760.000000   2966248   2964843   2963563   2962432   2961453  
  5750.000000   2960637   2959979   2959471   2959091   2958803  
  5740.000000   2958571   2958359   2958158   2957964   2957805  
  5730.000000   2957697   2957664   2957699   2957799   2957937  
  5720.000000   2958106   2958299   2958528   2958800   2959128  
  5710.000000   2959503   2959920   2960360   2960821   2961307  
  5700.000000   2961839   2962433   2963099   2963831   2964605  
  5690.000000   2965394   2966169   2966921   2967644   2968347  
  5680.000000   2969025   2969670   2970250   2970731   2971070  
  5670.000000   2971241   2971219   2971002   2970585   2969979  
  5660.000000   2969188   2968241   2967166   2966017   2964841  
  5650.000000   2963690   2962588   2961555   2960579   2959658  
  5640.000000   2958781   2957955   2957183   2956470   2955799  
  5630.000000   2955143   2954459   2953709   2952874   2951961  
  5620.000000   2951002   2950040   2949112   2948236   2947409  
  5610.000000   2946611   2945816   2945010   2944185   2943350  
  5600.000000   2942509   2941666   2940813   2939939   2939027  
  5590.000000   2938070   2937060   2935996   2934870   2933675  
  5580.000000   2932401   2931049   2929629   2928171   2926706  
  5570.000000   2925267   2923867   2922503   2921153   2919793  
  5560.000000   2918405   2916988   2915552   2914116   2912690  
  5550.000000   2911276   2909859   2908425   2906963   2905482  
  5540.000000   2904000   2902547   2901147   2899810   2898533  
  5530.000000   2897300   2896092   2894894   2893694   2892486  
  5520.000000   2891264   2890020   2888747   2887446   2886128  
  5510.000000   2884813   2883522   2882270   2881054   2879856  
  5500.000000   2878644   2877395   2876090   2874737   2873351  
  5490.000000   2871950   2870534   2869092   2867592   2866008  
  5480.000000   2864322   2862543   2860695   2858815   2856925  
  5470.000000   2855039   2853145   2851229   2849273   2847279  
  5460.000000   2845250   2843203   2841139   2839054   2836928  
  5450.000000   2834745   2832498   2830196   2827867   2825543  
  5440.000000   2823251   2821004   2818807   2816657   2814558  
  5430.000000   2812518   2810554   2808663   2806841   2805059  
  5420.000000   2803299   2801541   2799810   2798142   2796606  
  5410.000000   2795243   2794089   2793118   2792304   2791593  
  5400.000000   2790970   2790426   2790004   2789727   2789642  
  5390.000000   2789745   2790043   2790501   2791129   2791915  
  5380.000000   2792899   2794086   2795504   2797118   2798919  
  5370.000000   2800847   2802903   2805057   2807360   2809815  
  5360.000000   2812493   2815387   2818559   2821993   2825762  
  5350.000000   2829871   2834415   2839394   2844885   2850838  
  5340.000000   2857285   2864148   2871466   2879181   2887365  
  5330.000000   2895973   2905080   2914629   2924695   2935231  
  5320.000000   2946354   2958061   2970509   2983697   2997761  
  5310.000000   3012639   3028406   3044955   3062350   3080511  
  5300.000000   3099546   3119424   3140287   3162117   3185034  
  5290.000000   3208981   3234006   3259975   3286851   3314459  
  5280.000000   3342757   3371639   3401163   3431339   3462287  
  5270.000000   3494009   3526497   3559581   3593044   3626621  
  5260.000000   3660101   3693382   3726459   3759424   3792326  
  5250.000000   3825194   3857870   3890186   3921823   3952619  
  5240.000000   3982370   4011140   4038928   4065945   4092220  
  5230.000000   4117902   4142885   4167174   4190551   4212984  
  5220.000000   4234301   4254584   4273798   4292153   4309686  
  5210.000000   4326601   4342855   4358510   4373378   4387426  
  5200.000000   4400459   4412535   4423602   4433851   4443309  
  5190.000000   4452150   4460327   4467901   4474742   4480879  
  5180.000000   4486210   4490828   4494695   4497929   4500487  
  5170.000000   4502449   4503753   4504478   4504593   4504212  
  5160.000000   4503325   4502026   4500260   4498060   4495344  
  5150.000000   4492149   4488444   4484323   4479804   4474984  
  5140.000000   4469852   4464454   4458744   4452753   4446462  
  5130.000000   4439936   4433187   4426281   4419209   4411995  
  5120.000000   4404602   4397048   4389322   4381475   4373528  
  5110.000000   4365536   4357505   4349455   4341365   4333245  
  5100.000000   4325090   4316928   4308775   4300654   4292560  
  5090.000000   4284485   4276398   4268288   4260141   4251975  
  5080.000000   4243803   4235649   4227514   4219398   4211278  
  5070.000000   4203146   4194987   4186814   4178628   4170444  
  5060.000000   4162251   4154039   4145779   4137459   4129068  
  5050.000000   4120622   4112141   4103653   4095172   4086701  
  5040.000000   4078227   4069735   4061212   4052661   4044099  
  5030.000000   4035549   4027041   4018595   4010228   4001943  
  5020.000000   3993756   3985667   3977700   3969862   3962178  
  5010.000000   3954641   3947270   3940049   3933001   3926120  
  5000.000000   3919453   3913010   3906844   3900957   3895384  
  4990.000000   3890097   3885113   3880389   3875944   3871744  
  4980.000000   3867832   3864187   3860869   3857866   3855242  
  4970.000000   3852982   3851144   3849698   3848687   3848065  
  4960.000000   3847860   3848022   3848582   3849496   3850803  
  4950.000000   3852459   3854504   3856885   3859635   3862705  
  4940.000000   3866137   3869900   3874051   3878567   3883495  
  4930.000000   3888794   3894486   3900514   3906889   3913562  
  4920.000000   3920557   3927836   3935425   3943284   3951426  
  4910.000000   3959808   3968442   3977297   3986395   3995717  
  4900.000000   4005272   4015030   4024972   4035052   4045241  
  4890.000000   4055499   4065808   4076144   4086482   4096792  
  4880.000000   4107030   4117157   4127123   4136904   4146470  
  4870.000000   4155821   4164938   4173832   4182478   4190890  
  4860.000000   4199048   4206979   4214679   4222182   4229480  
  4850.000000   4236593   4243492   4250181   4256630   4262859  
  4840.000000   4268863   4274691   4280360   4285922   4291383  
  4830.000000   4296771   4302065   4307268   4312341   4317276  
  4820.000000   4322032   4326609   4330981   4335167   4339170  
  4810.000000   4343030   4346759   4350393   4353928   4357367  
  4800.000000   4360681   4363863   4366887   4369768   4372510  
  4790.000000   4375149   4377704   4380207   4382663   4385088  
  4780.000000   4387473   4389835   4392165   4394482   4396775  
  4770.000000   4399046   4401260   4403395   4405397   4407242  
  4760.000000   4408885   4410324   4411540   4412556   4413372  
  4750.000000   4414018   4414496   4414832   4415014   4415055  
  4740.000000   4414930   4414640   4414155   4413480   4412593  
  4730.000000   4411516   4410244   4408809   4407218   4405502  
  4720.000000   4403667   4401737   4399714   4397618   4395448  
  4710.000000   4393221   4390935   4388606   4386234   4383835  
  4700.000000   4381419   4379005   4376602   4374229   4371892  
  4690.000000   4369598   4367349   4365149   4362998   4360894  
  4680.000000   4358831   4356794   4354762   4352703   4350594  
  4670.000000   4348410   4346152   4343827   4341474   4339124  
  4660.000000   4336822   4334593   4332462   4330433   4328516  
  4650.000000   4326713   4325044   4323522   4322173   4321006  
  4640.000000   4320026   4319213   4318545   4317982   4317494  
  4630.000000   4317047   4316624   4316207   4315790   4315364  
  4620.000000   4314922   4314451   4313940   4313374   4312740  
  4610.000000   4312026   4311225   4310338   4309372   4308344  
  4600.000000   4307275   4306193   4305119   4304077   4303078  
  4590.000000   4302130   4301230   4300376   4299551   4298742  
  4580.000000   4297918   4297057   4296123   4295093   4293948  
  4570.000000   4292688   4291319   4289860   4288326   4286731  
  4560.000000   4285074   4283353   4281556   4279686   4277744  
  4550.000000   4275747   4273712   4271656   4269589   4267514  
  4540.000000   4265431   4263340   4261257   4259194   4257182  
  4530.000000   4255234   4253374   4251593   4249906   4248292  
  4520.000000   4246780   4245365   4244104   4243006   4242140  
  4510.000000   4241506   4241179   4241152   4241515   4242275  
  4500.000000   4243541   4245321   4247717   4250710   4254376  
  4490.000000   4258670   4263662   4269315   4275715   4282835  
  4480.000000   4290759   4299443   4308934   4319150   4330100  
  4470.000000   4341683   4353890   4366619   4379854   4393498  
  4460.000000   4407527   4421849   4436433   4451191   4466088  
  4450.000000   4481041   4496004   4510907   4525707   4540364  
  4440.000000   4554859   4569198   4583383   4597454   4611406  
  4430.000000   4625280   4639038   4652699   4666182   4679487  
  4420.000000   4692500   4705209   4717484   4729308   4740545  
  4410.000000   4751175   4761055   4770160   4778350   4785613  
  4400.000000   4791837   4797057   4801230   4804458   4806772  
  4390.000000   4808325   4809187   4809512   4809370   4808888  
  4380.000000   4808120   4807172   4806105   4805026   4804022  
  4370.000000   4803205   4802680   4802546   4802896   4803792  
  4360.000000   4805290   4807404   4810142   4813473   4817355  
  4350.000000   4821721   4826499   4831618   4837017   4842656  
  4340.000000   4848501   4854517   4860637   4866736   4872617  
  4330.000000   4878014   4882620   4886143   4888371   4889235  
  4320.000000   4888829   4887433   4885419   4883237   4881261  
  4310.000000   4879798   4878968   4878796   4879151   4879895  
  4300.000000   4880834   4881844   4882812   4883691   4884446  
  4290.000000   4885066   4885545   4885881   4886087   4886184  
  4280.000000   4886206   4886209   4886232   4886338   4886551  
  4270.000000   4886912   4887402   4888007   4888638   4889188  
  4260.000000   4889484   4889352   4888608   4887129   4884859  
  4250.000000   4881855   4878259   4874299   4870221   4866274  
  4240.000000   4862637   4859429   4856666   4854313   4852267  
  4230.000000   4850419   4848652   4846869   4845003   4843008  
  4220.000000   4840883   4838636   4836325   4833991   4831721  
  4210.000000   4829559   4827577   4825795   4824254   4822950  
  4200.000000   4821906   4821112   4820591   4820327   4820335  
  4190.000000   4820578   4821058   4821714   4822550   4823510  
  4180.000000   4824622   4825855   4827270   4828868   4830741  
  4170.000000   4832918   4835519   4838584   4842227   4846457  
  4160.000000   4851336   4856807   4862876   4869442   4876502  
  4150.000000   4883974   4891888   4900198   4908966   4918158  
  4140.000000   4927837   4937963   4948596   4959693   4971311  
  4130.000000   4983405   4996018   5009090   5022645   5036618  
  4120.000000   5051031   5065838   5081079   5096731   5112840  
  4110.000000   5129379   5146372   5163768   5181549   5199641  
  4100.000000   5218002   5236556   5255271   5274098   5293036  
  4090.000000   5312081   5331251   5350561   5370024   5389646  
  4080.000000   5409410   5429312   5449306   5469376   5489450  
  4070.000000   5509497   5529419   5549181   5568690   5587945  
  4060.000000   5606876   5625513   5643777   5661675   5679082  
  4050.000000   5695982   5712237   5727875   5742811   5757140  
  4040.000000   5770803   5783894   5796310   5808097   5819108  
  4030.000000   5829371   5838738   5847238   5854734   5861239  
  4020.000000   5866591   5870835   5873924   5875973   5876959  
  4010.000000   5877095   5876512   5875288   5873200   5870350  
  4000.000000   5867112  
##END= 
