##TITLE= Sample 008 By ssteindl date Dienstag, November 20 2018
##JCAMP-DX= 4.24
##DATA TYPE= INFRARED SPECTRUM
##ORIGIN= Exported PE Spectrum Data File
##OWNER= Sandra Steindl
##DATE= 18/11/20
##TIME= 17:00:52.00
##SPECTROMETER/DATA SYSTEM= PERKIN-ELMER Frontier FT-IR/NIR IR
##INSTRUMENT PARAMETERS=
  APODIZATION=stark
  DETECTOR=INGAAS
##RESOLUTION= 16.000000
##DELTAX= -2.000000
##XUNITS= 1/CM
##YUNITS= A
##XFACTOR= 1.00
##YFACTOR= 0.00000011920928955078
##FIRSTX= 10000.00
##LASTX= 4000.00
##NPOINTS= 3001
##FIRSTY= 0.287120
##MAXY= 0.670690
##MINY= 0.220078
##XYDATA= (X++(Y..Y))
 10000.000000   2408539   2406905   2404213   2399539   2393663  
  9990.000000   2387939   2382672   2377296   2371629   2366202  
  9980.000000   2361754   2358983   2358443   2360230   2363693  
  9970.000000   2367630   2370789   2372241   2371703   2369501  
  9960.000000   2366433   2363287   2360634   2358576   2356902  
  9950.000000   2355241   2353361   2351293   2349334   2347915  
  9940.000000   2347369   2347815   2349071   2350747   2352410  
  9930.000000   2353675   2354388   2354488   2354072   2353190  
  9920.000000   2351889   2350182   2348138   2346000   2344173  
  9910.000000   2343262   2343830   2346311   2350733   2356737  
  9900.000000   2363558   2370246   2375840   2379561   2380904  
  9890.000000   2379674   2375980   2370201   2362969   2355112  
  9880.000000   2347579   2341317   2337029   2335047   2335087  
  9870.000000   2336374   2337761   2338185   2336996   2334201  
  9860.000000   2330428   2326589   2323529   2321575   2320521  
  9850.000000   2319666   2318325   2316106   2313260   2310551  
  9840.000000   2308956   2309242   2311568   2315481   2320079  
  9830.000000   2324468   2328090   2330895   2333187   2335343  
  9820.000000   2337466   2339288   2340252   2339823   2337804  
  9810.000000   2334468   2330477   2326541   2323089   2320050  
  9800.000000   2316921   2313088   2308165   2302313   2296152  
  9790.000000   2290592   2286382   2283902   2283037   2283365  
  9780.000000   2284443   2285968   2287898   2290184   2292661  
  9770.000000   2294792   2295860   2295158   2292434   2288100  
  9760.000000   2283250   2279350   2277726   2279137   2283461  
  9750.000000   2289836   2296922   2303413   2308345   2311273  
  9740.000000   2312189   2311301   2308871   2305103   2300214  
  9730.000000   2294516   2288482   2282716   2277793   2274151  
  9720.000000   2271941   2271108   2271387   2272502   2274114  
  9710.000000   2275891   2277395   2278110   2277534   2275339  
  9700.000000   2271597   2266830   2261969   2258036   2255837  
  9690.000000   2255616   2257009   2259140   2260984   2261689  
  9680.000000   2260859   2258584   2255331   2251692   2248208  
  9670.000000   2245234   2243001   2241635   2241279   2242018  
  9660.000000   2243856   2246612   2249888   2253177   2255940  
  9650.000000   2257863   2258893   2259315   2259610   2260266  
  9640.000000   2261599   2263586   2265895   2267926   2269003  
  9630.000000   2268523   2266123   2261782   2255849   2249033  
  9620.000000   2242241   2236448   2232413   2230552   2230756  
  9610.000000   2232502   2234956   2237293   2238864   2239388  
  9600.000000   2238911   2237712   2236149   2234490   2232888  
  9590.000000   2231329   2229747   2228033   2226133   2224011  
  9580.000000   2221673   2219147   2216507   2213896   2211504  
  9570.000000   2209538   2208112   2207194   2206590   2206011  
  9560.000000   2205230   2204188   2203079   2202252   2202059  
  9550.000000   2202626   2203775   2205014   2205799   2205710  
  9540.000000   2204719   2203139   2201542   2200470   2200235  
  9530.000000   2200814   2201901   2203145   2204315   2205480  
  9520.000000   2206885   2208836   2211429   2214477   2217535  
  9510.000000   2220064   2221645   2222071   2221365   2219655  
  9500.000000   2217062   2213651   2209476   2204742   2199887  
  9490.000000   2195605   2192647   2191544   2192330   2194451  
  9480.000000   2196918   2198646   2198839   2197272   2194313  
  9470.000000   2190756   2187492   2185235   2184350   2184893  
  9460.000000   2186706   2189557   2193135   2197043   2200693  
  9450.000000   2203368   2204331   2203079   2199582   2194349  
  9440.000000   2188343   2182606   2177902   2174408   2171710  
  9430.000000   2169081   2165849   2161792   2157211   2152886  
  9420.000000   2149702   2148308   2148787   2150620   2152873  
  9410.000000   2154554   2154981   2153922   2151645   2148665  
  9400.000000   2145639   2143111   2141494   2140943   2141388  
  9390.000000   2142495   2143755   2144583   2144495   2143283  
  9380.000000   2141123   2138608   2136579   2135872   2136962  
  9370.000000   2139744   2143506   2147173   2149698   2150397  
  9360.000000   2149183   2146517   2143239   2140208   2138005  
  9350.000000   2136754   2136165   2135749   2135066   2133919  
  9340.000000   2132395   2130816   2129589   2129092   2129497  
  9330.000000   2130758   2132550   2134406   2135813   2136361  
  9320.000000   2135854   2134373   2132259   2130021   2128132  
  9310.000000   2126874   2126203   2125791   2125158   2123878  
  9300.000000   2121750   2118893   2115675   2112555   2109854  
  9290.000000   2107645   2105765   2103947   2101997   2099893  
  9280.000000   2097798   2095943   2094491   2093437   2092620  
  9270.000000   2091821   2090940   2090052   2089430   2089339  
  9260.000000   2089904   2090937   2092037   2092697   2092608  
  9250.000000   2091770   2090567   2089573   2089326   2090076  
  9240.000000   2091692   2093776   2095854   2097651   2099175  
  9230.000000   2100725   2102651   2105150   2108065   2110940  
  9220.000000   2113178   2114288   2114060   2112619   2110339  
  9210.000000   2107649   2104860   2102103   2099364   2096619  
  9200.000000   2093907   2091403   2089310   2087800   2086834  
  9190.000000   2086221   2085628   2084819   2083724   2082508  
  9180.000000   2081493   2080977   2081126   2081791   2082576  
  9170.000000   2082898   2082255   2080346   2077226   2073252  
  9160.000000   2069040   2065297   2062670   2061599   2062190  
  9150.000000   2064241   2067258   2070603   2073624   2075843  
  9140.000000   2077095   2077515   2077457   2077285   2077232  
  9130.000000   2077245   2077046   2076234   2074546   2072021  
  9120.000000   2069061   2066327   2064482   2063975   2064829  
  9110.000000   2066666   2068796   2070484   2071175   2070679  
  9100.000000   2069184   2067144   2065085   2063444   2062452  
  9090.000000   2062132   2062340   2062848   2063434   2063893  
  9080.000000   2064074   2063880   2063274   2062269   2060897  
  9070.000000   2059233   2057369   2055426   2053543   2051883  
  9060.000000   2050666   2050103   2050350   2051405   2053050  
  9050.000000   2054829   2056133   2056385   2055266   2052853  
  9040.000000   2049663   2046530   2044367   2043847   2045146  
  9030.000000   2047892   2051278   2054336   2056223   2056510  
  9020.000000   2055274   2053041   2050516   2048377   2047012  
  9010.000000   2046475   2046475   2046570   2046351   2045572  
  9000.000000   2044224   2042459   2040518   2038554   2036586  
  8990.000000   2034453   2031956   2028905   2025304   2021384  
  8980.000000   2017649   2014732   2013210   2013493   2015664  
  8970.000000   2019498   2024450   2029855   2035080   2039636  
  8960.000000   2043247   2045794   2047325   2047896   2047582  
  8950.000000   2046412   2044466   2041874   2038859   2035740  
  8940.000000   2032888   2030686   2029391   2029157   2029919  
  8930.000000   2031471   2033403   2035247   2036533   2036922  
  8920.000000   2036285   2034745   2032682   2030596   2028991  
  8910.000000   2028175   2028206   2028850   2029706   2030333  
  8900.000000   2030429   2029927   2029000   2027972   2027168  
  8890.000000   2026784   2026831   2027157   2027544   2027812  
  8880.000000   2027898   2027872   2027880   2028069   2028496  
  8870.000000   2029120   2029801   2030374   2030698   2030698  
  8860.000000   2030373   2029758   2028899   2027823   2026551  
  8850.000000   2025111   2023560   2021998   2020550   2019345  
  8840.000000   2018456   2017919   2017696   2017739   2017976  
  8830.000000   2018363   2018870   2019478   2020155   2020812  
  8820.000000   2021321   2021497   2021185   2020264   2018747  
  8810.000000   2016755   2014557   2012476   2010837   2009858  
  8800.000000   2009609   2009994   2010808   2011816   2012836  
  8790.000000   2013799   2014736   2015753   2016936   2018316  
  8780.000000   2019840   2021397   2022888   2024252   2025513  
  8770.000000   2026694   2027781   2028653   2029091   2028857  
  8760.000000   2027791   2025939   2023583   2021204   2019338  
  8750.000000   2018407   2018566   2019659   2021274   2022894  
  8740.000000   2024068   2024539   2024274   2023445   2022324  
  8730.000000   2021210   2020371   2020012   2020295   2021293  
  8720.000000   2022984   2025173   2027494   2029444   2030521  
  8710.000000   2030386   2029015   2026737   2024172   2022033  
  8700.000000   2020902   2021038   2022302   2024235   2026244  
  8690.000000   2027836   2028762   2029073   2029036   2028992  
  8680.000000   2029211   2029789   2030649   2031574   2032351  
  8670.000000   2032800   2032872   2032600   2032090   2031485  
  8660.000000   2030930   2030587   2030592   2031070   2032084  
  8650.000000   2033616   2035551   2037690   2039799   2041647  
  8640.000000   2043059   2043934   2044268   2044118   2043604  
  8630.000000   2042869   2042095   2041463   2041135   2041221  
  8620.000000   2041728   2042580   2043611   2044646   2045534  
  8610.000000   2046221   2046746   2047218   2047756   2048412  
  8600.000000   2049161   2049879   2050421   2050658   2050566  
  8590.000000   2050213   2049760   2049398   2049305   2049595  
  8580.000000   2050298   2051377   2052740   2054281   2055879  
  8570.000000   2057435   2058874   2060172   2061344   2062452  
  8560.000000   2063554   2064692   2065845   2066934   2067849  
  8550.000000   2068491   2068821   2068878   2068761   2068585  
  8540.000000   2068406   2068197   2067848   2067240   2066329  
  8530.000000   2065205   2064100   2063315   2063109   2063583  
  8520.000000   2064620   2065914   2067088   2067835   2068054  
  8510.000000   2067874   2067628   2067690   2068353   2069697  
  8500.000000   2071593   2073740   2075808   2077533   2078804  
  8490.000000   2079677   2080312   2080924   2081698   2082766  
  8480.000000   2084181   2085923   2087913   2089997   2091967  
  8470.000000   2093560   2094519   2094657   2093927   2092474  
  8460.000000   2090617   2088803   2087486   2087016   2087531  
  8450.000000   2088943   2090957   2093168   2095146   2096560  
  8440.000000   2097228   2097154   2096484   2095484   2094467  
  8430.000000   2093732   2093495   2093855   2094775   2096092  
  8420.000000   2097533   2098797   2099610   2099808   2099341  
  8410.000000   2098307   2096906   2095381   2093965   2092808  
  8400.000000   2091982   2091445   2091083   2090737   2090267  
  8390.000000   2089591   2088705   2087706   2086761   2086094  
  8380.000000   2085902   2086321   2087368   2088947   2090866  
  8370.000000   2092873   2094734   2096249   2097316   2097882  
  8360.000000   2097945   2097506   2096583   2095220   2093523  
  8350.000000   2091679   2089953   2088658   2088054   2088291  
  8340.000000   2089285   2090782   2092359   2093591   2094137  
  8330.000000   2093867   2092891   2091492   2090025   2088762  
  8320.000000   2087811   2087079   2086333   2085315   2083872  
  8310.000000   2082050   2080092   2078367   2077225   2076876  
  8300.000000   2077294   2078211   2079190   2079765   2079606  
  8290.000000   2078609   2076931   2074930   2073059   2071730  
  8280.000000   2071197   2071490   2072421   2073656   2074815  
  8270.000000   2075573   2075726   2075216   2074123   2072624  
  8260.000000   2070928   2069221   2067639   2066249   2065074  
  8250.000000   2064099   2063286   2062605   2062017   2061515  
  8240.000000   2061078   2060711   2060401   2060152   2059953  
  8230.000000   2059782   2059592   2059301   2058804   2057985  
  8220.000000   2056761   2055100   2053050   2050733   2048325  
  8210.000000   2046020   2043963   2042235   2040812   2039619  
  8200.000000   2038535   2037480   2036412   2035363   2034399  
  8190.000000   2033584   2032933   2032374   2031776   2030957  
  8180.000000   2029776   2028149   2026106   2023767   2021312  
  8170.000000   2018942   2016814   2015050   2013696   2012771  
  8160.000000   2012245   2012065   2012134   2012301   2012361  
  8150.000000   2012072   2011204   2009593   2007217   2004212  
  8140.000000   2000870   1997562   1994649   1992378   1990816  
  8130.000000   1989849   1989218   1988620   1987799   1986618  
  8120.000000   1985090   1983344   1981574   1979946   1978564  
  8110.000000   1977428   1976477   1975617   1974790   1973994  
  8100.000000   1973301   1972825   1972672   1972897   1973453  
  8090.000000   1974186   1974861   1975204   1974994   1974106  
  8080.000000   1972570   1970550   1968314   1966159   1964323  
  8070.000000   1962942   1962011   1961425   1961020   1960656  
  8060.000000   1960247   1959792   1959329   1958900   1958485  
  8050.000000   1957996   1957297   1956252   1954818   1953056  
  8040.000000   1951157   1949360   1947878   1946812   1946108  
  8030.000000   1945593   1945036   1944259   1943211   1941989  
  8020.000000   1940795   1939846   1939274   1939066   1939069  
  8010.000000   1939041   1938764   1938103   1937078   1935822  
  8000.000000   1934538   1933410   1932541   1931941   1931536  
  7990.000000   1931236   1930972   1930734   1930557   1930497  
  7980.000000   1930579   1930774   1930987   1931086   1930939  
  7970.000000   1930455   1929617   1928474   1927136   1925739  
  7960.000000   1924411   1923255   1922318   1921601   1921049  
  7950.000000   1920578   1920089   1919497   1918753   1917851  
  7940.000000   1916839   1915788   1914787   1913899   1913164  
  7930.000000   1912577   1912117   1911748   1911450   1911221  
  7920.000000   1911073   1911029   1911099   1911290   1911591  
  7910.000000   1911992   1912485   1913058   1913692   1914331  
  7900.000000   1914881   1915206   1915161   1914620   1913535  
  7890.000000   1911949   1910023   1907987   1906107   1904613  
  7880.000000   1903647   1903248   1903338   1903777   1904386  
  7870.000000   1905016   1905557   1905973   1906274   1906507  
  7860.000000   1906732   1906990   1907300   1907637   1907947  
  7850.000000   1908149   1908161   1907920   1907409   1906667  
  7840.000000   1905787   1904894   1904104   1903498   1903083  
  7830.000000   1902804   1902561   1902255   1901822   1901268  
  7820.000000   1900651   1900068   1899593   1899259   1899028  
  7810.000000   1898823   1898553   1898163   1897653   1897085  
  7800.000000   1896542   1896098   1895773   1895532   1895294  
  7790.000000   1894975   1894519   1893912   1893177   1892344  
  7780.000000   1891428   1890417   1889282   1888015   1886650  
  7770.000000   1885277   1884026   1883021   1882331   1881944  
  7760.000000   1881760   1881638   1881434   1881065   1880521  
  7750.000000   1879856   1879156   1878486   1877872   1877290  
  7740.000000   1876698   1876056   1875357   1874623   1873886  
  7730.000000   1873171   1872474   1871778   1871066   1870357  
  7720.000000   1869708   1869203   1868914   1868857   1868965  
  7710.000000   1869098   1869082   1868769   1868091   1867088  
  7700.000000   1865892   1864683   1863632   1862854   1862376  
  7690.000000   1862152   1862086   1862070   1862009   1861841  
  7680.000000   1861533   1861078   1860490   1859801   1859060  
  7670.000000   1858326   1857655   1857090   1856642   1856293  
  7660.000000   1856004   1855731   1855442   1855126   1854787  
  7650.000000   1854425   1854025   1853546   1852935   1852144  
  7640.000000   1851166   1850041   1848869   1847784   1846926  
  7630.000000   1846400   1846246   1846434   1846865   1847404  
  7620.000000   1847905   1848249   1848367   1848252   1847964  
  7610.000000   1847601   1847285   1847108   1847113   1847266  
  7600.000000   1847478   1847630   1847624   1847419   1847050  
  7590.000000   1846628   1846286   1846146   1846260   1846596  
  7580.000000   1847046   1847472   1847757   1847835   1847720  
  7570.000000   1847476   1847196   1846951   1846782   1846679  
  7560.000000   1846615   1846555   1846491   1846434   1846419  
  7550.000000   1846486   1846666   1846980   1847430   1848018  
  7540.000000   1848740   1849588   1850552   1851598   1852675  
  7530.000000   1853703   1854599   1855279   1855694   1855827  
  7520.000000   1855721   1855456   1855155   1854946   1854949  
  7510.000000   1855233   1855812   1856635   1857605   1858602  
  7500.000000   1859524   1860314   1860981   1861587   1862225  
  7490.000000   1862974   1863886   1864958   1866154   1867405  
  7480.000000   1868661   1869887   1871081   1872247   1873399  
  7470.000000   1874526   1875617   1876656   1877653   1878636  
  7460.000000   1879662   1880787   1882047   1883444   1884937  
  7450.000000   1886469   1887988   1889474   1890950   1892458  
  7440.000000   1894045   1895720   1897448   1899138   1900690  
  7430.000000   1902011   1903071   1903905   1904622   1905364  
  7420.000000   1906272   1907441   1908910   1910645   1912567  
  7410.000000   1914573   1916574   1918511   1920369   1922170  
  7400.000000   1923964   1925802   1927725   1929744   1931843  
  7390.000000   1933978   1936095   1938143   1940089   1941923  
  7380.000000   1943657   1945314   1946921   1948489   1950015  
  7370.000000   1951479   1952858   1954134   1955314   1956428  
  7360.000000   1957531   1958694   1959987   1961470   1963164  
  7350.000000   1965061   1967108   1969228   1971325   1973321  
  7340.000000   1975169   1976864   1978442   1979955   1981457  
  7330.000000   1982972   1984496   1985986   1987389   1988661  
  7320.000000   1989791   1990810   1991782   1992795   1993923  
  7310.000000   1995216   1996677   1998276   1999955   2001659  
  7300.000000   2003342   2004979   2006550   2008034   2009397  
  7290.000000   2010589   2011560   2012275   2012738   2013001  
  7280.000000   2013159   2013335   2013649   2014191   2014990  
  7270.000000   2016019   2017199   2018438   2019651   2020790  
  7260.000000   2021853   2022866   2023876   2024904   2025959  
  7250.000000   2027010   2028029   2028981   2029886   2030782  
  7240.000000   2031756   2032884   2034241   2035844   2037685  
  7230.000000   2039710   2041874   2044126   2046460   2048870  
  7220.000000   2051378   2053985   2056702   2059516   2062432  
  7210.000000   2065445   2068582   2071852   2075272   2078816  
  7200.000000   2082448   2086093   2089689   2093179   2096547  
  7190.000000   2099798   2102971   2106103   2109232   2112374  
  7180.000000   2115543   2118742   2121988   2125306   2128737  
  7170.000000   2132308   2136042   2139918   2143901   2147914  
  7160.000000   2151897   2155776   2159537   2163179   2166777  
  7150.000000   2170420   2174253   2178398   2182971   2188005  
  7140.000000   2193477   2199265   2205231   2211217   2217139  
  7130.000000   2222962   2228744   2234555   2240491   2246577  
  7120.000000   2252809   2259104   2265395   2271612   2277763  
  7110.000000   2283887   2290071   2296383   2302871   2309526  
  7100.000000   2316324   2323215   2330185   2337225   2344352  
  7090.000000   2351558   2358821   2366071   2373245   2380287  
  7080.000000   2387205   2394061   2400972   2408051   2415388  
  7070.000000   2422992   2430813   2438743   2446676   2454517  
  7060.000000   2462225   2469788   2477220   2484538   2491763  
  7050.000000   2498919   2506048   2513214   2520491   2527939  
  7040.000000   2535576   2543359   2551187   2558931   2566461  
  7030.000000   2573699   2580622   2587280   2593752   2600138  
  7020.000000   2606510   2612921   2619378   2625882   2632404  
  7010.000000   2638925   2645399   2651791   2658044   2664119  
  7000.000000   2669976   2675616   2681049   2686321   2691472  
  6990.000000   2696559   2701615   2706680   2711767   2716901  
  6980.000000   2722069   2727266   2732438   2737535   2742474  
  6970.000000   2747202   2751662   2755852   2759778   2763488  
  6960.000000   2767014   2770405   2773683   2776880   2779999  
  6950.000000   2783058   2786043   2788951   2791743   2794401  
  6940.000000   2796898   2799251   2801487   2803674   2805865  
  6930.000000   2808108   2810397   2812704   2814959   2817110  
  6920.000000   2819115   2820982   2822742   2824455   2826166  
  6910.000000   2827906   2829674   2831454   2833211   2834916  
  6900.000000   2836530   2838030   2839387   2840596   2841660  
  6890.000000   2842627   2843555   2844532   2845619   2846853  
  6880.000000   2848210   2849628   2851013   2852278   2853361  
  6870.000000   2854240   2854924   2855441   2855817   2856072  
  6860.000000   2856227   2856314   2856386   2856514   2856772  
  6850.000000   2857211   2857837   2858620   2859490   2860381  
  6840.000000   2861241   2862061   2862850   2863638   2864437  
  6830.000000   2865246   2866045   2866811   2867530   2868204  
  6820.000000   2868836   2869422   2869926   2870294   2870461  
  6810.000000   2870389   2870078   2869584   2868993   2868403  
  6800.000000   2867879   2867445   2867079   2866741   2866393  
  6790.000000   2866031   2865670   2865349   2865089   2864894  
  6780.000000   2864735   2864575   2864376   2864126   2863833  
  6770.000000   2863515   2863185   2862831   2862422   2861919  
  6760.000000   2861296   2860556   2859733   2858888   2858081  
  6750.000000   2857363   2856757   2856273   2855903   2855641  
  6740.000000   2855477   2855397   2855375   2855365   2855310  
  6730.000000   2855147   2854828   2854330   2853660   2852851  
  6720.000000   2851954   2851034   2850152   2849371   2848739  
  6710.000000   2848286   2848002   2847843   2847715   2847515  
  6700.000000   2847136   2846516   2845644   2844570   2843378  
  6690.000000   2842159   2840970   2839834   2838725   2837611  
  6680.000000   2836458   2835272   2834073   2832910   2831808  
  6670.000000   2830783   2829805   2828835   2827823   2826734  
  6660.000000   2825546   2824255   2822854   2821339   2819702  
  6650.000000   2817947   2816093   2814189   2812294   2810477  
  6640.000000   2808781   2807224   2805785   2804424   2803088  
  6630.000000   2801733   2800320   2798828   2797233   2795522  
  6620.000000   2793686   2791732   2789688   2787606   2785550  
  6610.000000   2783579   2781729   2780004   2778374   2776794  
  6600.000000   2775214   2773602   2771938   2770224   2768464  
  6590.000000   2766669   2764850   2763025   2761222   2759478  
  6580.000000   2757828   2756291   2754855   2753476   2752083  
  6570.000000   2750600   2748970   2747174   2745238   2743221  
  6560.000000   2741200   2739242   2737390   2735653   2734013  
  6550.000000   2732430   2730861   2729271   2727640   2725971  
  6540.000000   2724284   2722613   2720993   2719445   2717974  
  6530.000000   2716560   2715170   2713766   2712325   2710848  
  6520.000000   2709362   2707912   2706538   2705267   2704098  
  6510.000000   2703008   2701961   2700921   2699866   2698780  
  6500.000000   2697660   2696497   2695278   2693990   2692631  
  6490.000000   2691216   2689783   2688383   2687064   2685856  
  6480.000000   2684756   2683742   2682774   2681823   2680874  
  6470.000000   2679931   2679001   2678080   2677150   2676172  
  6460.000000   2675112   2673951   2672701   2671400   2670103  
  6450.000000   2668852   2667669   2666548   2665467   2664409  
  6440.000000   2663374   2662384   2661473   2660663   2659956  
  6430.000000   2659315   2658688   2658015   2657259   2656407  
  6420.000000   2655484   2654521   2653558   2652623   2651738  
  6410.000000   2650922   2650202   2649607   2649164   2648876  
  6400.000000   2648717   2648628   2648535   2648369   2648097  
  6390.000000   2647722   2647290   2646858   2646481   2646182  
  6380.000000   2645953   2645759   2645553   2645296   2644965  
  6370.000000   2644558   2644086   2643571   2643033   2642497  
  6360.000000   2641979   2641494   2641037   2640596   2640135  
  6350.000000   2639618   2639012   2638307   2637517   2636685  
  6340.000000   2635855   2635068   2634334   2633642   2632959  
  6330.000000   2632256   2631514   2630741   2629949   2629158  
  6320.000000   2628364   2627549   2626672   2625699   2624610  
  6310.000000   2623413   2622139   2620829   2619515   2618212  
  6300.000000   2616911   2615599   2614260   2612895   2611511  
  6290.000000   2610129   2608751   2607375   2605978   2604537  
  6280.000000   2603030   2601454   2599820   2598150   2596462  
  6270.000000   2594770   2593072   2591361   2589625   2587857  
  6260.000000   2586054   2584226   2582380   2580532   2578697  
  6250.000000   2576899   2575156   2573488   2571894   2570359  
  6240.000000   2568842   2567296   2565676   2563960   2562150  
  6230.000000   2560281   2558393   2556525   2554693   2552887  
  6220.000000   2551082   2549247   2547364   2545431   2543465  
  6210.000000   2541490   2539523   2537576   2535650   2533749  
  6200.000000   2531886   2530082   2528365   2526753   2525246  
  6190.000000   2523817   2522420   2520999   2519511   2517932  
  6180.000000   2516270   2514547   2512809   2511095   2509442  
  6170.000000   2507873   2506397   2505010   2503695   2502424  
  6160.000000   2501168   2499903   2498621   2497328   2496047  
  6150.000000   2494805   2493622   2492496   2491404   2490310  
  6140.000000   2489177   2487982   2486728   2485432   2484125  
  6130.000000   2482825   2481542   2480266   2478988   2477705  
  6120.000000   2476438   2475222   2474102   2473109   2472255  
  6110.000000   2471520   2470873   2470269   2469681   2469090  
  6100.000000   2468497   2467902   2467312   2466716   2466115  
  6090.000000   2465505   2464909   2464346   2463853   2463446  
  6080.000000   2463135   2462898   2462716   2462562   2462440  
  6070.000000   2462359   2462357   2462459   2462687   2463029  
  6060.000000   2463468   2463963   2464498   2465052   2465643  
  6050.000000   2466282   2467003   2467817   2468743   2469779  
  6040.000000   2470933   2472199   2473582   2475068   2476652  
  6030.000000   2478308   2480025   2481784   2483591   2485448  
  6020.000000   2487370   2489354   2491400   2493480   2495577  
  6010.000000   2497665   2499742   2501807   2503878   2505957  
  6000.000000   2508051   2510147   2512239   2514322   2516414  
  5990.000000   2518543   2520752   2523069   2525514   2528075  
  5980.000000   2530731   2533450   2536213   2539009   2541850  
  5970.000000   2544741   2547695   2550699   2553746   2556805  
  5960.000000   2559869   2562920   2565964   2569000   2572039  
  5950.000000   2575083   2578152   2581264   2584461   2587783  
  5940.000000   2591271   2594942   2598785   2602760   2606806  
  5930.000000   2610864   2614892   2618873   2622808   2626702  
  5920.000000   2630549   2634318   2637959   2641412   2644632  
  5910.000000   2647600   2650332   2652874   2655291   2657655  
  5900.000000   2660029   2662472   2665025   2667724   2670578  
  5890.000000   2673583   2676702   2679888   2683082   2686239  
  5880.000000   2689330   2692355   2695322   2698243   2701115  
  5870.000000   2703914   2706605   2709156   2711554   2713818  
  5860.000000   2715995   2718142   2720313   2722542   2724841  
  5850.000000   2727204   2729620   2732084   2734594   2737151  
  5840.000000   2739749   2742370   2744993   2747600   2750188  
  5830.000000   2752776   2755393   2758064   2760798   2763570  
  5820.000000   2766336   2769039   2771642   2774138   2776552  
  5810.000000   2778936   2781333   2783782   2786271   2788793  
  5800.000000   2791297   2793776   2796201   2798598   2800948  
  5790.000000   2803257   2805461   2807501   2809255   2810627  
  5780.000000   2811492   2811780   2811424   2810427   2808809  
  5770.000000   2806664   2804098   2801269   2798316   2795384  
  5760.000000   2792558   2789908   2787443   2785175   2783090  
  5750.000000   2781197   2779493   2777983   2776651   2775463  
  5740.000000   2774377   2773342   2772333   2771332   2770358  
  5730.000000   2769420   2768542   2767714   2766934   2766179  
  5720.000000   2765447   2764741   2764086   2763498   2762992  
  5710.000000   2762557   2762174   2761813   2761460   2761114  
  5700.000000   2760798   2760537   2760348   2760225   2760136  
  5690.000000   2760040   2759894   2759679   2759392   2759057  
  5680.000000   2758688   2758301   2757872   2757374   2756749  
  5670.000000   2755956   2754948   2753707   2752218   2750490  
  5660.000000   2748537   2746395   2744103   2741722   2739308  
  5650.000000   2736919   2734588   2732340   2730175   2728094  
  5640.000000   2726095   2724185   2722373   2720665   2719057  
  5630.000000   2717530   2716062   2714626   2713217   2711839  
  5620.000000   2710515   2709263   2708101   2707017   2705996  
  5610.000000   2705007   2704030   2703054   2702087   2701137  
  5600.000000   2700221   2699339   2698491   2697668   2696862  
  5590.000000   2696072   2695297   2694534   2693769   2692985  
  5580.000000   2692156   2691270   2690329   2689356   2688381  
  5570.000000   2687434   2686526   2685645   2684759   2683830  
  5560.000000   2682826   2681738   2680572   2679354   2678110  
  5550.000000   2676863   2675626   2674408   2673215   2672057  
  5540.000000   2670940   2669864   2668816   2667774   2666710  
  5530.000000   2665610   2664473   2663321   2662185   2661092  
  5520.000000   2660050   2659044   2658036   2656991   2655879  
  5510.000000   2654700   2653465   2652203   2650932   2649662  
  5500.000000   2648384   2647090   2645773   2644442   2643108  
  5490.000000   2641787   2640472   2639146   2637772   2636322  
  5480.000000   2634774   2633141   2631449   2629739   2628036  
  5470.000000   2626350   2624661   2622948   2621184   2619365  
  5460.000000   2617495   2615590   2613659   2611700   2609697  
  5450.000000   2607640   2605526   2603376   2601229   2599132  
  5440.000000   2597121   2595212   2593397   2591655   2589964  
  5430.000000   2588304   2586671   2585054   2583455   2581858  
  5420.000000   2580265   2578679   2577139   2575689   2574395  
  5410.000000   2573284   2572373   2571618   2570977   2570387  
  5400.000000   2569834   2569314   2568878   2568559   2568409  
  5390.000000   2568424   2568603   2568908   2569342   2569895  
  5380.000000   2570613   2571510   2572624   2573927   2575410  
  5370.000000   2577009   2578718   2580507   2582420   2584462  
  5360.000000   2586696   2589111   2591751   2594589   2597686  
  5350.000000   2601050   2604787   2608928   2613573   2618702  
  5340.000000   2624356   2630456   2637023   2643984   2651393  
  5330.000000   2659199   2667472   2676155   2685310   2694881  
  5320.000000   2704958   2715523   2726720   2738551   2751162  
  5310.000000   2764518   2778708   2793645   2809389   2825857  
  5300.000000   2843143   2861214   2880212   2900134   2921122  
  5290.000000   2943135   2966232   2990279   3015224   3040868  
  5280.000000   3067151   3093944   3121310   3149264   3177961  
  5270.000000   3207442   3237749   3268749   3300256   3332006  
  5260.000000   3363781   3395448   3426983   3458461   3489938  
  5250.000000   3521453   3552879   3584055   3614674   3644550  
  5240.000000   3673466   3701453   3728503   3754812   3780423  
  5230.000000   3805489   3829924   3853731   3876700   3898792  
  5220.000000   3919833   3939895   3958939   3977155   3994570  
  5210.000000   4011366   4027490   4043004   4057733   4071665  
  5200.000000   4084634   4096709   4107839   4118195   4127774  
  5190.000000   4136723   4144973   4152585   4159438   4165585  
  5180.000000   4170946   4175628   4179599   4182970   4185688  
  5170.000000   4187824   4189305   4190201   4190478   4190240  
  5160.000000   4189479   4188287   4186619   4184522   4181933  
  5150.000000   4178905   4175418   4171567   4167365   4162900  
  5140.000000   4158155   4153167   4147895   4142368   4136573  
  5130.000000   4130572   4124383   4118068   4111628   4105092  
  5120.000000   4098439   4091691   4084848   4077950   4071013  
  5110.000000   4064071   4057117   4050151   4043146   4036099  
  5100.000000   4029006   4021895   4014790   4007724   4000705  
  5090.000000   3993736   3986793   3979856   3972901   3965921  
  5080.000000   3958910   3951881   3944840   3937800   3930766  
  5070.000000   3923748   3916744   3909755   3902765   3895761  
  5060.000000   3888716   3881613   3874436   3867191   3859889  
  5050.000000   3852558   3845216   3837881   3830548   3823212  
  5040.000000   3815856   3808474   3801069   3793654   3786249  
  5030.000000   3778870   3771532   3764238   3756996   3749807  
  5020.000000   3742688   3735651   3728723   3721915   3715248  
  5010.000000   3708716   3702332   3696082   3689979   3684013  
  5000.000000   3678209   3672558   3667088   3661790   3656701  
  4990.000000   3651817   3647183   3642796   3638698   3634868  
  4980.000000   3631328   3628033   3624998   3622187   3619639  
  4970.000000   3617346   3615379   3613740   3612497   3611635  
  4960.000000   3611197   3611146   3611519   3612277   3613464  
  4950.000000   3615044   3617057   3619455   3622265   3625429  
  4940.000000   3628977   3632862   3637127   3641737   3646733  
  4930.000000   3652071   3657774   3663785   3670126   3676751  
  4920.000000   3683697   3690939   3698519   3706416   3714656  
  4910.000000   3723200   3732055   3741177   3750560   3760163  
  4900.000000   3769972   3779948   3790068   3800298   3810611  
  4890.000000   3820978   3831365   3841739   3852044   3862236  
  4880.000000   3872240   3882019   3891506   3900690   3909520  
  4870.000000   3918001   3926080   3933753   3940953   3947678  
  4860.000000   3953875   3959571   3964750   3969471   3973740  
  4850.000000   3977626   3981134   3984326   3987207   3989842  
  4840.000000   3992244   3994481   3996572   3998577   4000510  
  4830.000000   4002418   4004307   4006206   4008112   4010037  
  4820.000000   4011968   4013901   4015822   4017733   4019634  
  4810.000000   4021541   4023466   4025423   4027414   4029434  
  4800.000000   4031469   4033506   4035537   4037564   4039597  
  4790.000000   4041650   4043735   4045859   4048022   4050220  
  4780.000000   4052450   4054711   4057001   4059319   4061650  
  4770.000000   4063975   4066258   4068467   4070566   4072538  
  4760.000000   4074376   4076095   4077709   4079244   4080707  
  4750.000000   4082114   4083455   4084736   4085945   4087092  
  4740.000000   4088171   4089194   4090151   4091046   4091860  
  4730.000000   4092584   4093194   4093680   4094031   4094250  
  4720.000000   4094343   4094332   4094244   4094113   4093979  
  4710.000000   4093881   4093862   4093956   4094194   4094596  
  4700.000000   4095169   4095912   4096813   4097854   4099019  
  4690.000000   4100289   4101654   4103102   4104625   4106204  
  4680.000000   4107817   4109425   4110990   4112460   4113801  
  4670.000000   4114982   4116000   4116862   4117604   4118261  
  4660.000000   4118888   4119531   4120244   4121069   4122048  
  4650.000000   4123206   4124558   4126106   4127836   4129728  
  4640.000000   4131753   4133889   4136111   4138403   4140740  
  4630.000000   4143102   4145452   4147756   4149967   4152048  
  4620.000000   4153959   4155675   4157168   4158427   4159429  
  4610.000000   4160174   4160649   4160878   4160879   4160710  
  4600.000000   4160410   4160050   4159656   4159272   4158881  
  4590.000000   4158486   4158039   4157516   4156861   4156052  
  4580.000000   4155043   4153823   4152368   4150690   4148796  
  4570.000000   4146727   4144515   4142213   4139847   4137450  
  4560.000000   4135024   4132575   4130084   4127549   4124959  
  4550.000000   4122319   4119627   4116892   4114113   4111296  
  4540.000000   4108448   4105581   4102723   4099902   4097156  
  4530.000000   4094507   4091984   4089578   4087296   4085109  
  4520.000000   4083023   4081007   4079088   4077246   4075531  
  4510.000000   4073934   4072533   4071341   4070475   4069973  
  4500.000000   4069974   4070508   4071692   4073508   4076027  
  4490.000000   4079192   4083062   4087593   4092875   4098896  
  4480.000000   4105765   4113461   4122061   4131495   4141783  
  4470.000000   4152808   4164558   4176909   4189847   4203262  
  4460.000000   4217147   4231405   4246025   4260914   4276052  
  4450.000000   4291355   4306800   4322325   4337919   4353551  
  4440.000000   4369216   4384906   4400604   4416305   4431963  
  4430.000000   4447568   4463046   4478380   4493478   4508320  
  4420.000000   4522798   4536890   4550479   4563538   4575944  
  4410.000000   4587673   4598604   4608720   4617925   4626234  
  4400.000000   4633600   4640094   4645737   4650661   4654946  
  4390.000000   4658759   4662210   4665471   4668643   4671864  
  4380.000000   4675194   4678705   4682406   4686316   4690424  
  4370.000000   4694747   4699296   4704112   4709229   4714683  
  4360.000000   4720484   4726620   4733037   4739682   4746444  
  4350.000000   4753264   4760015   4766670   4773131   4779419  
  4340.000000   4785473   4791319   4796852   4801971   4806389  
  4330.000000   4809773   4811656   4811627   4809340   4804710  
  4320.000000   4797902   4789409   4779903   4770191   4760982  
  4310.000000   4752851   4746088   4740775   4736770   4733856  
  4300.000000   4731775   4730320   4729354   4728785   4728591  
  4290.000000   4728729   4729215   4730008   4731135   4732567  
  4280.000000   4734324   4736378   4738705   4741261   4743983  
  4270.000000   4746824   4749708   4752571   4755278   4757661  
  4260.000000   4759459   4760392   4760168   4758589   4755572  
  4250.000000   4751226   4745799   4739680   4733268   4726966  
  4240.000000   4721051   4715717   4711003   4706891   4703271  
  4230.000000   4700041   4697073   4694263   4691526   4688790  
  4220.000000   4686035   4683244   4680475   4677768   4675234  
  4210.000000   4672929   4670949   4669315   4668073   4667203  
  4200.000000   4666714   4666569   4666767   4667263   4668047  
  4190.000000   4669056   4670274   4671630   4673114   4674664  
  4180.000000   4676294   4677964   4679713   4681525   4683468  
  4170.000000   4685561   4687902   4690534   4693563   4697018  
  4160.000000   4700974   4705417   4710383   4715821   4721749  
  4150.000000   4728109   4734923   4742133   4749771   4757781  
  4140.000000   4766209   4775017   4784272   4793950   4804125  
  4130.000000   4814764   4825914   4837521   4849614   4862140  
  4120.000000   4875142   4888595   4902561   4917031   4932056  
  4110.000000   4947606   4963695   4980259   4997277   5014666  
  4100.000000   5032384   5050347   5068513   5086822   5105254  
  4090.000000   5123786   5142418   5161146   5179963   5198861  
  4080.000000   5217806   5236787   5255750   5274684   5293518  
  4070.000000   5312228   5330708   5348921   5366750   5384176  
  4060.000000   5401105   5417560   5433467   5448859   5463651  
  4050.000000   5477883   5491475   5504506   5516933   5528870  
  4040.000000   5540268   5551202   5561555   5571342   5580405  
  4030.000000   5588756   5596263   5602973   5608799   5613794  
  4020.000000   5617865   5621085   5623448   5625063   5625910  
  4010.000000   5626154   5625886   5625136   5623670   5621545  
  4000.000000   5619082  
##END= 
