##TITLE= Sample 017 By ssteindl date Dienstag, November 20 2018
##JCAMP-DX= 4.24
##DATA TYPE= INFRARED SPECTRUM
##ORIGIN= Exported PE Spectrum Data File
##OWNER= Sandra Steindl
##DATE= 18/11/20
##TIME= 17:10:43.00
##SPECTROMETER/DATA SYSTEM= PERKIN-ELMER Frontier FT-IR/NIR IR
##INSTRUMENT PARAMETERS=
  APODIZATION=stark
  DETECTOR=INGAAS
##RESOLUTION= 16.000000
##DELTAX= -2.000000
##XUNITS= 1/CM
##YUNITS= A
##XFACTOR= 1.00
##YFACTOR= 0.00000011920928955078
##FIRSTX= 10000.00
##LASTX= 4000.00
##NPOINTS= 3001
##FIRSTY= 0.226443
##MAXY= 0.616543
##MINY= 0.194633
##XYDATA= (X++(Y..Y))
 10000.000000   1899542   1894987   1891271   1889411   1889358  
  9990.000000   1890230   1891260   1891964   1891920   1890773  
  9980.000000   1888517   1885395   1881744   1877866   1874181  
  9970.000000   1871064   1868883   1867804   1867790   1868486  
  9960.000000   1869279   1869501   1868615   1866553   1863746  
  9950.000000   1861125   1859798   1860671   1864110   1869687  
  9940.000000   1876295   1882356   1886308   1886992   1883982  
  9930.000000   1877687   1869232   1860182   1852190   1846634  
  9920.000000   1844365   1845508   1849451   1854952   1860398  
  9910.000000   1864220   1865272   1863213   1858595   1852755  
  9900.000000   1847424   1844189   1844052   1847088   1852515  
  9890.000000   1858889   1864639   1868483   1869830   1868854  
  9880.000000   1866328   1863315   1860732   1859152   1858668  
  9870.000000   1859034   1859878   1860877   1861943   1863152  
  9860.000000   1864668   1866544   1868536   1870130   1870587  
  9850.000000   1869313   1866096   1861406   1856299   1852247  
  9840.000000   1850574   1852103   1856691   1863301   1870172  
  9830.000000   1875374   1877366   1875393   1869688   1861231  
  9820.000000   1851402   1841464   1832291   1824240   1817335  
  9810.000000   1811478   1806695   1803192   1801257   1801098  
  9800.000000   1802616   1805382   1808693   1811777   1814096  
  9790.000000   1815426   1816010   1816281   1816779   1817830  
  9780.000000   1819504   1821621   1823855   1825956   1827800  
  9770.000000   1829492   1831232   1833218   1835467   1837724  
  9760.000000   1839462   1839969   1838593   1834904   1828934  
  9750.000000   1821176   1812526   1804093   1796916   1791828  
  9740.000000   1789213   1789095   1791085   1794636   1799085  
  9730.000000   1803836   1808348   1812147   1814851   1816116  
  9720.000000   1815820   1813956   1810835   1806832   1802477  
  9710.000000   1798171   1794258   1790937   1788371   1786768  
  9700.000000   1786327   1787307   1789762   1793617   1798476  
  9690.000000   1803821   1809095   1813895   1818093   1821714  
  9680.000000   1824863   1827388   1828879   1828642   1826033  
  9670.000000   1820785   1813298   1804724   1796661   1790803  
  9660.000000   1788280   1789452   1793636   1799506   1805381  
  9650.000000   1809835   1811972   1811591   1809042   1804943  
  9640.000000   1799950   1794527   1789041   1783709   1778826  
  9630.000000   1774614   1771272   1768795   1766961   1765431  
  9620.000000   1763845   1762083   1760308   1759001   1758782  
  9610.000000   1760152   1763302   1767945   1773406   1778757  
  9600.000000   1783096   1785740   1786420   1785295   1782964  
  9590.000000   1780265   1778103   1777164   1777707   1779483  
  9580.000000   1781753   1783569   1784029   1782676   1779626  
  9570.000000   1775657   1771880   1769430   1768944   1770360  
  9560.000000   1772868   1775227   1776236   1775156   1771992  
  9550.000000   1767385   1762336   1757754   1754149   1751493  
  9540.000000   1749378   1747281   1744886   1742248   1739757  
  9530.000000   1737976   1737354   1738076   1739968   1742612  
  9520.000000   1745505   1748183   1750330   1751706   1752174  
  9510.000000   1751612   1750021   1747541   1744557   1741622  
  9500.000000   1739354   1738226   1738349   1739443   1740855  
  9490.000000   1741888   1742027   1741224   1739870   1738628  
  9480.000000   1738112   1738583   1739833   1741188   1741817  
  9470.000000   1740985   1738444   1734482   1729897   1725676  
  9460.000000   1722654   1721290   1721546   1723064   1725322  
  9450.000000   1727899   1730564   1733296   1736161   1739168  
  9440.000000   1742129   1744645   1746205   1746380   1745031  
  9430.000000   1742366   1738931   1735405   1732414   1730355  
  9420.000000   1729289   1728984   1728982   1728812   1728098  
  9410.000000   1726715   1724738   1722445   1720152   1718188  
  9400.000000   1716786   1716084   1716118   1716795   1717946  
  9390.000000   1719261   1720391   1720935   1720573   1719116  
  9380.000000   1716575   1713174   1709317   1705541   1702408  
  9370.000000   1700427   1699915   1700973   1703389   1706722  
  9360.000000   1710296   1713369   1715250   1715470   1713926  
  9350.000000   1710842   1706775   1702322   1698060   1694288  
  9340.000000   1691062   1688177   1685328   1682316   1679191  
  9330.000000   1676370   1674483   1674187   1675876   1679523  
  9320.000000   1684662   1690432   1695814   1699818   1701806  
  9310.000000   1701611   1699624   1696625   1693591   1691451  
  9300.000000   1690886   1692184   1695167   1699239   1703521  
  9290.000000   1707096   1709215   1709488   1707921   1704913  
  9280.000000   1701111   1697245   1693929   1691541   1690174  
  9270.000000   1689718   1689931   1690581   1691454   1692432  
  9260.000000   1693408   1694302   1694978   1695281   1695071  
  9250.000000   1694254   1692851   1690963   1688777   1686489  
  9240.000000   1684285   1682302   1680640   1679364   1678509  
  9230.000000   1678064   1677957   1678050   1678149   1678033  
  9220.000000   1677508   1676491   1675083   1673569   1672374  
  9210.000000   1671907   1672438   1673989   1676293   1678847  
  9200.000000   1681025   1682307   1682447   1681567   1680086  
  9190.000000   1678605   1677664   1677565   1678215   1679167  
  9180.000000   1679803   1679546   1678126   1675594   1672346  
  9170.000000   1668899   1665710   1663007   1660722   1658623  
  9160.000000   1656490   1654377   1652655   1651957   1652887  
  9150.000000   1655822   1660632   1666655   1672757   1677686  
  9140.000000   1680469   1680630   1678360   1674322   1669526  
  9130.000000   1664895   1661054   1658160   1656002   1654177  
  9120.000000   1652304   1650247   1648140   1646391   1645449  
  9110.000000   1645702   1647254   1649918   1653219   1656542  
  9100.000000   1659318   1661108   1661744   1661289   1660044  
  9090.000000   1658395   1656729   1655325   1654349   1653811  
  9080.000000   1653611   1653563   1653470   1653176   1652573  
  9070.000000   1651658   1650502   1649274   1648174   1647418  
  9060.000000   1647172   1647522   1648439   1649780   1651324  
  9050.000000   1652831   1654092   1654962   1655377   1655335  
  9040.000000   1654899   1654134   1653122   1651923   1650615  
  9030.000000   1649266   1647943   1646736   1645726   1645024  
  9020.000000   1644697   1644832   1645473   1646624   1648195  
  9010.000000   1649989   1651741   1653118   1653820   1653612  
  9000.000000   1652438   1650410   1647811   1645033   1642508  
  8990.000000   1640626   1639659   1639738   1640827   1642730  
  8980.000000   1645100   1647500   1649485   1650687   1650899  
  8970.000000   1650146   1648694   1646992   1645532   1644738  
  8960.000000   1644847   1645856   1647537   1649523   1651438  
  8950.000000   1652971   1653923   1654183   1653709   1652483  
  8940.000000   1650529   1647948   1644980   1642018   1639551  
  8930.000000   1638063   1637874   1639054   1641335   1644209  
  8920.000000   1647030   1649228   1650450   1650618   1649931  
  8910.000000   1648705   1647298   1645926   1644672   1643470  
  8900.000000   1642233   1640922   1639631   1638585   1638078  
  8890.000000   1638387   1639650   1641817   1644616   1647613  
  8880.000000   1650313   1652273   1653251   1653238   1652466  
  8870.000000   1651326   1650260   1649646   1649697   1650441  
  8860.000000   1651735   1653353   1655034   1656563   1657749  
  8850.000000   1658455   1658553   1657969   1656700   1654846  
  8840.000000   1652646   1650414   1648502   1647150   1646438  
  8830.000000   1646243   1646315   1646378   1646257   1645962  
  8820.000000   1645688   1645737   1646370   1647704   1649664  
  8810.000000   1652010   1654460   1656768   1658835   1660660  
  8800.000000   1662311   1663811   1665109   1666077   1666589  
  8790.000000   1666598   1666208   1665655   1665234   1665187  
  8780.000000   1665598   1666394   1667357   1668266   1668952  
  8770.000000   1669401   1669709   1670061   1670606   1671414  
  8760.000000   1672439   1673546   1674578   1675387   1675892  
  8750.000000   1676040   1675833   1675276   1674411   1673314  
  8740.000000   1672122   1671033   1670275   1670056   1670500  
  8730.000000   1671629   1673345   1675483   1677827   1680184  
  8720.000000   1682391   1684345   1685980   1687264   1688209  
  8710.000000   1688853   1689287   1689609   1689921   1690262  
  8700.000000   1690603   1690843   1690846   1690517   1689839  
  8690.000000   1688929   1687999   1687316   1687096   1687433  
  8680.000000   1688255   1689339   1690393   1691137   1691418  
  8670.000000   1691232   1690759   1690271   1690083   1690426  
  8660.000000   1691401   1692931   1694815   1696778   1698583  
  8650.000000   1700082   1701269   1702258   1703238   1704394  
  8640.000000   1705841   1707577   1709497   1711428   1713211  
  8630.000000   1714739   1715993   1717024   1717914   1718751  
  8620.000000   1719585   1720456   1721380   1722385   1723513  
  8610.000000   1724806   1726279   1727887   1729518   1731011  
  8600.000000   1732203   1732976   1733305   1733264   1733019  
  8590.000000   1732779   1732747   1733081   1733865   1735110  
  8580.000000   1736744   1738645   1740645   1742572   1744280  
  8570.000000   1745670   1746733   1747520   1748155   1748745  
  8560.000000   1749374   1750038   1750686   1751245   1751690  
  8550.000000   1752102   1752658   1753618   1755201   1757534  
  8540.000000   1760561   1764055   1767664   1770997   1773727  
  8530.000000   1775643   1776707   1776988   1776666   1775941  
  8520.000000   1775050   1774198   1773572   1773311   1773492  
  8510.000000   1774132   1775153   1776466   1777973   1779652  
  8500.000000   1781523   1783672   1786161   1788967   1791925  
  8490.000000   1794725   1797012   1798467   1798955   1798562  
  8480.000000   1797612   1796544   1795774   1795575   1795987  
  8470.000000   1796860   1797909   1798864   1799560   1800000  
  8460.000000   1800313   1800683   1801250   1802048   1802985  
  8450.000000   1803892   1804590   1804977   1805071   1805010  
  8440.000000   1805003   1805273   1805982   1807181   1808780  
  8430.000000   1810571   1812278   1813606   1814310   1814253  
  8420.000000   1813457   1812110   1810520   1809061   1808081  
  8410.000000   1807834   1808393   1809657   1811360   1813176  
  8400.000000   1814786   1815969   1816627   1816795   1816600  
  8390.000000   1816193   1815692   1815146   1814555   1813886  
  8380.000000   1813130   1812318   1811545   1810939   1810621  
  8370.000000   1810652   1810994   1811523   1812045   1812373  
  8360.000000   1812357   1811967   1811293   1810545   1809969  
  8350.000000   1809785   1810105   1810901   1811988   1813078  
  8340.000000   1813847   1814033   1813510   1812313   1810624  
  8330.000000   1808701   1806803   1805112   1803695   1802507  
  8320.000000   1801442   1800404   1799350   1798328   1797448  
  8310.000000   1796834   1796568   1796636   1796940   1797303  
  8300.000000   1797544   1797509   1797140   1796473   1795642  
  8290.000000   1794831   1794246   1794058   1794386   1795247  
  8280.000000   1796537   1798030   1799421   1800396   1800714  
  8270.000000   1800284   1799207   1797775   1796380   1795408  
  8260.000000   1795082   1795421   1796220   1797153   1797873  
  8250.000000   1798158   1797947   1797362   1796591   1795812  
  8240.000000   1795073   1794314   1793385   1792156   1790585  
  8230.000000   1788759   1786856   1785070   1783516   1782189  
  8220.000000   1780961   1779661   1778143   1776370   1774411  
  8210.000000   1772424   1770571   1768964   1767636   1766550  
  8200.000000   1765645   1764870   1764198   1763606   1763044  
  8190.000000   1762407   1761551   1760350   1758763   1756878  
  8180.000000   1754911   1753129   1751759   1750887   1750417  
  8170.000000   1750091   1749595   1748669   1747225   1745363  
  8160.000000   1743325   1741394   1739776   1738546   1737635  
  8150.000000   1736900   1736209   1735513   1734868   1734385  
  8140.000000   1734144   1734111   1734114   1733883   1733151  
  8130.000000   1731753   1729721   1727266   1724733   1722478  
  8120.000000   1720750   1719622   1718971   1718563   1718134  
  8110.000000   1717511   1716651   1715646   1714648   1713795  
  8100.000000   1713143   1712626   1712101   1711385   1710362  
  8090.000000   1709003   1707408   1705739   1704184   1702881  
  8080.000000   1701888   1701190   1700717   1700401   1700186  
  8070.000000   1700056   1700008   1700042   1700136   1700248  
  8060.000000   1700324   1700309   1700171   1699873   1699392  
  8050.000000   1698678   1697685   1696369   1694742   1692892  
  8040.000000   1690987   1689263   1687940   1687190   1687049  
  8030.000000   1687436   1688152   1688960   1689650   1690070  
  8020.000000   1690163   1689912   1689332   1688419   1687167  
  8010.000000   1685578   1683718   1681729   1679838   1678311  
  8000.000000   1677383   1677198   1677747   1678878   1680316  
  7990.000000   1681743   1682855   1683436   1683387   1682733  
  7980.000000   1681611   1680230   1678830   1677631   1676792  
  7970.000000   1676376   1676339   1676539   1676774   1676835  
  7960.000000   1676550   1675830   1674678   1673172   1671443  
  7950.000000   1669631   1667867   1666263   1664919   1663925  
  7940.000000   1663356   1663264   1663636   1664395   1665377  
  7930.000000   1666371   1667162   1667576   1667545   1667091  
  7920.000000   1666351   1665484   1664665   1663997   1663527  
  7910.000000   1663225   1663029   1662878   1662745   1662655  
  7900.000000   1662669   1662874   1663327   1664051   1664998  
  7890.000000   1666071   1667144   1668087   1668811   1669260  
  7880.000000   1669443   1669384   1669128   1668700   1668121  
  7870.000000   1667400   1666570   1665706   1664922   1664376  
  7860.000000   1664207   1664518   1665311   1666503   1667922  
  7850.000000   1669368   1670654   1671646   1672288   1672575  
  7840.000000   1672542   1672219   1671626   1670777   1669699  
  7830.000000   1668462   1667180   1666012   1665111   1664601  
  7820.000000   1664513   1664795   1665296   1665825   1666187  
  7810.000000   1666233   1665901   1665210   1664264   1663203  
  7800.000000   1662184   1661333   1660734   1660410   1660338  
  7790.000000   1660468   1660730   1661067   1661419   1661754  
  7780.000000   1662034   1662233   1662324   1662279   1662081  
  7770.000000   1661703   1661138   1660362   1659366   1658142  
  7760.000000   1656710   1655128   1653505   1652004   1650806  
  7750.000000   1650089   1649955   1650417   1651363   1652600  
  7740.000000   1653879   1654967   1655702   1656008   1655907  
  7730.000000   1655471   1654797   1653957   1652991   1651911  
  7720.000000   1650726   1649465   1648188   1646989   1645959  
  7710.000000   1645171   1644637   1644320   1644120   1643918  
  7700.000000   1643599   1643088   1642372   1641501   1640584  
  7690.000000   1639746   1639102   1638709   1638560   1638564  
  7680.000000   1638592   1638505   1638211   1637685   1636992  
  7670.000000   1636250   1635596   1635142   1634938   1634968  
  7660.000000   1635168   1635452   1635752   1636031   1636286  
  7650.000000   1636526   1636753   1636944   1637054   1637024  
  7640.000000   1636813   1636403   1635825   1635133   1634413  
  7630.000000   1633747   1633207   1632849   1632697   1632758  
  7620.000000   1633009   1633408   1633898   1634415   1634905  
  7610.000000   1635324   1635658   1635903   1636071   1636168  
  7600.000000   1636204   1636179   1636108   1636014   1635937  
  7590.000000   1635925   1636014   1636225   1636543   1636935  
  7580.000000   1637359   1637779   1638180   1638555   1638901  
  7570.000000   1639199   1639418   1639512   1639461   1639272  
  7560.000000   1639006   1638750   1638597   1638607   1638792  
  7550.000000   1639113   1639509   1639926   1640356   1640828  
  7540.000000   1641400   1642107   1642943   1643838   1644689  
  7530.000000   1645394   1645911   1646267   1646576   1646975  
  7520.000000   1647592   1648482   1649621   1650910   1652220  
  7510.000000   1653442   1654524   1655480   1656374   1657295  
  7500.000000   1658320   1659489   1660801   1662206   1663629  
  7490.000000   1664978   1666166   1667123   1667817   1668263  
  7480.000000   1668532   1668730   1668982   1669396   1670046  
  7470.000000   1670949   1672077   1673370   1674766   1676210  
  7460.000000   1677669   1679120   1680549   1681940   1683289  
  7450.000000   1684605   1685925   1687300   1688796   1690441  
  7440.000000   1692228   1694084   1695914   1697607   1699102  
  7430.000000   1700389   1701531   1702632   1703804   1705128  
  7420.000000   1706644   1708341   1710190   1712158   1714223  
  7410.000000   1716371   1718591   1720858   1723139   1725395  
  7400.000000   1727608   1729783   1731954   1734155   1736404  
  7390.000000   1738671   1740886   1742959   1744816   1746443  
  7380.000000   1747895   1749297   1750784   1752474   1754401  
  7370.000000   1756526   1758732   1760884   1762857   1764579  
  7360.000000   1766032   1767251   1768294   1769227   1770104  
  7350.000000   1770972   1771870   1772834   1773894   1775065  
  7340.000000   1776344   1777705   1779115   1780541   1781967  
  7330.000000   1783397   1784852   1786359   1787938   1789600  
  7320.000000   1791347   1793179   1795097   1797103   1799194  
  7310.000000   1801342   1803494   1805571   1807482   1809152  
  7300.000000   1810547   1811683   1812630   1813495   1814382  
  7290.000000   1815380   1816526   1817817   1819204   1820632  
  7280.000000   1822044   1823405   1824694   1825902   1827019  
  7270.000000   1828028   1828909   1829639   1830225   1830697  
  7260.000000   1831130   1831621   1832280   1833197   1834423  
  7250.000000   1835954   1837740   1839695   1841726   1843743  
  7240.000000   1845697   1847551   1849314   1850985   1852592  
  7230.000000   1854143   1855678   1857223   1858839   1860568  
  7220.000000   1862463   1864542   1866812   1869256   1871856  
  7210.000000   1874596   1877483   1880528   1883747   1887125  
  7200.000000   1890627   1894171   1897674   1901043   1904228  
  7190.000000   1907203   1910004   1912680   1915306   1917937  
  7180.000000   1920626   1923388   1926236   1929165   1932180  
  7170.000000   1935281   1938488   1941809   1945268   1948868  
  7160.000000   1952613   1956480   1960443   1964455   1968489  
  7150.000000   1972521   1976578   1980700   1984970   1989441  
  7140.000000   1994151   1999057   2004083   2009101   2014017  
  7130.000000   2018771   2023392   2027954   2032585   2037381  
  7120.000000   2042415   2047678   2053133   2058704   2064350  
  7110.000000   2070040   2075786   2081590   2087450   2093321  
  7100.000000   2099161   2104920   2110602   2116243   2121931  
  7090.000000   2127744   2133743   2139925   2146247   2152632  
  7080.000000   2159015   2165353   2171653   2177938   2184245  
  7070.000000   2190584   2196946   2203304   2209635   2215927  
  7060.000000   2222192   2228449   2234717   2240994   2247272  
  7050.000000   2253530   2259763   2265970   2272156   2278308  
  7040.000000   2284387   2290334   2296085   2301616   2306966  
  7030.000000   2312253   2317634   2323273   2329260   2335597  
  7020.000000   2342166   2348788   2355260   2361438   2367247  
  7010.000000   2372707   2377883   2382865   2387724   2392510  
  7000.000000   2397248   2401964   2406678   2411418   2416184  
  6990.000000   2420972   2425727   2430411   2434969   2439403  
  6980.000000   2443724   2447980   2452191   2456354   2460411  
  6970.000000   2464289   2467904   2471222   2474254   2477076  
  6960.000000   2479781   2482472   2485207   2488023   2490906  
  6950.000000   2493843   2496797   2499754   2502679   2505545  
  6940.000000   2508297   2510893   2513291   2515490   2517510  
  6930.000000   2519411   2521249   2523079   2524922   2526784  
  6920.000000   2528642   2530488   2532303   2534091   2535838  
  6910.000000   2537536   2539153   2540664   2542046   2543299  
  6900.000000   2544436   2545485   2546465   2547379   2548211  
  6890.000000   2548938   2549550   2550068   2550541   2551050  
  6880.000000   2551667   2552452   2553421   2554561   2555838  
  6870.000000   2557210   2558641   2560102   2561562   2562981  
  6860.000000   2564309   2565501   2566528   2567399   2568163  
  6850.000000   2568896   2569675   2570556   2571546   2572611  
  6840.000000   2573678   2574679   2575555   2576293   2576904  
  6830.000000   2577432   2577918   2578403   2578902   2579418  
  6820.000000   2579936   2580436   2580891   2581281   2581586  
  6810.000000   2581800   2581922   2581968   2581952   2581897  
  6800.000000   2581815   2581720   2581620   2581532   2581474  
  6790.000000   2581473   2581546   2581700   2581913   2582146  
  6780.000000   2582349   2582481   2582526   2582499   2582436  
  6770.000000   2582379   2582351   2582353   2582359   2582337  
  6760.000000   2582270   2582163   2582050   2581973   2581965  
  6750.000000   2582025   2582122   2582198   2582199   2582092  
  6740.000000   2581886   2581618   2581348   2581133   2581011  
  6730.000000   2580995   2581075   2581229   2581433   2581671  
  6720.000000   2581931   2582207   2582496   2582796   2583106  
  6710.000000   2583424   2583742   2584043   2584297   2584468  
  6700.000000   2584520   2584435   2584221   2583919   2583584  
  6690.000000   2583277   2583033   2582864   2582741   2582624  
  6680.000000   2582467   2582245   2581947   2581583   2581157  
  6670.000000   2580668   2580098   2579428   2578645   2577762  
  6660.000000   2576808   2575835   2574887   2573999   2573176  
  6650.000000   2572409   2571673   2570952   2570228   2569494  
  6640.000000   2568731   2567915   2567007   2565971   2564782  
  6630.000000   2563445   2561992   2560476   2558952   2557465  
  6620.000000   2556029   2554643   2553284   2551943   2550616  
  6610.000000   2549320   2548068   2546874   2545724   2544589  
  6600.000000   2543423   2542187   2540853   2539421   2537912  
  6590.000000   2536360   2534800   2533258   2531747   2530267  
  6580.000000   2528808   2527354   2525894   2524416   2522914  
  6570.000000   2521391   2519851   2518306   2516773   2515268  
  6560.000000   2513804   2512392   2511033   2509720   2508442  
  6550.000000   2507181   2505917   2504630   2503301   2501924  
  6540.000000   2500501   2499051   2497605   2496194   2494845  
  6530.000000   2493564   2492341   2491150   2489957   2488740  
  6520.000000   2487493   2486230   2484977   2483762   2482597  
  6510.000000   2481484   2480407   2479344   2478278   2477201  
  6500.000000   2476114   2475016   2473902   2472757   2471553  
  6490.000000   2470268   2468890   2467426   2465908   2464377  
  6480.000000   2462881   2461454   2460112   2458850   2457644  
  6470.000000   2456463   2455276   2454061   2452809   2451525  
  6460.000000   2450234   2448968   2447770   2446671   2445694  
  6450.000000   2444832   2444057   2443321   2442571   2441759  
  6440.000000   2440868   2439898   2438882   2437857   2436864  
  6430.000000   2435926   2435052   2434232   2433453   2432700  
  6420.000000   2431973   2431277   2430632   2430050   2429545  
  6410.000000   2429116   2428754   2428441   2428157   2427885  
  6400.000000   2427621   2427368   2427145   2426966   2426843  
  6390.000000   2426769   2426719   2426651   2426520   2426291  
  6380.000000   2425958   2425540   2425085   2424648   2424274  
  6370.000000   2423984   2423766   2423584   2423396   2423168  
  6360.000000   2422889   2422570   2422231   2421898   2421577  
  6350.000000   2421265   2420944   2420598   2420218   2419813  
  6340.000000   2419395   2418983   2418587   2418206   2417824  
  6330.000000   2417417   2416952   2416401   2415732   2414931  
  6320.000000   2413986   2412914   2411744   2410533   2409335  
  6310.000000   2408207   2407174   2406231   2405335   2404429  
  6300.000000   2403450   2402363   2401160   2399866   2398522  
  6290.000000   2397173   2395846   2394556   2393299   2392070  
  6280.000000   2390864   2389680   2388513   2387355   2386180  
  6270.000000   2384961   2383669   2382292   2380831   2379312  
  6260.000000   2377763   2376217   2374692   2373202   2371747  
  6250.000000   2370336   2368968   2367649   2366363   2365082  
  6240.000000   2363758   2362342   2360798   2359121   2357343  
  6230.000000   2355517   2353704   2351941   2350236   2348563  
  6220.000000   2346886   2345176   2343438   2341709   2340047  
  6210.000000   2338505   2337112   2335858   2334696   2333565  
  6200.000000   2332409   2331198   2329932   2328629   2327322  
  6190.000000   2326031   2324772   2323547   2322355   2321197  
  6180.000000   2320071   2318977   2317908   2316851   2315791  
  6170.000000   2314720   2313638   2312556   2311489   2310443  
  6160.000000   2309413   2308375   2307303   2306175   2304990  
  6150.000000   2303769   2302553   2301385   2300299   2299307  
  6140.000000   2298398   2297549   2296733   2295930   2295132  
  6130.000000   2294335   2293539   2292733   2291908   2291050  
  6120.000000   2290159   2289245   2288337   2287469   2286681  
  6110.000000   2286000   2285446   2285020   2284715   2284510  
  6100.000000   2284380   2284292   2284218   2284130   2284017  
  6090.000000   2283876   2283727   2283591   2283500   2283465  
  6080.000000   2283493   2283564   2283664   2283764   2283862  
  6070.000000   2283955   2284063   2284201   2284395   2284658  
  6060.000000   2285013   2285478   2286081   2286841   2287778  
  6050.000000   2288880   2290131   2291478   2292879   2294283  
  6040.000000   2295675   2297048   2298432   2299846   2301326  
  6030.000000   2302880   2304525   2306258   2308094   2310035  
  6020.000000   2312094   2314261   2316516   2318810   2321096  
  6010.000000   2323316   2325447   2327483   2329462   2331425  
  6000.000000   2333431   2335515   2337710   2340019   2342451  
  5990.000000   2344997   2347663   2350445   2353344   2356343  
  5980.000000   2359427   2362563   2365734   2368914   2372100  
  5970.000000   2375281   2378466   2381651   2384851   2388070  
  5960.000000   2391337   2394671   2398107   2401653   2405315  
  5950.000000   2409062   2412865   2416679   2420487   2424288  
  5940.000000   2428118   2432025   2436061   2440260   2444623  
  5930.000000   2449121   2453697   2458284   2462815   2467238  
  5920.000000   2471516   2475625   2479548   2483273   2486790  
  5910.000000   2490098   2493201   2496123   2498895   2501572  
  5900.000000   2504208   2506872   2509610   2512472   2515462  
  5890.000000   2518582   2521786   2525032   2528255   2531408  
  5880.000000   2534443   2537336   2540059   2542594   2544920  
  5870.000000   2547016   2548875   2550508   2551951   2553271  
  5860.000000   2554541   2555843   2557231   2558742   2560379  
  5850.000000   2562134   2563983   2565909   2567894   2569926  
  5840.000000   2571989   2574065   2576133   2578176   2580190  
  5830.000000   2582177   2584155   2586138   2588140   2590160  
  5820.000000   2592194   2594231   2596267   2598305   2600352  
  5810.000000   2602413   2604483   2606554   2608602   2610624  
  5800.000000   2612611   2614600   2616613   2618704   2620875  
  5790.000000   2623132   2625405   2627622   2629651   2631377  
  5780.000000   2632661   2633409   2633529   2632998   2631818  
  5770.000000   2630070   2627861   2625355   2622706   2620078  
  5760.000000   2617573   2615271   2613180   2611299   2609583  
  5750.000000   2608006   2606527   2605127   2603782   2602482  
  5740.000000   2601218   2599992   2598814   2597689   2596626  
  5730.000000   2595606   2594605   2593578   2592493   2591323  
  5720.000000   2590078   2588787   2587498   2586256   2585094  
  5710.000000   2584022   2583034   2582119   2581270   2580492  
  5700.000000   2579791   2579170   2578613   2578090   2577560  
  5690.000000   2576988   2576353   2575667   2574946   2574224  
  5680.000000   2573509   2572802   2572070   2571282   2570393  
  5670.000000   2569379   2568211   2566872   2565330   2563562  
  5660.000000   2561539   2559263   2556759   2554096   2551363  
  5650.000000   2548658   2546053   2543592   2541274   2539078  
  5640.000000   2536967   2534917   2532916   2530965   2529075  
  5630.000000   2527249   2525492   2523798   2522175   2520622  
  5620.000000   2519155   2517775   2516486   2515266   2514095  
  5610.000000   2512940   2511790   2510641   2509512   2508425  
  5600.000000   2507405   2506459   2505586   2504769   2503991  
  5590.000000   2503235   2502494   2501761   2501030   2500291  
  5580.000000   2499534   2498752   2497943   2497113   2496274  
  5570.000000   2495431   2494584   2493723   2492829   2491892  
  5560.000000   2490909   2489892   2488861   2487835   2486823  
  5550.000000   2485823   2484818   2483795   2482743   2481671  
  5540.000000   2480595   2479539   2478513   2477521   2476549  
  5530.000000   2475585   2474612   2473628   2472635   2471638  
  5520.000000   2470633   2469612   2468556   2467449   2466284  
  5510.000000   2465064   2463807   2462534   2461262   2460006  
  5500.000000   2458770   2457564   2456392   2455269   2454198  
  5490.000000   2453174   2452173   2451159   2450090   2448935  
  5480.000000   2447682   2446345   2444950   2443532   2442110  
  5470.000000   2440694   2439274   2437839   2436378   2434895  
  5460.000000   2433391   2431875   2430336   2428761   2427126  
  5450.000000   2425422   2423649   2421833   2420006   2418198  
  5440.000000   2416422   2414674   2412937   2411197   2409456  
  5430.000000   2407731   2406051   2404431   2402878   2401368  
  5420.000000   2399883   2398405   2396954   2395566   2394310  
  5410.000000   2393229   2392357   2391666   2391124   2390672  
  5400.000000   2390288   2389958   2389714   2389571   2389559  
  5390.000000   2389663   2389873   2390153   2390509   2390948  
  5380.000000   2391528   2392286   2393269   2394465   2395861  
  5370.000000   2397390   2399027   2400725   2402505   2404360  
  5360.000000   2406344   2408453   2410736   2413182   2415852  
  5350.000000   2418755   2421982   2425550   2429540   2433930  
  5340.000000   2438759   2443966   2449581   2455552   2461929  
  5330.000000   2468666   2475815   2483316   2491218   2499471  
  5320.000000   2508162   2517287   2526984   2537263   2548251  
  5310.000000   2559908   2572304   2585345   2599077   2613421  
  5300.000000   2628461   2644175   2660695   2678025   2696293  
  5290.000000   2715468   2735602   2756572   2778327   2800681  
  5280.000000   2823569   2846865   2870611   2894815   2919614  
  5270.000000   2945046   2971163   2997857   3024982   3052315  
  5260.000000   3079674   3106949   3134127   3161279   3188469  
  5250.000000   3215734   3242975   3270045   3296677   3322695  
  5240.000000   3347909   3372337   3395984   3419024   3441518  
  5230.000000   3463604   3485224   3506373   3526867   3546647  
  5220.000000   3565553   3583626   3600835   3617344   3633192  
  5210.000000   3648552   3663397   3677783   3691561   3704703  
  5200.000000   3717049   3728635   3739408   3749506   3758937  
  5190.000000   3767834   3776155   3783953   3791128   3797713  
  5180.000000   3803630   3808957   3813658   3817825   3821413  
  5170.000000   3824484   3826976   3828950   3830371   3831334  
  5160.000000   3831828   3831939   3831634   3830956   3829845  
  5150.000000   3828338   3826400   3824095   3821416   3818424  
  5140.000000   3815101   3811485   3807547   3803334   3798850  
  5130.000000   3794167   3789312   3784349   3779279   3774128  
  5120.000000   3768869   3763517   3758061   3752535   3746951  
  5110.000000   3741345   3735720   3730090   3724447   3718801  
  5100.000000   3713159   3707545   3701974   3696462   3691004  
  5090.000000   3685588   3680193   3674809   3669429   3664066  
  5080.000000   3658729   3653427   3648153   3642892   3637615  
  5070.000000   3632304   3626941   3621531   3616073   3610577  
  5060.000000   3605036   3599442   3593774   3588025   3582188  
  5050.000000   3576276   3570304   3564293   3558250   3552178  
  5040.000000   3546065   3539907   3533700   3527457   3521196  
  5030.000000   3514945   3508726   3502552   3496432   3490362  
  5020.000000   3484346   3478383   3472485   3466657   3460915  
  5010.000000   3455260   3449704   3444243   3438896   3433664  
  5000.000000   3428579   3423648   3418903   3414335   3409964  
  4990.000000   3405768   3401764   3397934   3394310   3390883  
  4980.000000   3387693   3384726   3382016   3379533   3377308  
  4970.000000   3375312   3373590   3372127   3370982   3370147  
  4960.000000   3369679   3369560   3369835   3370475   3371520  
  4950.000000   3372931   3374748   3376930   3379512   3382449  
  4940.000000   3385778   3389452   3393507   3397897   3402655  
  4930.000000   3407730   3413156   3418890   3424976   3431393  
  4920.000000   3438202   3445391   3453017   3461056   3469533  
  4910.000000   3478403   3487663   3497258   3507172   3517353  
  4900.000000   3527777   3538394   3549170   3560061   3571021  
  4890.000000   3582013   3592980   3603878   3614624   3625161  
  4880.000000   3635383   3645237   3654619   3663504   3671810  
  4870.000000   3679542   3686632   3693101   3698889   3704031  
  4860.000000   3708486   3712315   3715501   3718121   3720166  
  4850.000000   3721711   3722746   3723345   3723513   3723339  
  4840.000000   3722856   3722169   3721327   3720425   3719501  
  4830.000000   3718616   3717784   3717033   3716355   3715754  
  4820.000000   3715218   3714741   3714319   3713952   3713653  
  4810.000000   3713429   3713303   3713280   3713376   3713585  
  4800.000000   3713913   3714344   3714883   3715518   3716257  
  4790.000000   3717091   3718030   3719061   3720188   3721400  
  4780.000000   3722697   3724068   3725514   3727021   3728581  
  4770.000000   3730173   3731782   3733387   3734982   3736559  
  4760.000000   3738124   3739681   3741237   3742793   3744346  
  4750.000000   3745889   3747410   3748903   3750360   3751780  
  4740.000000   3753165   3754519   3755847   3757158   3758458  
  4730.000000   3759751   3761044   3762335   3763630   3764925  
  4720.000000   3766228   3767543   3768888   3770268   3771705  
  4710.000000   3773198   3774761   3776387   3778093   3779881  
  4700.000000   3781788   3783837   3786076   3788531   3791234  
  4690.000000   3794187   3797390   3800816   3804442   3808221  
  4680.000000   3812118   3816073   3820041   3823951   3827762  
  4670.000000   3831421   3834919   3838253   3841468   3844605  
  4660.000000   3847738   3850923   3854227   3857696   3861376  
  4650.000000   3865293   3869464   3873891   3878553   3883414  
  4640.000000   3888417   3893501   3898597   3903656   3908628  
  4630.000000   3913491   3918218   3922801   3927211   3931431  
  4620.000000   3935407   3939104   3942455   3945428   3947971  
  4610.000000   3950093   3951788   3953128   3954157   3954983  
  4600.000000   3955657   3956260   3956794   3957278   3957655  
  4590.000000   3957903   3957947   3957770   3957320   3956605  
  4580.000000   3955600   3954328   3952782   3950996   3948982  
  4570.000000   3946790   3944449   3942014   3939509   3936968  
  4560.000000   3934385   3931765   3929085   3926343   3923522  
  4550.000000   3920640   3917702   3914739   3911769   3908819  
  4540.000000   3905904   3903040   3900230   3897472   3894755  
  4530.000000   3892057   3889356   3886618   3883836   3880994  
  4520.000000   3878119   3875224   3872374   3869592   3866951  
  4510.000000   3864464   3862204   3860175   3858458   3857064  
  4500.000000   3856089   3855544   3855525   3856027   3857140  
  4490.000000   3858846   3861235   3864287   3868094   3872622  
  4480.000000   3877940   3883986   3890799   3898296   3906512  
  4470.000000   3915369   3924912   3935069   3945876   3957248  
  4460.000000   3969190   3981599   3994460   4007676   4021236  
  4450.000000   4035066   4049162   4063470   4077987   4092673  
  4440.000000   4107519   4122494   4137575   4152728   4167901  
  4430.000000   4183051   4198098   4213001   4227676   4242107  
  4420.000000   4256225   4270033   4283460   4296500   4309051  
  4410.000000   4321074   4332438   4343097   4352940   4361969  
  4400.000000   4370140   4377534   4384183   4390225   4395734  
  4390.000000   4400869   4405711   4410410   4415030   4419680  
  4380.000000   4424375   4429155   4433976   4438826   4443645  
  4370.000000   4448425   4453146   4457840   4462529   4467259  
  4360.000000   4472048   4476921   4481858   4486869   4491902  
  4350.000000   4496974   4502020   4507075   4512074   4517076  
  4340.000000   4522023   4526955   4531758   4536325   4540340  
  4330.000000   4543438   4545095   4544838   4542255   4537202  
  4320.000000   4529809   4520551   4510116   4499335   4488957  
  4310.000000   4479591   4471560   4464964   4459682   4455510  
  4300.000000   4452211   4449602   4447573   4446062   4445070  
  4290.000000   4444568   4444572   4445034   4445960   4447296  
  4280.000000   4449035   4451116   4453489   4456075   4458791  
  4270.000000   4461568   4464326   4467001   4469476   4471604  
  4260.000000   4473149   4473847   4473406   4471615   4468364  
  4250.000000   4463738   4457957   4451407   4444491   4437639  
  4240.000000   4431149   4425241   4419962   4415295   4411119  
  4230.000000   4407318   4403755   4400323   4396942   4393544  
  4220.000000   4390114   4386635   4383165   4379747   4376503  
  4210.000000   4373516   4370916   4368760   4367118   4365978  
  4200.000000   4365330   4365097   4365224   4365615   4366216  
  4190.000000   4366943   4367775   4368656   4369599   4370569  
  4180.000000   4371602   4372675   4373831   4375057   4376408  
  4170.000000   4377891   4379585   4381517   4383773   4386381  
  4160.000000   4389408   4392849   4396742   4401053   4405802  
  4150.000000   4410943   4416498   4422417   4428723   4435360  
  4140.000000   4442359   4449667   4457328   4465305   4473657  
  4130.000000   4482355   4491460   4500938   4510843   4521145  
  4120.000000   4531909   4543129   4554893   4567225   4580215  
  4110.000000   4593875   4608251   4623290   4638953   4655111  
  4100.000000   4671661   4688453   4705394   4722389   4739412  
  4090.000000   4756445   4773500   4790581   4807680   4824783  
  4080.000000   4841847   4858863   4875783   4892620   4909315  
  4070.000000   4925859   4942135   4958081   4973538   4988448  
  4060.000000   5002687   5016274   5029160   5041428   5053063  
  4050.000000   5064167   5074719   5084823   5094448   5103678  
  4040.000000   5112442   5120774   5128546   5135755   5142270  
  4030.000000   5148119   5153229   5157681   5161452   5164627  
  4020.000000   5167159   5169130   5170545   5171486   5171913  
  4010.000000   5171937   5171611   5170913   5169600   5167690  
  4000.000000   5165474  
##END= 
