##TITLE= Sample 033 By ssteindl date Dienstag, November 20 2018
##JCAMP-DX= 4.24
##DATA TYPE= INFRARED SPECTRUM
##ORIGIN= Exported PE Spectrum Data File
##OWNER= Sandra Steindl
##DATE= 18/11/20
##TIME= 17:31:39.00
##SPECTROMETER/DATA SYSTEM= PERKIN-ELMER Frontier FT-IR/NIR IR
##INSTRUMENT PARAMETERS=
  APODIZATION=stark
  DETECTOR=INGAAS
##RESOLUTION= 16.000000
##DELTAX= -2.000000
##XUNITS= 1/CM
##YUNITS= A
##XFACTOR= 1.00
##YFACTOR= 0.00000011920928955078
##FIRSTX= 10000.00
##LASTX= 4000.00
##NPOINTS= 3001
##FIRSTY= 0.222707
##MAXY= 0.653342
##MINY= 0.188422
##XYDATA= (X++(Y..Y))
 10000.000000   1868204   1871446   1873441   1872964   1870665  
  9990.000000   1868547   1868137   1870202   1874955   1882088  
  9980.000000   1890296   1897720   1902656   1904104   1901852  
  9970.000000   1896482   1889050   1880690   1872218   1864112  
  9960.000000   1856582   1849837   1844180   1840017   1837577  
  9950.000000   1836726   1836764   1836640   1835279   1832076  
  9940.000000   1827162   1821372   1815899   1811731   1809324  
  9930.000000   1808392   1808310   1808366   1808308   1808241  
  9920.000000   1808552   1809405   1810526   1811152   1810426  
  9910.000000   1807915   1804039   1800142   1798032   1799323  
  9900.000000   1804630   1813329   1823632   1833331   1840527  
  9890.000000   1844259   1844677   1842669   1839372   1835505  
  9880.000000   1831226   1826169   1819902   1812323   1803879  
  9870.000000   1795529   1788370   1783360   1780961   1781239  
  9860.000000   1783847   1788287   1793891   1799837   1805170  
  9850.000000   1808823   1810001   1808342   1804313   1799035  
  9840.000000   1794126   1791041   1790669   1792931   1796925  
  9830.000000   1801319   1804924   1807207   1808339   1809097  
  9820.000000   1810288   1812460   1815575   1819188   1822673  
  9810.000000   1825563   1827713   1829202   1830156   1830480  
  9800.000000   1829839   1827789   1824039   1818713   1812362  
  9790.000000   1805871   1800094   1795654   1792726   1791221  
  9780.000000   1790861   1791502   1793032   1795401   1798321  
  9770.000000   1801249   1803411   1804037   1802718   1799533  
  9760.000000   1795142   1790409   1786110   1782501   1779296  
  9750.000000   1775850   1771581   1766366   1760697   1755544  
  9740.000000   1751978   1750710   1751817   1754672   1758185  
  9730.000000   1761191   1762798   1762649   1760930   1758265  
  9720.000000   1755529   1753647   1753454   1755486   1759843  
  9710.000000   1765974   1772700   1778325   1781133   1779874  
  9700.000000   1774324   1765445   1755182   1745895   1739550  
  9690.000000   1737158   1738487   1742342   1747115   1751450  
  9680.000000   1754647   1756723   1758094   1759152   1759915  
  9670.000000   1760010   1758903   1756298   1752438   1748151  
  9660.000000   1744610   1742889   1743533   1746351   1750456  
  9650.000000   1754603   1757576   1758526   1757143   1753550  
  9640.000000   1748196   1741631   1734505   1727518   1721481  
  9630.000000   1717203   1715321   1716102   1719250   1724017  
  9620.000000   1729318   1734164   1737874   1740301   1741787  
  9610.000000   1742887   1744156   1745751   1747470   1748702  
  9600.000000   1748789   1747208   1743842   1739043   1733557  
  9590.000000   1728402   1724562   1722847   1723590   1726664  
  9580.000000   1731398   1736801   1741748   1745272   1746791  
  9570.000000   1746217   1743955   1740720   1737320   1734387  
  9560.000000   1732242   1730875   1730058   1729537   1729134  
  9550.000000   1728848   1728729   1728852   1729149   1729449  
  9540.000000   1729476   1728963   1727728   1725708   1722970  
  9530.000000   1719642   1715904   1711950   1708057   1704562  
  9520.000000   1701881   1700357   1700137   1701037   1702539  
  9510.000000   1703939   1704575   1704100   1702625   1700726  
  9500.000000   1699251   1699027   1700530   1703707   1707926  
  9490.000000   1712213   1715527   1717141   1716810   1714823  
  9480.000000   1711805   1708472   1705362   1702678   1700272  
  9470.000000   1697719   1694541   1690363   1685107   1679021  
  9460.000000   1672625   1666583   1661506   1657852   1655801  
  9450.000000   1655286   1656020   1657600   1659606   1661680  
  9440.000000   1663590   1665207   1666518   1667528   1668280  
  9430.000000   1668747   1668920   1668720   1668121   1667090  
  9420.000000   1665686   1664024   1662285   1660705   1659481  
  9410.000000   1658789   1658685   1659157   1660099   1661368  
  9400.000000   1662814   1664281   1665625   1666659   1667176  
  9390.000000   1666948   1665839   1663854   1661241   1658443  
  9380.000000   1656036   1654577   1654420   1655622   1657858  
  9370.000000   1660585   1663165   1665135   1666296   1666747  
  9360.000000   1666787   1666752   1666864   1667120   1667282  
  9350.000000   1666982   1665886   1663864   1661051   1657833  
  9340.000000   1654719   1652222   1650692   1650230   1650617  
  9330.000000   1651368   1651868   1651540   1650049   1647368  
  9320.000000   1643839   1640065   1636797   1634683   1634107  
  9310.000000   1635033   1637080   1639643   1642114   1644068  
  9300.000000   1645346   1646097   1646633   1647347   1648504  
  9290.000000   1650199   1652332   1654672   1656939   1658828  
  9280.000000   1660048   1660305   1659359   1657075   1653499  
  9270.000000   1648892   1643704   1638514   1633885   1630270  
  9260.000000   1627879   1626724   1626608   1627292   1628494  
  9250.000000   1629996   1631590   1633085   1634291   1634999  
  9240.000000   1635085   1634478   1633277   1631624   1629724  
  9230.000000   1627700   1625622   1623524   1621470   1619637  
  9220.000000   1618276   1617720   1618197   1619760   1622148  
  9210.000000   1624877   1627343   1629002   1629527   1628842  
  9200.000000   1627144   1624739   1621977   1619104   1616298  
  9190.000000   1613657   1611270   1609244   1607687   1606694  
  9180.000000   1606282   1606411   1606979   1607893   1609081  
  9170.000000   1610486   1612029   1613545   1614800   1615503  
  9160.000000   1615437   1614562   1613089   1611427   1610049  
  9150.000000   1609354   1609534   1610503   1611932   1613359  
  9140.000000   1614360   1614642   1614067   1612631   1610418  
  9130.000000   1607612   1604484   1601411   1598828   1597194  
  9120.000000   1596863   1597939   1600162   1602964   1605620  
  9110.000000   1607445   1607991   1607168   1605277   1602842  
  9100.000000   1600432   1598456   1597128   1596429   1596232  
  9090.000000   1596365   1596715   1597215   1597807   1598415  
  9080.000000   1598917   1599216   1599266   1599142   1599029  
  9070.000000   1599183   1599852   1601152   1603009   1605164  
  9060.000000   1607237   1608847   1609677   1609589   1608633  
  9050.000000   1607051   1605190   1603411   1601990   1601039  
  9040.000000   1600481   1600047   1599388   1598180   1596284  
  9030.000000   1593797   1591029   1588443   1586465   1585407  
  9020.000000   1585322   1586086   1587466   1589265   1591377  
  9010.000000   1593768   1596400   1599092   1601480   1603019  
  9000.000000   1603178   1601602   1598362   1593934   1589149  
  8990.000000   1584908   1581944   1580594   1580727   1581881  
  8980.000000   1583433   1584889   1585966   1586694   1587261  
  8970.000000   1587924   1588853   1590083   1591560   1593131  
  8960.000000   1594668   1595999   1596978   1597396   1597034  
  8950.000000   1595728   1593477   1590547   1587448   1584869  
  8940.000000   1583460   1583633   1585367   1588241   1591519  
  8930.000000   1594409   1596252   1596742   1595980   1594392  
  8920.000000   1592548   1590941   1589882   1589396   1589326  
  8910.000000   1589384   1589350   1589076   1588548   1587834  
  8900.000000   1587024   1586236   1585547   1585103   1585075  
  8890.000000   1585707   1587216   1589728   1593168   1597204  
  8880.000000   1601253   1604612   1606645   1606939   1605444  
  8870.000000   1602450   1598546   1594402   1590624   1587578  
  8860.000000   1585391   1583971   1583127   1582682   1582529  
  8850.000000   1582667   1583123   1583942   1585114   1586603  
  8840.000000   1588361   1590342   1592532   1594886   1597335  
  8830.000000   1599716   1601828   1603456   1604485   1604930  
  8820.000000   1604968   1604865   1604886   1605182   1605718  
  8810.000000   1606312   1606714   1606738   1606349   1605690  
  8800.000000   1605035   1604671   1604781   1605367   1606261  
  8790.000000   1607199   1607947   1608393   1608611   1608802  
  8780.000000   1609250   1610185   1611724   1613812   1616248  
  8770.000000   1618750   1621039   1622937   1624400   1625545  
  8760.000000   1626596   1627829   1629468   1631604   1634139  
  8750.000000   1636794   1639171   1640860   1641552   1641143  
  8740.000000   1639757   1637732   1635503   1633505   1632067  
  8730.000000   1631357   1631374   1631967   1632897   1633892  
  8720.000000   1634693   1635116   1635066   1634588   1633874  
  8710.000000   1633234   1633051   1633657   1635260   1637820  
  8700.000000   1641080   1644569   1647775   1650244   1651742  
  8690.000000   1652280   1652135   1651730   1651536   1651924  
  8680.000000   1653110   1655113   1657797   1660909   1664140  
  8670.000000   1667210   1669905   1672143   1673946   1675450  
  8660.000000   1676837   1678284   1679905   1681703   1683580  
  8650.000000   1685362   1686886   1688041   1688815   1689289  
  8640.000000   1689589   1689854   1690171   1690607   1691195  
  8630.000000   1691989   1693045   1694434   1696189   1698279  
  8620.000000   1700581   1702896   1705010   1706743   1708014  
  8610.000000   1708832   1709305   1709560   1709737   1709934  
  8600.000000   1710244   1710750   1711543   1712705   1714274  
  8590.000000   1716228   1718451   1720785   1723053   1725154  
  8580.000000   1727077   1728919   1730813   1732864   1735061  
  8570.000000   1737277   1739288   1740863   1741833   1742166  
  8560.000000   1741976   1741473   1740883   1740374   1740012  
  8550.000000   1739754   1739486   1739083   1738468   1737654  
  8540.000000   1736735   1735893   1735333   1735273   1735856  
  8530.000000   1737150   1739116   1741612   1744418   1747259  
  8520.000000   1749881   1752063   1753659   1754595   1754890  
  8510.000000   1754624   1753972   1753144   1752410   1752016  
  8500.000000   1752150   1752871   1754066   1755488   1756814  
  8490.000000   1757788   1758320   1758547   1758800   1759471  
  8480.000000   1760866   1763052   1765835   1768782   1771417  
  8470.000000   1773369   1774534   1775088   1775393   1775868  
  8460.000000   1776818   1778372   1780458   1782897   1785498  
  8450.000000   1788118   1790670   1793060   1795138   1796680  
  8440.000000   1797441   1797257   1796141   1794365   1792416  
  8430.000000   1790876   1790227   1790736   1792358   1794805  
  8420.000000   1797599   1800274   1802468   1803996   1804815  
  8410.000000   1804983   1804616   1803840   1802814   1801701  
  8400.000000   1800703   1799999   1799718   1799880   1800387  
  8390.000000   1801080   1801774   1802376   1802888   1803434  
  8380.000000   1804167   1805207   1806561   1808107   1809644  
  8370.000000   1810948   1811871   1812360   1812477   1812328  
  8360.000000   1812017   1811604   1811096   1810506   1809871  
  8350.000000   1809310   1808982   1809070   1809673   1810783  
  8340.000000   1812218   1813703   1814917   1815610   1815662  
  8330.000000   1815109   1814127   1812945   1811769   1810716  
  8320.000000   1809794   1808929   1808023   1807022   1805950  
  8310.000000   1804915   1804065   1803531   1803364   1803518  
  8300.000000   1803854   1804192   1804377   1804334   1804097  
  8290.000000   1803786   1803568   1803592   1803948   1804634  
  8280.000000   1805560   1806571   1807488   1808154   1808460  
  8270.000000   1808364   1807892   1807144   1806259   1805396  
  8260.000000   1804673   1804142   1803756   1803392   1802874  
  8250.000000   1802047   1800831   1799265   1797501   1795752  
  8240.000000   1794208   1792980   1792057   1791340   1790686  
  8230.000000   1790000   1789275   1788608   1788136   1787979  
  8220.000000   1788143   1788509   1788848   1788896   1788454  
  8210.000000   1787447   1785956   1784167   1782300   1780526  
  8200.000000   1778922   1777479   1776131   1774829   1773571  
  8190.000000   1772428   1771494   1770847   1770482   1770301  
  8180.000000   1770126   1769754   1769024   1767863   1766318  
  8170.000000   1764530   1762696   1761010   1759610   1758551  
  8160.000000   1757797   1757253   1756793   1756303   1755702  
  8150.000000   1754954   1754053   1753016   1751853   1750570  
  8140.000000   1749177   1747698   1746198   1744774   1743536  
  8130.000000   1742583   1741944   1741583   1741379   1741178  
  8120.000000   1740830   1740242   1739405   1738371   1737225  
  8110.000000   1736022   1734762   1733391   1731842   1730088  
  8100.000000   1728192   1726316   1724685   1723515   1722922  
  8090.000000   1722870   1723155   1723471   1723509   1723050  
  8080.000000   1722040   1720585   1718911   1717274   1715879  
  8070.000000   1714827   1714107   1713628   1713275   1712946  
  8060.000000   1712580   1712149   1711635   1711005   1710202  
  8050.000000   1709160   1707838   1706255   1704511   1702778  
  8040.000000   1701264   1700152   1699544   1699426   1699659  
  8030.000000   1700022   1700268   1700194   1699705   1698814  
  8020.000000   1697642   1696345   1695070   1693894   1692825  
  8010.000000   1691806   1690774   1689694   1688596   1687569  
  8000.000000   1686729   1686175   1685945   1686001   1686240  
  7990.000000   1686525   1686734   1686785   1686654   1686363  
  7980.000000   1685965   1685511   1685050   1684607   1684201  
  7970.000000   1683828   1683471   1683083   1682594   1681927  
  7960.000000   1681021   1679870   1678534   1677146   1675873  
  7950.000000   1674876   1674248   1673994   1674024   1674192  
  7940.000000   1674341   1674360   1674205   1673902   1673517  
  7930.000000   1673113   1672733   1672371   1672005   1671593  
  7920.000000   1671121   1670584   1670003   1669400   1668796  
  7910.000000   1668213   1667675   1667227   1666927   1666844  
  7900.000000   1667030   1667497   1668201   1669041   1669883  
  7890.000000   1670580   1671019   1671126   1670902   1670387  
  7880.000000   1669677   1668871   1668082   1667403   1666902  
  7870.000000   1666619   1666553   1666683   1666961   1667351  
  7860.000000   1667820   1668370   1669006   1669736   1670528  
  7850.000000   1671304   1671938   1672277   1672193   1671617  
  7840.000000   1670581   1669203   1667667   1666166   1664841  
  7830.000000   1663758   1662884   1662132   1661386   1660569  
  7820.000000   1659655   1658689   1657750   1656930   1656283  
  7810.000000   1655819   1655491   1655219   1654924   1654547  
  7800.000000   1654081   1653556   1653036   1652585   1652243  
  7790.000000   1652005   1651824   1651623   1651324   1650877  
  7780.000000   1650281   1649583   1648865   1648213   1647679  
  7770.000000   1647270   1646933   1646582   1646130   1645521  
  7760.000000   1644755   1643891   1643025   1642258   1641661  
  7750.000000   1641253   1640993   1640800   1640582   1640257  
  7740.000000   1639789   1639178   1638464   1637705   1636959  
  7730.000000   1636277   1635690   1635222   1634887   1634695  
  7720.000000   1634642   1634706   1634835   1634948   1634939  
  7710.000000   1634705   1634173   1633327   1632227   1631005  
  7700.000000   1629836   1628894   1628306   1628105   1628223  
  7690.000000   1628501   1628735   1628735   1628383   1627660  
  7680.000000   1626656   1625532   1624472   1623628   1623094  
  7670.000000   1622890   1622977   1623282   1623723   1624220  
  7660.000000   1624702   1625107   1625379   1625472   1625365  
  7650.000000   1625062   1624601   1624036   1623433   1622839  
  7640.000000   1622282   1621767   1621294   1620869   1620511  
  7630.000000   1620259   1620145   1620185   1620357   1620611  
  7620.000000   1620878   1621106   1621276   1621404   1621538  
  7610.000000   1621718   1621968   1622254   1622520   1622682  
  7600.000000   1622684   1622503   1622168   1621744   1621314  
  7590.000000   1620960   1620747   1620724   1620920   1621356  
  7580.000000   1622034   1622935   1624006   1625162   1626299  
  7570.000000   1627307   1628110   1628667   1629004   1629168  
  7560.000000   1629239   1629274   1629327   1629423   1629586  
  7550.000000   1629838   1630209   1630730   1631420   1632285  
  7540.000000   1633308   1634460   1635719   1637059   1638473  
  7530.000000   1639937   1641420   1642859   1644188   1645342  
  7520.000000   1646304   1647106   1647850   1648663   1649674  
  7510.000000   1650952   1652499   1654238   1656055   1657826  
  7500.000000   1659468   1660950   1662303   1663592   1664899  
  7490.000000   1666293   1667829   1669536   1671428   1673480  
  7480.000000   1675652   1677858   1680006   1681993   1683751  
  7470.000000   1685262   1686583   1687817   1689101   1690547  
  7460.000000   1692226   1694139   1696247   1698479   1700781  
  7450.000000   1703123   1705503   1707932   1710409   1712913  
  7440.000000   1715409   1717860   1720261   1722635   1725044  
  7430.000000   1727545   1730177   1732920   1735705   1738422  
  7420.000000   1740964   1743261   1745309   1747168   1748949  
  7410.000000   1750777   1752755   1754942   1757342   1759915  
  7400.000000   1762587   1765279   1767923   1770471   1772901  
  7390.000000   1775208   1777400   1779493   1781495   1783420  
  7380.000000   1785286   1787129   1789002   1790974   1793110  
  7370.000000   1795451   1797986   1800650   1803321   1805862  
  7360.000000   1808155   1810148   1811876   1813452   1815038  
  7350.000000   1816781   1818780   1821035   1823462   1825924  
  7340.000000   1828283   1830455   1832430   1834275   1836098  
  7330.000000   1838020   1840122   1842439   1844940   1847554  
  7320.000000   1850181   1852726   1855110   1857288   1859250  
  7310.000000   1861025   1862661   1864214   1865728   1867221  
  7300.000000   1868680   1870073   1871364   1872545   1873629  
  7290.000000   1874674   1875744   1876901   1878168   1879535  
  7280.000000   1880950   1882346   1883654   1884826   1885843  
  7270.000000   1886708   1887446   1888092   1888692   1889302  
  7260.000000   1889988   1890812   1891829   1893056   1894474  
  7250.000000   1896012   1897585   1899095   1900490   1901756  
  7240.000000   1902946   1904131   1905411   1906849   1908497  
  7230.000000   1910354   1912418   1914664   1917085   1919665  
  7220.000000   1922398   1925252   1928203   1931201   1934217  
  7210.000000   1937209   1940171   1943089   1945978   1948838  
  7200.000000   1951699   1954585   1957552   1960652   1963951  
  7190.000000   1967480   1971249   1975207   1979283   1983371  
  7180.000000   1987405   1991331   1995174   1998971   2002802  
  7170.000000   2006713   2010756   2014926   2019234   2023665  
  7160.000000   2028244   2032989   2037948   2043145   2048606  
  7150.000000   2054311   2060234   2066304   2072462   2078618  
  7140.000000   2084718   2090705   2096581   2102360   2108120  
  7130.000000   2113938   2119922   2126132   2132613   2139330  
  7120.000000   2146231   2153213   2160211   2167169   2174097  
  7110.000000   2181020   2187993   2195043   2202191   2209423  
  7100.000000   2216741   2224144   2231677   2239379   2247303  
  7090.000000   2255456   2263814   2272296   2280811   2289259  
  7080.000000   2297583   2305755   2313799   2321754   2329679  
  7070.000000   2337620   2345616   2353688   2361850   2370099  
  7060.000000   2378419   2386777   2395124   2403412   2411601  
  7050.000000   2419677   2427648   2435542   2443381   2451179  
  7040.000000   2458923   2466595   2474177   2481682   2489144  
  7030.000000   2496623   2504165   2511795   2519482   2527167  
  7020.000000   2534761   2542198   2549436   2556486   2563374  
  7010.000000   2570149   2576832   2583438   2589946   2596353  
  7000.000000   2602647   2608849   2614967   2621018   2626983  
  6990.000000   2632841   2638548   2644082   2649428   2654607  
  6980.000000   2659633   2664530   2669292   2673918   2678389  
  6970.000000   2682726   2686959   2691161   2695389   2699700  
  6960.000000   2704087   2708525   2712934   2717250   2721402  
  6950.000000   2725362   2729106   2732635   2735936   2739014  
  6940.000000   2741869   2744538   2747063   2749517   2751948  
  6930.000000   2754386   2756805   2759163   2761393   2763475  
  6920.000000   2765412   2767274   2769136   2771084   2773156  
  6910.000000   2775350   2777618   2779903   2782142   2784295  
  6900.000000   2786326   2788208   2789912   2791420   2792730  
  6890.000000   2793885   2794966   2796082   2797327   2798755  
  6880.000000   2800340   2801998   2803607   2805059   2806293  
  6870.000000   2807325   2808223   2809088   2809999   2811003  
  6860.000000   2812101   2813272   2814491   2815748   2817041  
  6850.000000   2818368   2819707   2821014   2822227   2823298  
  6840.000000   2824205   2824976   2825666   2826346   2827066  
  6830.000000   2827845   2828659   2829472   2830238   2830939  
  6820.000000   2831570   2832147   2832681   2833180   2833640  
  6810.000000   2834064   2834456   2834839   2835230   2835643  
  6800.000000   2836058   2836440   2836734   2836905   2836940  
  6790.000000   2836872   2836752   2836643   2836583   2836582  
  6780.000000   2836615   2836652   2836660   2836631   2836570  
  6770.000000   2836492   2836403   2836297   2836156   2835966  
  6760.000000   2835720   2835426   2835096   2834735   2834328  
  6750.000000   2833854   2833289   2832644   2831963   2831332  
  6740.000000   2830843   2830562   2830488   2830548   2830604  
  6730.000000   2830500   2830105   2829361   2828290   2826993  
  6720.000000   2825606   2824269   2823085   2822112   2821354  
  6710.000000   2820780   2820328   2819924   2819488   2818955  
  6700.000000   2818271   2817430   2816453   2815402   2814348  
  6690.000000   2813355   2812450   2811622   2810819   2809980  
  6680.000000   2809045   2807989   2806810   2805536   2804195  
  6670.000000   2802817   2801410   2799983   2798540   2797098  
  6660.000000   2795674   2794292   2792956   2791660   2790373  
  6650.000000   2789068   2787716   2786312   2784861   2783381  
  6640.000000   2781886   2780379   2778849   2777279   2775649  
  6630.000000   2773953   2772191   2770378   2768529   2766664  
  6620.000000   2764794   2762934   2761092   2759279   2757487  
  6610.000000   2755707   2753911   2752070   2750163   2748189  
  6600.000000   2746176   2744171   2742226   2740380   2738637  
  6590.000000   2736968   2735319   2733634   2731872   2730026  
  6580.000000   2728123   2726209   2724335   2722537   2720830  
  6570.000000   2719203   2717637   2716103   2714584   2713064  
  6560.000000   2711544   2710024   2708512   2707008   2705518  
  6550.000000   2704033   2702548   2701047   2699522   2697971  
  6540.000000   2696406   2694855   2693354   2691934   2690611  
  6530.000000   2689380   2688218   2687092   2685978   2684863  
  6520.000000   2683755   2682666   2681604   2680558   2679506  
  6510.000000   2678418   2677280   2676096   2674901   2673739  
  6500.000000   2672652   2671652   2670721   2669819   2668899  
  6490.000000   2667934   2666929   2665911   2664918   2663976  
  6480.000000   2663083   2662211   2661323   2660392   2659417  
  6470.000000   2658424   2657453   2656533   2655671   2654841  
  6460.000000   2653997   2653099   2652126   2651090   2650033  
  6450.000000   2649004   2648045   2647176   2646395   2645680  
  6440.000000   2645006   2644347   2643681   2642987   2642250  
  6430.000000   2641452   2640592   2639684   2638761   2637869  
  6420.000000   2637053   2636337   2635724   2635186   2634691  
  6410.000000   2634209   2633731   2633271   2632855   2632504  
  6400.000000   2632222   2631992   2631782   2631553   2631282  
  6390.000000   2630957   2630583   2630170   2629728   2629261  
  6380.000000   2628777   2628293   2627833   2627432   2627117  
  6370.000000   2626896   2626747   2626621   2626458   2626209  
  6360.000000   2625851   2625392   2624868   2624326   2623801  
  6350.000000   2623311   2622855   2622423   2621999   2621580  
  6340.000000   2621157   2620729   2620280   2619791   2619236  
  6330.000000   2618602   2617881   2617092   2616253   2615393  
  6320.000000   2614529   2613676   2612834   2612011   2611203  
  6310.000000   2610413   2609625   2608816   2607940   2606958  
  6300.000000   2605830   2604552   2603143   2601651   2600117  
  6290.000000   2598576   2597018   2595417   2593723   2591903  
  6280.000000   2589942   2587869   2585729   2583584   2581478  
  6270.000000   2579441   2577472   2575566   2573702   2571869  
  6260.000000   2570050   2568229   2566383   2564489   2562528  
  6250.000000   2560501   2558423   2556328   2554245   2552196  
  6240.000000   2550176   2548164   2546128   2544045   2541907  
  6230.000000   2539726   2537515   2535289   2533045   2530775  
  6220.000000   2528472   2526147   2523834   2521587   2519454  
  6210.000000   2517462   2515595   2513798   2511992   2510107  
  6200.000000   2508101   2505977   2503776   2501556   2499370  
  6190.000000   2497247   2495192   2493190   2491225   2489285  
  6180.000000   2487366   2485468   2483580   2481686   2479760  
  6170.000000   2477784   2475756   2473695   2471638   2469627  
  6160.000000   2467693   2465849   2464091   2462399   2460757  
  6150.000000   2459152   2457581   2456043   2454535   2453042  
  6140.000000   2451548   2450031   2448483   2446902   2445303  
  6130.000000   2443700   2442111   2440542   2439001   2437485  
  6120.000000   2436004   2434563   2433176   2431848   2430587  
  6110.000000   2429390   2428258   2427193   2426206   2425302  
  6100.000000   2424487   2423744   2423052   2422369   2421670  
  6090.000000   2420936   2420185   2419443   2418759   2418161  
  6080.000000   2417666   2417254   2416902   2416575   2416264  
  6070.000000   2415970   2415718   2415531   2415428   2415401  
  6060.000000   2415440   2415516   2415620   2415746   2415918  
  6050.000000   2416150   2416470   2416881   2417385   2417965  
  6040.000000   2418621   2419344   2420153   2421057   2422076  
  6030.000000   2423210   2424458   2425800   2427221   2428697  
  6020.000000   2430215   2431757   2433312   2434863   2436401  
  6010.000000   2437913   2439399   2440859   2442300   2443720  
  6000.000000   2445120   2446489   2447824   2449119   2450390  
  5990.000000   2451657   2452955   2454314   2455763   2457317  
  5980.000000   2458986   2460768   2462665   2464668   2466775  
  5970.000000   2468966   2471227   2473527   2475854   2478189  
  5960.000000   2480546   2482931   2485373   2487875   2490444  
  5950.000000   2493057   2495693   2498325   2500946   2503559  
  5940.000000   2506191   2508871   2511632   2514491   2517455  
  5930.000000   2520516   2523660   2526862   2530096   2533327  
  5920.000000   2536520   2539633   2542634   2545498   2548223  
  5910.000000   2550819   2553317   2555750   2558154   2560560  
  5900.000000   2562990   2565465   2567996   2570597   2573263  
  5890.000000   2575988   2578749   2581521   2584275   2586993  
  5880.000000   2589662   2592280   2594843   2597342   2599760  
  5870.000000   2602075   2604277   2606366   2608370   2610334  
  5860.000000   2612309   2614335   2616434   2618607   2620840  
  5850.000000   2623121   2625449   2627835   2630300   2632855  
  5840.000000   2635495   2638193   2640910   2643606   2646259  
  5830.000000   2648868   2651454   2654045   2656660   2659295  
  5820.000000   2661926   2664515   2667019   2669414   2671684  
  5810.000000   2673842   2675896   2677871   2679772   2681621  
  5800.000000   2683414   2685171   2686878   2688542   2690125  
  5790.000000   2691603   2692918   2694036   2694909   2695523  
  5780.000000   2695854   2695905   2695661   2695127   2694301  
  5770.000000   2693216   2691911   2690463   2688947   2687447  
  5760.000000   2686013   2684686   2683469   2682365   2681370  
  5750.000000   2680492   2679740   2679128   2678656   2678309  
  5740.000000   2678062   2677875   2677722   2677574   2677427  
  5730.000000   2677266   2677099   2676917   2676730   2676541  
  5720.000000   2676376   2676259   2676223   2676279   2676431  
  5710.000000   2676654   2676922   2677206   2677494   2677789  
  5700.000000   2678111   2678475   2678894   2679360   2679859  
  5690.000000   2680376   2680900   2681442   2682012   2682626  
  5680.000000   2683273   2683929   2684543   2685064   2685435  
  5670.000000   2685629   2685627   2685436   2685062   2684523  
  5660.000000   2683830   2683011   2682091   2681114   2680117  
  5650.000000   2679139   2678189   2677269   2676354   2675427  
  5640.000000   2674473   2673501   2672525   2671573   2670662  
  5630.000000   2669802   2668990   2668221   2667493   2666808  
  5620.000000   2666173   2665585   2665032   2664483   2663905  
  5610.000000   2663268   2662562   2661800   2661013   2660239  
  5600.000000   2659504   2658819   2658170   2657534   2656886  
  5590.000000   2656211   2655501   2654758   2653979   2653158  
  5580.000000   2652282   2651346   2650350   2649316   2648265  
  5570.000000   2647225   2646206   2645201   2644183   2643121  
  5560.000000   2641986   2640767   2639472   2638124   2636753  
  5550.000000   2635389   2634054   2632765   2631530   2630352  
  5540.000000   2629225   2628134   2627053   2625956   2624821  
  5530.000000   2623645   2622447   2621264   2620137   2619095  
  5520.000000   2618144   2617263   2616411   2615546   2614636  
  5510.000000   2613674   2612667   2611634   2610589   2609537  
  5500.000000   2608474   2607397   2606307   2605219   2604143  
  5490.000000   2603091   2602047   2600984   2599856   2598630  
  5480.000000   2597281   2595818   2594263   2592657   2591022  
  5470.000000   2589376   2587707   2586008   2584264   2582480  
  5460.000000   2580660   2578816   2576943   2575029   2573049  
  5450.000000   2570985   2568835   2566621   2564385   2562176  
  5440.000000   2560036   2557986   2556033   2554168   2552384  
  5430.000000   2550667   2549011   2547392   2545790   2544172  
  5420.000000   2542525   2540849   2539194   2537619   2536212  
  5410.000000   2535023   2534075   2533331   2532744   2532245  
  5400.000000   2531812   2531431   2531139   2530957   2530915  
  5390.000000   2530992   2531175   2531421   2531735   2532121  
  5380.000000   2532642   2533335   2534257   2535398   2536755  
  5370.000000   2538269   2539925   2541681   2543564   2545567  
  5360.000000   2547740   2550072   2552613   2555351   2558360  
  5350.000000   2561657   2565348   2569451   2574047   2579097  
  5340.000000   2584630   2590568   2596946   2603714   2610945  
  5330.000000   2618603   2626760   2635352   2644427   2653918  
  5320.000000   2663906   2674376   2685475   2697219   2709760  
  5310.000000   2723070   2737238   2752167   2767903   2784342  
  5300.000000   2801554   2819484   2838253   2857852   2878421  
  5290.000000   2899938   2922488   2945971   2970366   2995495  
  5280.000000   3021304   3047664   3074615   3102161   3130433  
  5270.000000   3159462   3189277   3219743   3250666   3281781  
  5260.000000   3312857   3343759   3374450   3404996   3435443  
  5250.000000   3465826   3496013   3525849   3555033   3583397  
  5240.000000   3610742   3637116   3662528   3687188   3711149  
  5230.000000   3734571   3757374   3779566   3800939   3821451  
  5220.000000   3840925   3859425   3876906   3893556   3909404  
  5210.000000   3924638   3939221   3953223   3966479   3978974  
  5200.000000   3990533   4001208   4010934   4019865   4027994  
  5190.000000   4035467   4042228   4048346   4053721   4058411  
  5180.000000   4062350   4065647   4068275   4070342   4071798  
  5170.000000   4072707   4073002   4072752   4071933   4070661  
  5160.000000   4068941   4066872   4064414   4061600   4058352  
  5150.000000   4054691   4050580   4046095   4041250   4036135  
  5140.000000   4030749   4025139   4019267   4013159   4006795  
  5130.000000   4000229   3993481   3986620   3979659   3972638  
  5120.000000   3965543   3958391   3951166   3943894   3936577  
  5110.000000   3929242   3921884   3914510   3907101   3899658  
  5100.000000   3892176   3884672   3877161   3869672   3862213  
  5090.000000   3854797   3847417   3840077   3832770   3825505  
  5080.000000   3818282   3811102   3803949   3796807   3789646  
  5070.000000   3782449   3775200   3767905   3760570   3753213  
  5060.000000   3745840   3738454   3731044   3723603   3716119  
  5050.000000   3708592   3701024   3693426   3685804   3678167  
  5040.000000   3670518   3662865   3655216   3647589   3640006  
  5030.000000   3632485   3625047   3617696   3610437   3603257  
  5020.000000   3596155   3589117   3582155   3575268   3568482  
  5010.000000   3561804   3555268   3548878   3542666   3536630  
  5000.000000   3530798   3525157   3519731   3514498   3509479  
  4990.000000   3504655   3500057   3495675   3491554   3487686  
  4980.000000   3484121   3480846   3477902   3475268   3472984  
  4970.000000   3471022   3469422   3468150   3467242   3466659  
  4960.000000   3466435   3466535   3467011   3467843   3469093  
  4950.000000   3470742   3472836   3475327   3478232   3481483  
  4940.000000   3485093   3489009   3493269   3497848   3502794  
  4930.000000   3508078   3513728   3519690   3525975   3532526  
  4920.000000   3539365   3546457   3553837   3561482   3569419  
  4910.000000   3577615   3586080   3594776   3603707   3612843  
  4900.000000   3622187   3631711   3641408   3651244   3661199  
  4890.000000   3671237   3681331   3691451   3701562   3711632  
  4880.000000   3721618   3731486   3741188   3750700   3759980  
  4870.000000   3769020   3777789   3786293   3794508   3802455  
  4860.000000   3810120   3817537   3824700   3831644   3838358  
  4850.000000   3844869   3851154   3857232   3863079   3868720  
  4840.000000   3874142   3879377   3884418   3889301   3894020  
  4830.000000   3898609   3903063   3907408   3911632   3915748  
  4820.000000   3919730   3923582   3927280   3930835   3934243  
  4810.000000   3937528   3940697   3943773   3946756   3949658  
  4800.000000   3952472   3955216   3957898   3960554   3963203  
  4790.000000   3965877   3968577   3971305   3974034   3976745  
  4780.000000   3979406   3982006   3984527   3986971   3989319  
  4770.000000   3991570   3993699   3995702   3997560   3999289  
  4760.000000   4000888   4002386   4003783   4005094   4006295  
  4750.000000   4007377   4008299   4009049   4009597   4009954  
  4740.000000   4010113   4010102   4009928   4009623   4009185  
  4730.000000   4008637   4007964   4007175   4006250   4005196  
  4720.000000   4004003   4002687   4001255   3999737   3998148  
  4710.000000   3996516   3994852   3993172   3991483   3989796  
  4700.000000   3988120   3986474   3984869   3983324   3981848  
  4690.000000   3980449   3979125   3977873   3976681   3975536  
  4680.000000   3974416   3973293   3972140   3970921   3969615  
  4670.000000   3968200   3966684   3965076   3963414   3961728  
  4660.000000   3960069   3958469   3956973   3955607   3954405  
  4650.000000   3953385   3952567   3951949   3951531   3951291  
  4640.000000   3951209   3951260   3951426   3951687   3952034  
  4630.000000   3952449   3952915   3953399   3953872   3954298  
  4620.000000   3954652   3954908   3955057   3955086   3954989  
  4610.000000   3954756   3954384   3953881   3953267   3952587  
  4600.000000   3951893   3951247   3950689   3950252   3949925  
  4590.000000   3949691   3949502   3949320   3949103   3948829  
  4580.000000   3948474   3948029   3947476   3946811   3946024  
  4570.000000   3945118   3944101   3942994   3941814   3940581  
  4560.000000   3939299   3937973   3936593   3935160   3933673  
  4550.000000   3932141   3930572   3928977   3927358   3925710  
  4540.000000   3924029   3922309   3920562   3918798   3917056  
  4530.000000   3915358   3913749   3912242   3910874   3909642  
  4520.000000   3908580   3907675   3906966   3906437   3906131  
  4510.000000   3906030   3906193   3906615   3907389   3908531  
  4500.000000   3910152   3912267   3914976   3918265   3922210  
  4490.000000   3926774   3932029   3937939   3944581   3951916  
  4480.000000   3960006   3968791   3978301   3988457   3999274  
  4470.000000   4010669   4022656   4035154   4048163   4061593  
  4460.000000   4075418   4089536   4103902   4118411   4133009  
  4450.000000   4147603   4162144   4176568   4190850   4204973  
  4440.000000   4218944   4232785   4246508   4260146   4273685  
  4430.000000   4287146   4300485   4313724   4326802   4339742  
  4420.000000   4352467   4364983   4377174   4389011   4400342  
  4410.000000   4411112   4421157   4430426   4438775   4446183  
  4400.000000   4452557   4457934   4462289   4465726   4468288  
  4390.000000   4470126   4471321   4472033   4472349   4472413  
  4380.000000   4472301   4472136   4471991   4471968   4472138  
  4370.000000   4472588   4473383   4474586   4476253   4478417  
  4360.000000   4481110   4484331   4488069   4492282   4496911  
  4350.000000   4501885   4507124   4512567   4518159   4523877  
  4340.000000   4529690   4535575   4541457   4547222   4552674  
  4330.000000   4557577   4561654   4564664   4566429   4566915  
  4320.000000   4566219   4564605   4562411   4560048   4557852  
  4310.000000   4556114   4554951   4554407   4554379   4554751  
  4300.000000   4555355   4556075   4556803   4557488   4558092  
  4290.000000   4558601   4559013   4559327   4559558   4559728  
  4280.000000   4559867   4560019   4560215   4560500   4560882  
  4270.000000   4561385   4561977   4562631   4563252   4563738  
  4260.000000   4563929   4563675   4562818   4561265   4558979  
  4250.000000   4556025   4552528   4548692   4544716   4540809  
  4240.000000   4537100   4533686   4530567   4527722   4525067  
  4230.000000   4522529   4520020   4517472   4514826   4512040  
  4220.000000   4509101   4506003   4502788   4499496   4496213  
  4210.000000   4493009   4489978   4487180   4484683   4482511  
  4200.000000   4480694   4479217   4478075   4477216   4476610  
  4190.000000   4476177   4475885   4475660   4475508   4475396  
  4180.000000   4475381   4475470   4475752   4476242   4477034  
  4170.000000   4478140   4479653   4481586   4484027   4486975  
  4160.000000   4490494   4494542   4499147   4504241   4509845  
  4150.000000   4515896   4522442   4529438   4536946   4544926  
  4140.000000   4553444   4562456   4572033   4582142   4592852  
  4130.000000   4604127   4616012   4628440   4641419   4654861  
  4120.000000   4668768   4683075   4697818   4712973   4728600  
  4110.000000   4744683   4761261   4778288   4795756   4813585  
  4100.000000   4831737   4850133   4868740   4887510   4906438  
  4090.000000   4925509   4944726   4964086   4983577   5003193  
  4080.000000   5022904   5042703   5062553   5082445   5102316  
  4070.000000   5122135   5141799   5161260   5180405   5199216  
  4060.000000   5217615   5235636   5253224   5270424   5287158  
  4050.000000   5303461   5319235   5334531   5349258   5363484  
  4040.000000   5377105   5390161   5402503   5414149   5424943  
  4030.000000   5434929   5443988   5452185   5459410   5465695  
  4020.000000   5470876   5474982   5477942   5479842   5480629  
  4010.000000   5480499   5479568   5477917   5475333   5471942  
  4000.000000   5468146  
##END= 
