##TITLE= Sample 008 By ssteindl date Montag, November 26 2018
##JCAMP-DX= 4.24
##DATA TYPE= INFRARED SPECTRUM
##ORIGIN= Exported PE Spectrum Data File
##OWNER= Sandra Steindl
##DATE= 18/11/26
##TIME= 11:28:36.00
##SPECTROMETER/DATA SYSTEM= PERKIN-ELMER Frontier FT-IR/NIR IR
##INSTRUMENT PARAMETERS=
  APODIZATION=stark
  DETECTOR=INGAAS
##RESOLUTION= 16.000000
##DELTAX= -2.000000
##XUNITS= 1/CM
##YUNITS= A
##XFACTOR= 1.00
##YFACTOR= 0.00000011920928955078
##FIRSTX= 10000.00
##LASTX= 4000.00
##NPOINTS= 3001
##FIRSTY= 0.282445
##MAXY= 0.604026
##MINY= 0.220795
##XYDATA= (X++(Y..Y))
 10000.000000   2369318   2377346   2383256   2384513   2381335  
  9990.000000   2375999   2370411   2365675   2362639   2361916  
  9980.000000   2363026   2364857   2366230   2366512   2365517  
  9970.000000   2363653   2361697   2360399   2360054   2360338  
  9960.000000   2360373   2359039   2355470   2349409   2341430  
  9950.000000   2332803   2325119   2319839   2317817   2319148  
  9940.000000   2323100   2328424   2333617   2337363   2338787  
  9930.000000   2337652   2334362   2329769   2324969   2320903  
  9920.000000   2318197   2316850   2316381   2315854   2314344  
  9910.000000   2311177   2306284   2300233   2294105   2289175  
  9900.000000   2286499   2286640   2289497   2294449   2300546  
  9890.000000   2306862   2312679   2317656   2321774   2325238  
  9880.000000   2328298   2331094   2333609   2335579   2336647  
  9870.000000   2336321   2334271   2330298   2324591   2317651  
  9860.000000   2310267   2303367   2297717   2293879   2291950  
  9850.000000   2291829   2293197   2295902   2299891   2305317  
  9840.000000   2312185   2320223   2328620   2336109   2341250  
  9830.000000   2342796   2340224   2333814   2324746   2314564  
  9820.000000   2304806   2296455   2289790   2284475   2279845  
  9810.000000   2275387   2270926   2266817   2263667   2262148  
  9800.000000   2262624   2265051   2268985   2273696   2278429  
  9790.000000   2282458   2285309   2286685   2286595   2285268  
  9780.000000   2283196   2281033   2279498   2279181   2280377  
  9770.000000   2282952   2286337   2289677   2292032   2292690  
  9760.000000   2291339   2288181   2283840   2279163   2274976  
  9750.000000   2271869   2270057   2269423   2269554   2269975  
  9740.000000   2270239   2270137   2269699   2269206   2269042  
  9730.000000   2269515   2270693   2272243   2273524   2273686  
  9720.000000   2272047   2268323   2262853   2256557   2250693  
  9710.000000   2246498   2244776   2245682   2248712   2252891  
  9700.000000   2257146   2260566   2262657   2263293   2262650  
  9690.000000   2261017   2258709   2256069   2253510   2251580  
  9680.000000   2250882   2251948   2255012   2259890   2265927  
  9670.000000   2272161   2277508   2281053   2282198   2280778  
  9660.000000   2277033   2271507   2264968   2258248   2252190  
  9650.000000   2247511   2244705   2243923   2244865   2246852  
  9640.000000   2248914   2250140   2249913   2248186   2245501  
  9630.000000   2242801   2241112   2241095   2242865   2245883  
  9620.000000   2249232   2251910   2253210   2252932   2251414  
  9610.000000   2249397   2247724   2247099   2247837   2249839  
  9600.000000   2252594   2255378   2257418   2258116   2257164  
  9590.000000   2254643   2250961   2246784   2242821   2239646  
  9580.000000   2237504   2236248   2235392   2234296   2232398  
  9570.000000   2229438   2225536   2221179   2217016   2213661  
  9560.000000   2211479   2210503   2210479   2210968   2211542  
  9550.000000   2211861   2211766   2211240   2210375   2209302  
  9540.000000   2208157   2207066   2206144   2205492   2205179  
  9530.000000   2205203   2205472   2205805   2205969   2205741  
  9520.000000   2204973   2203619   2201743   2199463   2196911  
  9510.000000   2194185   2191348   2188446   2185565   2182838  
  9500.000000   2180489   2178760   2177887   2177962   2178886  
  9490.000000   2180310   2181708   2182524   2182378   2181228  
  9480.000000   2179447   2177728   2176882   2177571   2180062  
  9470.000000   2184102   2188946   2193565   2196966   2198496  
  9460.000000   2198028   2195941   2192927   2189732   2186904  
  9450.000000   2184694   2183056   2181787   2180668   2179594  
  9440.000000   2178578   2177711   2177027   2176465   2175845  
  9430.000000   2174967   2173737   2172200   2170586   2169164  
  9420.000000   2168177   2167721   2167736   2168083   2168618  
  9410.000000   2169328   2170297   2171714   2173708   2176295  
  9400.000000   2179279   2182292   2184854   2186484   2186837  
  9390.000000   2185742   2183284   2179695   2175348   2170625  
  9380.000000   2165894   2161451   2157507   2154195   2151584  
  9370.000000   2149735   2148694   2148532   2149256   2150826  
  9360.000000   2153064   2155708   2158420   2160879   2162871  
  9350.000000   2164329   2165350   2166095   2166719   2167237  
  9340.000000   2167533   2167357   2166473   2164736   2162206  
  9330.000000   2159110   2155767   2152481   2149434   2146730  
  9320.000000   2144394   2142514   2141206   2140668   2141026  
  9310.000000   2142297   2144261   2146521   2148602   2150083  
  9300.000000   2150760   2150622   2149855   2148628   2147068  
  9290.000000   2145155   2142846   2140146   2137211   2134383  
  9280.000000   2132084   2130728   2130516   2131417   2133137  
  9270.000000   2135286   2137480   2139450   2141036   2142122  
  9260.000000   2142590   2142267   2141017   2138797   2135793  
  9250.000000   2132414   2129222   2126755   2125320   2124921  
  9240.000000   2125240   2125846   2126340   2126551   2126559  
  9230.000000   2126584   2126831   2127285   2127702   2127639  
  9220.000000   2126690   2124640   2121642   2118196   2115027  
  9210.000000   2112845   2112113   2112981   2115263   2118548  
  9200.000000   2122263   2125837   2128758   2130666   2131330  
  9190.000000   2130709   2128962   2126452   2123698   2121217  
  9180.000000   2119421   2118453   2118165   2118108   2117669  
  9170.000000   2116308   2113743   2110092   2105799   2101562  
  9160.000000   2098123   2096086   2095732   2096961   2099329  
  9150.000000   2102185   2104841   2106736   2107558   2107302  
  9140.000000   2106240   2104813   2103493   2102626   2102369  
  9130.000000   2102607   2103029   2103214   2102792   2101545  
  9120.000000   2099448   2096713   2093702   2090864   2088593  
  9110.000000   2087155   2086640   2086916   2087677   2088493  
  9100.000000   2088936   2088660   2087487   2085510   2083066  
  9090.000000   2080690   2078935   2078255   2078885   2080742  
  9080.000000   2083435   2086338   2088771   2090130   2090010  
  9070.000000   2088301   2085214   2081233   2077007   2073208  
  9060.000000   2070414   2068959   2068881   2069896   2071492  
  9050.000000   2073058   2074044   2074120   2073259   2071721  
  9040.000000   2069959   2068465   2067651   2067727   2068682  
  9030.000000   2070308   2072288   2074309   2076101   2077520  
  9020.000000   2078508   2079124   2079476   2079697   2079879  
  9010.000000   2080025   2080042   2079718   2078807   2077081  
  9000.000000   2074469   2071090   2067276   2063510   2060307  
  8990.000000   2058086   2057035   2057095   2057980   2059333  
  8980.000000   2060818   2062255   2063611   2064982   2066494  
  8970.000000   2068202   2070060   2071890   2073473   2074557  
  8960.000000   2074966   2074600   2073492   2071759   2069599  
  8950.000000   2067276   2065101   2063386   2062359   2062129  
  8940.000000   2062622   2063615   2064736   2065624   2066006  
  8930.000000   2065826   2065238   2064560   2064170   2064340  
  8920.000000   2065142   2066384   2067668   2068499   2068452  
  8910.000000   2067330   2065248   2062622   2060034   2058080  
  8900.000000   2057169   2057405   2058548   2060082   2061410  
  8890.000000   2062010   2061611   2060217   2058095   2055648  
  8880.000000   2053299   2051370   2050051   2049411   2049464  
  8870.000000   2050207   2051608   2053604   2056024   2058623  
  8860.000000   2061063   2063034   2064330   2064925   2064975  
  8850.000000   2064715   2064365   2063990   2063485   2062600  
  8840.000000   2061084   2058815   2055892   2052640   2049514  
  8830.000000   2046966   2045275   2044502   2044451   2044809  
  8820.000000   2045243   2045534   2045620   2045583   2045613  
  8810.000000   2045878   2046479   2047365   2048372   2049230  
  8800.000000   2049665   2049456   2048534   2047032   2045279  
  8790.000000   2043750   2042903   2043067   2044275   2046253  
  8780.000000   2048454   2050228   2051034   2050601   2049032  
  8770.000000   2046712   2044177   2041885   2040096   2038803  
  8760.000000   2037833   2036964   2036097   2035306   2034820  
  8750.000000   2034901   2035695   2037164   2039071   2041093  
  8740.000000   2042942   2044463   2045698   2046792   2047938  
  8730.000000   2049225   2050627   2051984   2053105   2053839  
  8720.000000   2054147   2054109   2053878   2053641   2053536  
  8710.000000   2053670   2054077   2054776   2055742   2056930  
  8700.000000   2058235   2059500   2060520   2061093   2061066  
  8690.000000   2060400   2059189   2057644   2056036   2054627  
  8680.000000   2053612   2053086   2053043   2053387   2053973  
  8670.000000   2054639   2055235   2055645   2055788   2055644  
  8660.000000   2055256   2054732   2054241   2053963   2054063  
  8650.000000   2054624   2055638   2056980   2058444   2059779  
  8640.000000   2060743   2061174   2061029   2060410   2059537  
  8630.000000   2058703   2058186   2058179   2058724   2059701  
  8620.000000   2060859   2061898   2062567   2062741   2062443  
  8610.000000   2061828   2061098   2060435   2059933   2059593  
  8600.000000   2059357   2059163   2059000   2058913   2058980  
  8590.000000   2059262   2059747   2060344   2060899   2061269  
  8580.000000   2061385   2061284   2061113   2061047   2061243  
  8570.000000   2061740   2062461   2063220   2063814   2064081  
  8560.000000   2063985   2063616   2063180   2062928   2063080  
  8550.000000   2063776   2065020   2066706   2068633   2070577  
  8540.000000   2072336   2073780   2074867   2075636   2076174  
  8530.000000   2076563   2076846   2076986   2076899   2076486  
  8520.000000   2075704   2074601   2073327   2072111   2071187  
  8510.000000   2070743   2070839   2071428   2072357   2073446  
  8500.000000   2074524   2075484   2076294   2076966   2077540  
  8490.000000   2078033   2078463   2078815   2079071   2079206  
  8480.000000   2079208   2079085   2078866   2078625   2078464  
  8470.000000   2078535   2078976   2079888   2081263   2082971  
  8460.000000   2084772   2086350   2087420   2087779   2087398  
  8450.000000   2086373   2084913   2083245   2081597   2080140  
  8440.000000   2079009   2078331   2078233   2078856   2080254  
  8430.000000   2082400   2085097   2088059   2090933   2093424  
  8420.000000   2095359   2096708   2097574   2098061   2098238  
  8410.000000   2098038   2097338   2096006   2094023   2091539  
  8400.000000   2088865   2086427   2084610   2083688   2083696  
  8390.000000   2084496   2085798   2087293   2088692   2089802  
  8380.000000   2090521   2090817   2090709   2090245   2089538  
  8370.000000   2088734   2088019   2087536   2087355   2087417  
  8360.000000   2087551   2087528   2087147   2086338   2085197  
  8350.000000   2083966   2082932   2082316   2082176   2082385  
  8340.000000   2082669   2082739   2082399   2081643   2080647  
  8330.000000   2079712   2079141   2079119   2079625   2080442  
  8320.000000   2081227   2081617   2081348   2080320   2078641  
  8310.000000   2076569   2074452   2072613   2071293   2070592  
  8300.000000   2070475   2070787   2071311   2071839   2072222  
  8290.000000   2072427   2072507   2072604   2072870   2073432  
  8280.000000   2074321   2075456   2076663   2077709   2078387  
  8270.000000   2078553   2078175   2077315   2076105   2074703  
  8260.000000   2073235   2071793   2070414   2069128   2067964  
  8250.000000   2066990   2066280   2065907   2065875   2066105  
  8240.000000   2066411   2066557   2066304   2065489   2064075  
  8230.000000   2062177   2060041   2057979   2056279   2055134  
  8220.000000   2054582   2054522   2054727   2054933   2054891  
  8210.000000   2054442   2053544   2052273   2050775   2049218  
  8200.000000   2047733   2046381   2045148   2043960   2042724  
  8190.000000   2041373   2039906   2038394   2036957   2035715  
  8180.000000   2034731   2033986   2033371   2032728   2031896  
  8170.000000   2030789   2029422   2027923   2026486   2025305  
  8160.000000   2024497   2024059   2023867   2023711   2023362  
  8150.000000   2022634   2021432   2019766   2017738   2015510  
  8140.000000   2013272   2011202   2009450   2008110   2007208  
  8130.000000   2006685   2006404   2006173   2005791   2005107  
  8120.000000   2004069   2002751   2001338   2000058   1999111  
  8110.000000   1998589   1998456   1998551   1998669   1998617  
  8100.000000   1998289   1997688   1996895   1996033   1995195  
  8090.000000   1994423   1993693   1992968   1992218   1991462  
  8080.000000   1990745   1990120   1989593   1989111   1988556  
  8070.000000   1987788   1986697   1985240   1983468   1981499  
  8060.000000   1979489   1977573   1975843   1974338   1973053  
  8050.000000   1971977   1971105   1970456   1970045   1969878  
  8040.000000   1969917   1970089   1970295   1970427   1970406  
  8030.000000   1970181   1969748   1969117   1968314   1967362  
  8020.000000   1966285   1965113   1963894   1962690   1961570  
  8010.000000   1960596   1959793   1959150   1958607   1958088  
  8000.000000   1957513   1956836   1956052   1955194   1954324  
  7990.000000   1953496   1952740   1952044   1951363   1950638  
  7980.000000   1949831   1948949   1948057   1947263   1946688  
  7970.000000   1946422   1946478   1946782   1947182   1947490  
  7960.000000   1947541   1947242   1946609   1945750   1944833  
  7950.000000   1944016   1943393   1942960   1942619   1942224  
  7940.000000   1941639   1940802   1939748   1938602   1937531  
  7930.000000   1936678   1936107   1935777   1935557   1935278  
  7920.000000   1934798   1934058   1933111   1932102   1931220  
  7910.000000   1930630   1930415   1930546   1930896   1931275  
  7900.000000   1931503   1931444   1931061   1930399   1929571  
  7890.000000   1928707   1927927   1927307   1926879   1926646  
  7880.000000   1926589   1926696   1926955   1927361   1927892  
  7870.000000   1928507   1929135   1929680   1930039   1930115  
  7860.000000   1929850   1929225   1928289   1927136   1925903  
  7850.000000   1924733   1923756   1923059   1922665   1922549  
  7840.000000   1922632   1922834   1923068   1923294   1923490  
  7830.000000   1923673   1923857   1924053   1924247   1924404  
  7820.000000   1924475   1924405   1924145   1923651   1922897  
  7810.000000   1921872   1920584   1919080   1917436   1915770  
  7800.000000   1914206   1912871   1911832   1911106   1910630  
  7790.000000   1910303   1910007   1909648   1909174   1908575  
  7780.000000   1907865   1907052   1906135   1905090   1903910  
  7770.000000   1902621   1901306   1900095   1899130   1898519  
  7760.000000   1898288   1898370   1898611   1898822   1898834  
  7750.000000   1898539   1897915   1897004   1895891   1894659  
  7740.000000   1893375   1892088   1890846   1889713   1888765  
  7730.000000   1888088   1887730   1887688   1887880   1888169  
  7720.000000   1888391   1888400   1888111   1887500   1886612  
  7710.000000   1885519   1884303   1883024   1881733   1880469  
  7700.000000   1879281   1878227   1877372   1876770   1876437  
  7690.000000   1876344   1876410   1876523   1876567   1876456  
  7680.000000   1876150   1875665   1875062   1874426   1873846  
  7670.000000   1873386   1873078   1872910   1872832   1872756  
  7660.000000   1872579   1872201   1871549   1870602   1869406  
  7650.000000   1868067   1866733   1865560   1864670   1864121  
  7640.000000   1863891   1863890   1863984   1864045   1863983  
  7630.000000   1863773   1863456   1863109   1862805   1862577  
  7620.000000   1862402   1862202   1861882   1861359   1860610  
  7610.000000   1859676   1858664   1857706   1856919   1856373  
  7600.000000   1856069   1855955   1855943   1855950   1855917  
  7590.000000   1855823   1855682   1855529   1855403   1855325  
  7580.000000   1855304   1855322   1855349   1855340   1855253  
  7570.000000   1855048   1854708   1854239   1853688   1853128  
  7560.000000   1852644   1852308   1852159   1852190   1852354  
  7550.000000   1852586   1852830   1853065   1853308   1853599  
  7540.000000   1853976   1854445   1854973   1855485   1855905  
  7530.000000   1856166   1856253   1856186   1856026   1855830  
  7520.000000   1855647   1855495   1855384   1855317   1855324  
  7510.000000   1855444   1855724   1856185   1856817   1857568  
  7500.000000   1858368   1859164   1859942   1860736   1861616  
  7490.000000   1862644   1863847   1865183   1866551   1867816  
  7480.000000   1868862   1869625   1870123   1870434   1870676  
  7470.000000   1870958   1871354   1871881   1872512   1873198  
  7460.000000   1873895   1874583   1875274   1875999   1876798  
  7450.000000   1877702   1878719   1879832   1881005   1882188  
  7440.000000   1883345   1884453   1885528   1886606   1887742  
  7430.000000   1888981   1890341   1891793   1893269   1894669  
  7420.000000   1895913   1896949   1897796   1898517   1899213  
  7410.000000   1899973   1900851   1901842   1902902   1903972  
  7400.000000   1905012   1906023   1907044   1908138   1909356  
  7390.000000   1910722   1912214   1913785   1915385   1916975  
  7380.000000   1918542   1920079   1921581   1923018   1924343  
  7370.000000   1925498   1926451   1927212   1927848   1928466  
  7360.000000   1929184   1930098   1931248   1932622   1934154  
  7350.000000   1935762   1937362   1938894   1940323   1941634  
  7340.000000   1942825   1943898   1944865   1945743   1946562  
  7330.000000   1947357   1948159   1948990   1949851   1950735  
  7320.000000   1951632   1952548   1953505   1954535   1955660  
  7310.000000   1956870   1958106   1959274   1960262   1960991  
  7300.000000   1961440   1961671   1961815   1962032   1962458  
  7290.000000   1963164   1964126   1965241   1966353   1967320  
  7280.000000   1968052   1968538   1968840   1969059   1969298  
  7270.000000   1969618   1970021   1970449   1970826   1971084  
  7260.000000   1971213   1971266   1971348   1971586   1972078  
  7250.000000   1972867   1973922   1975148   1976431   1977660  
  7240.000000   1978782   1979791   1980740   1981680   1982661  
  7230.000000   1983680   1984719   1985735   1986718   1987681  
  7220.000000   1988691   1989823   1991156   1992721   1994512  
  7210.000000   1996468   1998516   2000579   2002623   2004641  
  7200.000000   2006672   2008752   2010924   2013192   2015555  
  7190.000000   2017980   2020453   2022954   2025495   2028079  
  7180.000000   2030724   2033422   2036166   2038930   2041703  
  7170.000000   2044471   2047258   2050084   2052993   2056000  
  7160.000000   2059124   2062341   2065630   2068954   2072305  
  7150.000000   2075681   2079119   2082656   2086347   2090214  
  7140.000000   2094270   2098484   2102824   2107236   2111703  
  7130.000000   2116205   2120762   2125381   2130088   2134869  
  7120.000000   2139717   2144595   2149486   2154370   2159263  
  7110.000000   2164178   2169151   2174196   2179335   2184560  
  7100.000000   2189879   2195280   2200773   2206346   2212002  
  7090.000000   2217718   2223485   2229286   2235141   2241079  
  7080.000000   2247156   2253416   2259880   2266511   2273232  
  7070.000000   2279922   2286478   2292825   2298969   2304961  
  7060.000000   2310902   2316875   2322936   2329081   2335273  
  7050.000000   2341456   2347597   2353702   2359811   2365984  
  7040.000000   2372264   2378661   2385139   2391635   2398080  
  7030.000000   2404425   2410653   2416784   2422855   2428909  
  7020.000000   2434971   2441051   2447124   2453157   2459091  
  7010.000000   2464869   2470427   2475731   2480762   2485550  
  7000.000000   2490146   2494635   2499084   2503552   2508043  
  6990.000000   2512546   2517012   2521415   2525730   2529973  
  6980.000000   2534152   2538282   2542342   2546304   2550115  
  6970.000000   2553755   2557222   2560569   2563854   2567151  
  6960.000000   2570488   2573864   2577223   2580507   2583640  
  6950.000000   2586587   2589323   2591860   2594204   2596381  
  6940.000000   2598408   2600329   2602185   2604040   2605942  
  6930.000000   2607924   2609971   2612046   2614073   2615995  
  6920.000000   2617765   2619388   2620884   2622306   2623694  
  6910.000000   2625088   2626505   2627959   2629456   2630996  
  6900.000000   2632552   2634073   2635477   2636676   2637603  
  6890.000000   2638252   2638682   2639024   2639429   2640031  
  6880.000000   2640887   2641980   2643217   2644485   2645677  
  6870.000000   2646746   2647695   2648575   2649435   2650312  
  6860.000000   2651205   2652086   2652917   2653660   2654287  
  6850.000000   2654776   2655109   2655275   2655274   2655143  
  6840.000000   2654951   2654807   2654818   2655071   2655585  
  6830.000000   2656315   2657155   2657985   2658705   2659274  
  6820.000000   2659704   2660052   2660377   2660721   2661087  
  6810.000000   2661453   2661790   2662078   2662313   2662504  
  6800.000000   2662650   2662738   2662736   2662615   2662357  
  6790.000000   2661985   2661543   2661103   2660717   2660421  
  6780.000000   2660213   2660069   2659956   2659851   2659736  
  6770.000000   2659602   2659429   2659183   2658823   2658312  
  6760.000000   2657643   2656850   2656003   2655193   2654502  
  6750.000000   2653978   2653619   2653386   2653212   2653034  
  6740.000000   2652802   2652497   2652115   2651668   2651174  
  6730.000000   2650653   2650122   2649599   2649091   2648595  
  6720.000000   2648093   2647554   2646949   2646263   2645502  
  6710.000000   2644699   2643888   2643102   2642344   2641597  
  6700.000000   2640822   2639992   2639100   2638172   2637253  
  6690.000000   2636388   2635594   2634855   2634116   2633318  
  6680.000000   2632415   2631398   2630295   2629153   2628012  
  6670.000000   2626889   2625757   2624571   2623282   2621867  
  6660.000000   2620336   2618742   2617147   2615616   2614184  
  6650.000000   2612859   2611617   2610422   2609232   2608018  
  6640.000000   2606758   2605445   2604082   2602679   2601248  
  6630.000000   2599805   2598356   2596903   2595433   2593933  
  6620.000000   2592388   2590794   2589154   2587487   2585806  
  6610.000000   2584123   2582433   2580726   2578993   2577238  
  6600.000000   2575480   2573752   2572083   2570487   2568951  
  6590.000000   2567446   2565932   2564386   2562803   2561200  
  6580.000000   2559600   2558010   2556415   2554778   2553060  
  6570.000000   2551245   2549354   2547454   2545632   2543969  
  6560.000000   2542504   2541228   2540078   2538967   2537813  
  6550.000000   2536559   2535185   2533700   2532129   2530499  
  6540.000000   2528843   2527190   2525585   2524072   2522695  
  6530.000000   2521472   2520390   2519401   2518436   2517435  
  6520.000000   2516367   2515245   2514113   2513030   2512044  
  6510.000000   2511166   2510376   2509628   2508876   2508084  
  6500.000000   2507238   2506333   2505367   2504326   2503194  
  6490.000000   2501960   2500635   2499258   2497893   2496609  
  6480.000000   2495457   2494449   2493563   2492744   2491932  
  6470.000000   2491080   2490166   2489189   2488169   2487129  
  6460.000000   2486097   2485104   2484184   2483375   2482704  
  6450.000000   2482181   2481780   2481442   2481089   2480645  
  6440.000000   2480063   2479338   2478508   2477626   2476749  
  6430.000000   2475901   2475082   2474267   2473438   2472594  
  6420.000000   2471766   2471003   2470350   2469832   2469436  
  6410.000000   2469117   2468820   2468492   2468107   2467664  
  6400.000000   2467180   2466676   2466169   2465666   2465173  
  6390.000000   2464699   2464266   2463896   2463610   2463409  
  6380.000000   2463269   2463148   2462988   2462741   2462380  
  6370.000000   2461903   2461335   2460715   2460081   2459466  
  6360.000000   2458885   2458345   2457837   2457353   2456880  
  6350.000000   2456408   2455927   2455430   2454908   2454354  
  6340.000000   2453754   2453099   2452374   2451581   2450727  
  6330.000000   2449844   2448971   2448157   2447433   2446808  
  6320.000000   2446250   2445699   2445076   2444310   2443357  
  6310.000000   2442215   2440914   2439515   2438076   2436653  
  6300.000000   2435273   2433951   2432688   2431484   2430331  
  6290.000000   2429222   2428133   2427036   2425891   2424668  
  6280.000000   2423342   2421917   2420413   2418864   2417303  
  6270.000000   2415754   2414224   2412711   2411201   2409686  
  6260.000000   2408152   2406596   2405004   2403367   2401667  
  6250.000000   2399894   2398044   2396127   2394162   2392175  
  6240.000000   2390188   2388216   2386262   2384325   2382397  
  6230.000000   2380472   2378546   2376615   2374674   2372719  
  6220.000000   2370749   2368766   2366781   2364808   2362862  
  6210.000000   2360950   2359074   2357224   2355392   2353570  
  6200.000000   2351763   2349982   2348242   2346546   2344891  
  6190.000000   2343255   2341615   2339951   2338260   2336553  
  6180.000000   2334857   2333201   2331610   2330092   2328644  
  6170.000000   2327249   2325887   2324539   2323185   2321810  
  6160.000000   2320399   2318944   2317445   2315916   2314383  
  6150.000000   2312878   2311428   2310045   2308718   2307418  
  6140.000000   2306106   2304746   2303323   2301839   2300316  
  6130.000000   2298780   2297261   2295773   2294331   2292941  
  6120.000000   2291621   2290385   2289252   2288225   2287294  
  6110.000000   2286428   2285590   2284740   2283862   2282956  
  6100.000000   2282052   2281182   2280385   2279672   2279048  
  6090.000000   2278488   2277968   2277458   2276948   2276434  
  6080.000000   2275935   2275470   2275069   2274748   2274522  
  6070.000000   2274384   2274320   2274299   2274298   2274291  
  6060.000000   2274283   2274286   2274341   2274477   2274727  
  6050.000000   2275087   2275540   2276043   2276567   2277088  
  6040.000000   2277622   2278195   2278856   2279633   2280545  
  6030.000000   2281572   2282689   2283858   2285064   2286301  
  6020.000000   2287589   2288942   2290379   2291890   2293463  
  6010.000000   2295067   2296682   2298285   2299873   2301433  
  6000.000000   2302962   2304446   2305884   2307275   2308646  
  5990.000000   2310027   2311467   2312998   2314648   2316413  
  5980.000000   2318279   2320224   2322237   2324315   2326475  
  5970.000000   2328725   2331075   2333503   2335987   2338483  
  5960.000000   2340966   2343413   2345826   2348206   2350570  
  5950.000000   2352919   2355259   2357593   2359940   2362324  
  5940.000000   2364781   2367339   2370011   2372787   2375633  
  5930.000000   2378506   2381364   2384183   2386953   2389680  
  5920.000000   2392370   2395023   2397626   2400162   2402614  
  5910.000000   2404976   2407255   2409462   2411610   2413710  
  5900.000000   2415762   2417773   2419756   2421744   2423776  
  5890.000000   2425900   2428142   2430508   2432968   2435472  
  5880.000000   2437962   2440386   2442712   2444929   2447044  
  5870.000000   2449066   2451010   2452884   2454702   2456482  
  5860.000000   2458250   2460031   2461849   2463713   2465621  
  5850.000000   2467561   2469528   2471527   2473581   2475723  
  5840.000000   2477985   2480383   2482908   2485522   2488175  
  5830.000000   2490808   2493379   2495865   2498266   2500600  
  5820.000000   2502892   2505163   2507427   2509690   2511943  
  5810.000000   2514179   2516380   2518541   2520647   2522706  
  5800.000000   2524710   2526681   2528607   2530506   2532346  
  5790.000000   2534120   2535771   2537267   2538538   2539542  
  5780.000000   2540209   2540502   2540365   2539788   2538766  
  5770.000000   2537350   2535608   2533652   2531584   2529514  
  5760.000000   2527505   2525608   2523824   2522159   2520601  
  5750.000000   2519158   2517831   2516629   2515546   2514566  
  5740.000000   2513665   2512815   2512005   2511226   2510491  
  5730.000000   2509799   2509154   2508536   2507931   2507316  
  5720.000000   2506698   2506092   2505539   2505075   2504729  
  5710.000000   2504501   2504373   2504309   2504277   2504255  
  5700.000000   2504246   2504260   2504318   2504429   2504590  
  5690.000000   2504790   2505006   2505227   2505440   2505645  
  5680.000000   2505835   2506000   2506113   2506145   2506056  
  5670.000000   2505817   2505398   2504786   2503971   2502958  
  5660.000000   2501752   2500380   2498871   2497273   2495629  
  5650.000000   2493988   2492376   2490814   2489304   2487848  
  5640.000000   2486444   2485098   2483815   2482597   2481440  
  5630.000000   2480331   2479254   2478197   2477160   2476153  
  5620.000000   2475195   2474294   2473452   2472648   2471854  
  5610.000000   2471040   2470189   2469305   2468410   2467533  
  5600.000000   2466697   2465910   2465160   2464420   2463658  
  5590.000000   2462850   2461981   2461051   2460065   2459032  
  5580.000000   2457962   2456868   2455763   2454666   2453594  
  5570.000000   2452563   2451577   2450628   2449699   2448772  
  5560.000000   2447828   2446861   2445869   2444859   2443837  
  5550.000000   2442811   2441785   2440766   2439763   2438786  
  5540.000000   2437839   2436922   2436022   2435123   2434206  
  5530.000000   2433263   2432300   2431340   2430408   2429527  
  5520.000000   2428703   2427923   2427161   2426385   2425565  
  5510.000000   2424687   2423743   2422739   2421677   2420566  
  5500.000000   2419410   2418223   2417019   2415823   2414645  
  5490.000000   2413492   2412344   2411176   2409952   2408654  
  5480.000000   2407272   2405826   2404338   2402837   2401331  
  5470.000000   2399816   2398273   2396684   2395038   2393335  
  5460.000000   2391581   2389781   2387932   2386027   2384058  
  5450.000000   2382037   2379996   2377989   2376071   2374284  
  5440.000000   2372635   2371094   2369611   2368127   2366610  
  5430.000000   2365044   2363448   2361839   2360240   2358654  
  5420.000000   2357088   2355548   2354067   2352681   2351445  
  5410.000000   2350382   2349496   2348743   2348080   2347452  
  5400.000000   2346848   2346271   2345769   2345371   2345113  
  5390.000000   2344983   2344968   2345031   2345175   2345404  
  5380.000000   2345772   2346309   2347056   2347993   2349104  
  5370.000000   2350328   2351646   2353025   2354494   2356055  
  5360.000000   2357758   2359595   2361607   2363776   2366162  
  5350.000000   2368780   2371724   2375017   2378740   2382868  
  5340.000000   2387429   2392361   2397690   2403367   2409445  
  5330.000000   2415882   2422722   2429895   2437432   2445266  
  5320.000000   2453474   2462054   2471150   2480792   2491130  
  5310.000000   2502144   2513916   2526357   2539505   2553271  
  5300.000000   2567721   2582816   2598673   2615290   2632794  
  5290.000000   2651161   2670457   2690573   2711471   2732971  
  5280.000000   2755011   2777464   2800376   2823763   2847779  
  5270.000000   2872485   2897947   2924069   2950691   2977563  
  5260.000000   3004462   3031238   3057847   3084342   3110786  
  5250.000000   3137227   3163578   3189707   3215351   3240341  
  5240.000000   3264483   3287796   3310281   3332115   3353352  
  5230.000000   3374133   3394395   3414139   3433190   3451505  
  5220.000000   3468941   3485561   3501339   3516443   3530898  
  5210.000000   3544858   3558269   3571169   3583392   3594912  
  5200.000000   3605576   3615435   3624447   3632761   3640387  
  5190.000000   3647457   3653925   3659845   3665119   3669784  
  5180.000000   3673768   3677152   3679907   3682125   3683768  
  5170.000000   3684901   3685474   3685560   3685144   3684333  
  5160.000000   3683134   3681639   3679816   3677703   3675233  
  5150.000000   3672425   3669238   3665723   3661873   3657749  
  5140.000000   3653339   3648684   3643767   3638629   3633278  
  5130.000000   3627780   3622159   3616470   3610710   3604891  
  5120.000000   3598986   3592996   3586914   3580771   3574592  
  5110.000000   3568419   3562269   3556158   3550073   3544010  
  5100.000000   3537956   3531914   3525888   3519890   3513926  
  5090.000000   3508001   3502111   3496257   3490441   3484670  
  5080.000000   3478949   3473284   3467667   3462085   3456511  
  5070.000000   3450926   3445305   3439640   3433923   3428155  
  5060.000000   3422334   3416464   3410542   3404577   3398570  
  5050.000000   3392535   3386474   3380391   3374273   3368107  
  5040.000000   3361872   3355560   3349168   3342711   3336215  
  5030.000000   3329711   3323228   3316787   3310406   3304091  
  5020.000000   3297857   3291710   3285671   3279745   3273953  
  5010.000000   3268286   3262754   3257338   3252053   3246887  
  5000.000000   3241874   3237020   3232371   3227930   3223737  
  4990.000000   3219775   3216072   3212601   3209387   3206409  
  4980.000000   3203700   3201239   3199064   3197152   3195542  
  4970.000000   3194211   3193200   3192489   3192121   3192069  
  4960.000000   3192370   3192989   3193959   3195244   3196884  
  4950.000000   3198851   3201188   3203867   3206925   3210326  
  4940.000000   3214102   3218210   3222682   3227475   3232615  
  4930.000000   3238057   3243817   3249843   3256150   3262695  
  4920.000000   3269501   3276540   3283842   3291382   3299182  
  4910.000000   3307211   3315480   3323954   3332635   3341491  
  4900.000000   3350519   3359687   3368984   3378383   3387864  
  4890.000000   3397405   3406981   3416567   3426124   3435620  
  4880.000000   3445002   3454238   3463275   3472094   3480654  
  4870.000000   3488949   3496938   3504623   3511968   3518986  
  4860.000000   3525658   3532020   3538067   3543844   3549341  
  4850.000000   3554594   3559582   3564334   3568841   3573143  
  4840.000000   3577250   3581216   3585052   3588800   3592454  
  4830.000000   3596037   3599531   3602954   3606293   3609567  
  4820.000000   3612771   3615921   3619008   3622039   3625005  
  4810.000000   3627911   3630752   3633537   3636268   3638958  
  4800.000000   3641610   3644238   3646842   3649431   3651998  
  4790.000000   3654542   3657047   3659509   3661913   3664260  
  4780.000000   3666548   3668790   3670988   3673148   3675259  
  4770.000000   3677314   3679286   3681167   3682943   3684626  
  4760.000000   3686219   3687748   3689213   3690627   3691964  
  4750.000000   3693212   3694330   3695304   3696103   3696733  
  4740.000000   3697185   3697482   3697628   3697644   3697527  
  4730.000000   3697289   3696916   3696413   3695771   3695001  
  4720.000000   3694106   3693109   3692028   3690890   3689717  
  4710.000000   3688530   3687348   3686187   3685065   3683999  
  4700.000000   3683009   3682116   3681338   3680687   3680169  
  4690.000000   3679782   3679514   3679345   3679253   3679204  
  4680.000000   3679170   3679112   3679003   3678811   3678525  
  4670.000000   3678133   3677652   3677098   3676515   3675938  
  4660.000000   3675417   3674990   3674695   3674554   3674590  
  4650.000000   3674805   3675202   3675769   3676493   3677354  
  4640.000000   3678333   3679405   3680554   3681759   3683005  
  4630.000000   3684273   3685548   3686808   3688033   3689201  
  4620.000000   3690291   3691284   3692162   3692914   3693529  
  4610.000000   3694011   3694361   3694601   3694745   3694827  
  4600.000000   3694863   3694880   3694883   3694886   3694879  
  4590.000000   3694866   3694829   3694766   3694652   3694479  
  4580.000000   3694220   3693865   3693394   3692810   3692109  
  4570.000000   3691308   3690412   3689436   3688375   3687228  
  4560.000000   3685980   3684627   3683161   3681596   3679943  
  4550.000000   3678228   3676467   3674675   3672854   3671007  
  4540.000000   3669129   3667225   3665304   3663384   3661488  
  4530.000000   3659630   3657831   3656088   3654417   3652804  
  4520.000000   3651271   3649809   3648458   3647215   3646131  
  4510.000000   3645206   3644505   3644035   3643881   3644058  
  4500.000000   3644667   3645717   3647303   3649413   3652121  
  4490.000000   3655394   3659298   3663796   3668956   3674741  
  4480.000000   3681216   3688338   3696163   3704638   3713806  
  4470.000000   3723603   3734052   3745070   3756652   3768695  
  4460.000000   3781170   3793971   3807064   3820358   3833826  
  4450.000000   3847396   3861051   3874742   3888464   3902197  
  4440.000000   3915942   3929700   3943461   3957219   3970935  
  4430.000000   3984589   3998113   4011491   4024643   4037565  
  4420.000000   4050172   4062465   4074348   4085812   4096750  
  4410.000000   4107143   4116872   4125915   4134159   4141594  
  4400.000000   4148139   4153833   4158658   4162717   4166065  
  4390.000000   4168850   4171164   4173163   4174933   4176595  
  4380.000000   4178207   4179851   4181560   4183395   4185386  
  4370.000000   4187588   4190043   4192802   4195909   4199400  
  4360.000000   4203301   4207614   4212318   4217374   4222701  
  4350.000000   4228227   4233836   4239470   4245044   4250569  
  4340.000000   4256027   4261467   4266847   4272100   4277002  
  4330.000000   4281249   4284421   4286120   4286013   4283982  
  4320.000000   4280128   4274830   4268624   4262158   4256001  
  4310.000000   4250619   4246234   4242919   4240548   4238956  
  4300.000000   4237927   4237301   4236954   4236808   4236824  
  4290.000000   4236954   4237185   4237479   4237845   4238279  
  4280.000000   4238813   4239471   4240279   4241263   4242420  
  4270.000000   4243764   4245259   4246871   4248483   4249947  
  4260.000000   4251024   4251460   4250987   4249416   4246659  
  4250.000000   4242788   4238000   4232618   4226984   4221447  
  4240.000000   4216254   4211579   4207456   4203865   4200697  
  4230.000000   4197848   4195190   4192626   4190072   4187465  
  4220.000000   4184782   4182007   4179184   4176350   4173603  
  4210.000000   4171006   4168659   4166600   4164878   4163476  
  4200.000000   4162389   4161563   4160975   4160570   4160342  
  4190.000000   4160253   4160325   4160533   4160911   4161434  
  4180.000000   4162131   4162966   4163965   4165094   4166403  
  4170.000000   4167894   4169661   4171743   4174257   4177237  
  4160.000000   4180765   4184819   4189421   4194498   4200045  
  4150.000000   4205986   4212336   4219046   4226167   4233672  
  4140.000000   4241632   4250025   4258916   4268270   4278129  
  4130.000000   4288431   4299192   4310335   4321875   4333757  
  4120.000000   4346022   4358654   4371722   4385224   4399219  
  4110.000000   4413687   4428648   4444051   4459883   4476069  
  4100.000000   4492572   4509313   4526248   4543315   4560491  
  4090.000000   4577748   4595088   4612511   4630019   4647616  
  4080.000000   4665288   4683035   4700826   4718658   4736479  
  4070.000000   4754270   4771943   4789459   4806709   4823665  
  4060.000000   4840231   4856415   4872141   4887437   4902227  
  4050.000000   4916544   4930313   4943591   4956311   4968542  
  4040.000000   4980197   4991318   5001779   5011601   5020658  
  4030.000000   5029001   5036537   5043336   5049311   5054500  
  4020.000000   5058771   5062159   5064615   5066223   5066939  
  4010.000000   5066926   5066278   5065038   5062986   5060211  
  4000.000000   5057071  
##END= 
