##TITLE= Sample 022 By ssteindl date Montag, November 26 2018
##JCAMP-DX= 4.24
##DATA TYPE= INFRARED SPECTRUM
##ORIGIN= Exported PE Spectrum Data File
##OWNER= Sandra Steindl
##DATE= 18/11/26
##TIME= 11:41:41.00
##SPECTROMETER/DATA SYSTEM= PERKIN-ELMER Frontier FT-IR/NIR IR
##INSTRUMENT PARAMETERS=
  APODIZATION=stark
  DETECTOR=INGAAS
##RESOLUTION= 16.000000
##DELTAX= -2.000000
##XUNITS= 1/CM
##YUNITS= A
##XFACTOR= 1.00
##YFACTOR= 0.00000011920928955078
##FIRSTX= 10000.00
##LASTX= 4000.00
##NPOINTS= 3001
##FIRSTY= 0.312800
##MAXY= 0.647022
##MINY= 0.243588
##XYDATA= (X++(Y..Y))
 10000.000000   2623954   2622957   2622214   2622123   2622890  
  9990.000000   2624674   2627740   2632307   2638269   2645088  
  9980.000000   2652002   2658100   2662563   2664786   2664625  
  9970.000000   2662395   2658788   2654747   2651212   2649020  
  9960.000000   2648632   2650246   2653602   2658284   2663553  
  9950.000000   2668675   2672812   2675288   2675637   2673686  
  9940.000000   2669650   2663922   2657065   2649435   2641212  
  9930.000000   2632278   2622533   2612113   2601664   2592410  
  9920.000000   2585824   2583279   2585399   2591888   2601448  
  9910.000000   2612255   2622463   2630733   2636535   2640042  
  9900.000000   2641927   2642824   2643166   2642921   2641934  
  9890.000000   2639994   2637217   2633924   2630573   2627492  
  9880.000000   2624680   2621942   2618939   2615661   2612433  
  9870.000000   2610052   2609405   2611142   2615331   2621302  
  9860.000000   2627877   2633628   2637383   2638457   2636821  
  9850.000000   2632998   2627853   2622410   2617638   2614423  
  9840.000000   2613435   2615112   2619454   2625958   2633491  
  9830.000000   2640504   2645255   2646361   2643144   2635932  
  9820.000000   2625970   2615068   2605100   2597465   2592787  
  9810.000000   2590817   2590633   2590982   2590693   2589012  
  9800.000000   2585733   2581192   2576022   2570976   2566663  
  9790.000000   2563466   2561518   2560738   2561007   2562141  
  9780.000000   2564055   2566581   2569505   2572380   2574606  
  9770.000000   2575466   2574404   2571201   2566207   2560306  
  9760.000000   2554779   2550966   2549881   2551945   2556810  
  9750.000000   2563517   2570726   2577120   2581711   2584017  
  9740.000000   2584089   2582333   2579351   2575721   2571930  
  9730.000000   2568324   2565161   2562657   2561009   2560395  
  9720.000000   2560888   2562436   2564769   2567475   2570002  
  9710.000000   2571811   2572451   2571689   2569570   2566441  
  9700.000000   2562918   2559761   2557723   2557334   2558740  
  9690.000000   2561638   2565315   2568856   2571345   2572141  
  9680.000000   2570987   2568097   2564060   2559680   2555775  
  9670.000000   2552935   2551431   2551116   2551531   2552014  
  9660.000000   2551911   2550762   2548435   2545178   2541579  
  9650.000000   2538397   2536370   2535960   2537206   2539695  
  9640.000000   2542682   2545378   2547168   2547879   2547761  
  9630.000000   2547450   2547685   2549047   2551702   2555259  
  9620.000000   2558855   2561346   2561687   2559214   2553886  
  9610.000000   2546303   2537567   2529025   2521918   2517113  
  9600.000000   2514883   2514908   2516397   2518377   2519960  
  9590.000000   2520601   2520142   2518822   2517081   2515425  
  9580.000000   2514271   2513852   2514266   2515426   2517192  
  9570.000000   2519279   2521364   2522999   2523737   2523182  
  9560.000000   2521151   2517762   2513455   2508920   2504921  
  9550.000000   2502132   2500942   2501450   2503413   2506421  
  9540.000000   2509938   2513463   2516549   2518847   2520118  
  9530.000000   2520222   2519170   2517087   2514222   2510873  
  9520.000000   2507337   2503885   2500748   2498172   2496391  
  9510.000000   2495644   2496034   2497482   2499601   2501755  
  9500.000000   2503170   2503165   2501403   2498024   2493641  
  9490.000000   2489145   2485408   2483014   2482097   2482393  
  9480.000000   2483404   2484635   2485737   2486562   2487061  
  9470.000000   2487164   2486693   2485380   2483028   2479649  
  9460.000000   2475592   2471454   2467890   2465387   2464043  
  9450.000000   2463628   2463656   2463693   2463526   2463246  
  9440.000000   2463168   2463523   2464298   2465009   2464942  
  9430.000000   2463312   2459732   2454320   2447817   2441345  
  9420.000000   2436132   2433213   2433156   2436066   2441522  
  9410.000000   2448843   2457119   2465455   2472968   2478942  
  9400.000000   2482886   2484617   2484322   2482420   2479486  
  9390.000000   2475957   2472076   2467817   2463022   2457598  
  9380.000000   2451630   2445547   2439945   2435539   2432794  
  9370.000000   2431844   2432332   2433590   2434837   2435423  
  9360.000000   2435014   2433587   2431426   2428935   2426564  
  9350.000000   2424654   2423423   2422933   2423132   2423859  
  9340.000000   2424892   2425973   2426869   2427413   2427521  
  9330.000000   2427184   2426423   2425243   2423626   2421538  
  9320.000000   2419019   2416214   2413428   2411046   2409428  
  9310.000000   2408752   2408924   2409591   2410285   2410586  
  9300.000000   2410288   2409454   2408360   2407376   2406796  
  9290.000000   2406767   2407273   2408227   2409558   2411267  
  9280.000000   2413370   2415787   2418241   2420253   2421259  
  9270.000000   2420802   2418731   2415296   2411098   2406902  
  9260.000000   2403365   2400849   2399320   2398481   2397933  
  9250.000000   2397382   2396726   2396018   2395365   2394785  
  9240.000000   2394143   2393184   2391648   2389440   2386747  
  9230.000000   2384036   2381957   2381092   2381788   2384040  
  9220.000000   2387474   2391427   2395047   2397533   2398329  
  9210.000000   2397267   2394631   2391060   2387449   2384652  
  9200.000000   2383261   2383354   2384479   2385808   2386434  
  9190.000000   2385725   2383530   2380368   2377180   2375085  
  9180.000000   2374824   2376610   2379996   2384100   2387885  
  9170.000000   2390461   2391367   2390527   2388211   2384711  
  9160.000000   2380290   2375056   2369155   2362816   2356483  
  9150.000000   2350750   2346253   2343533   2342834   2344148  
  9140.000000   2347144   2351435   2356565   2362163   2367833  
  9130.000000   2373155   2377656   2380833   2382320   2381923  
  9120.000000   2379810   2376365   2372169   2367706   2363287  
  9110.000000   2358964   2354629   2350181   2345649   2341316  
  9100.000000   2337603   2334995   2333768   2333944   2335207  
  9090.000000   2337089   2339105   2340931   2342475   2343816  
  9080.000000   2345133   2346519   2347949   2349222   2350099  
  9070.000000   2350348   2349891   2348766   2347140   2345198  
  9060.000000   2343107   2340989   2338939   2337072   2335519  
  9050.000000   2334446   2333967   2334124   2334797   2335777  
  9040.000000   2336784   2337612   2338171   2338528   2338846  
  9030.000000   2339292   2339928   2340648   2341197   2341256  
  9020.000000   2340583   2339091   2336912   2334345   2331758  
  9010.000000   2329456   2327568   2326032   2324652   2323216  
  9000.000000   2321612   2319894   2318274   2317041   2316423  
  8990.000000   2316506   2317159   2318115   2319050   2319728  
  8980.000000   2320075   2320188   2320281   2320559   2321120  
  8970.000000   2321866   2322541   2322785   2322295   2320883  
  8960.000000   2318576   2315584   2312261   2309005   2306159  
  8950.000000   2303982   2302605   2302071   2302304   2303176  
  8940.000000   2304482   2305993   2307458   2308656   2309438  
  8930.000000   2309731   2309572   2309034   2308249   2307292  
  8920.000000   2306219   2305017   2303672   2302194   2300641  
  8910.000000   2299148   2297876   2297025   2296732   2297084  
  8900.000000   2298038   2299463   2301131   2302766   2304102  
  8890.000000   2304897   2305017   2304398   2303103   2301262  
  8880.000000   2299093   2296817   2294655   2292792   2291393  
  8870.000000   2290582   2290442   2291001   2292223   2293985  
  8860.000000   2296059   2298142   2299896   2301055   2301496  
  8850.000000   2301300   2300745   2300245   2300223   2300986  
  8840.000000   2302602   2304879   2307385   2309604   2311046  
  8830.000000   2311409   2310623   2308879   2306543   2304036  
  8820.000000   2301701   2299710   2298062   2296604   2295129  
  8810.000000   2293461   2291525   2289398   2287253   2285359  
  8800.000000   2283958   2283265   2283387   2284320   2285950  
  8790.000000   2288037   2290285   2292321   2293802   2294419  
  8780.000000   2294024   2292607   2290364   2287625   2284827  
  8770.000000   2282415   2280753   2280079   2280435   2281726  
  8760.000000   2283696   2286049   2288432   2290544   2292136  
  8750.000000   2293051   2293242   2292724   2291605   2289979  
  8740.000000   2287982   2285694   2283205   2280591   2277960  
  8730.000000   2275495   2273406   2271962   2271361   2271756  
  8720.000000   2273136   2275373   2278195   2281239   2284120  
  8710.000000   2286445   2287909   2288265   2287430   2285446  
  8700.000000   2282565   2279175   2275788   2272917   2270989  
  8690.000000   2270236   2270633   2271941   2273767   2275712  
  8680.000000   2277451   2278818   2279792   2280458   2280926  
  8670.000000   2281276   2281551   2281764   2281967   2282234  
  8660.000000   2282691   2283424   2284452   2285660   2286826  
  8650.000000   2287676   2287977   2287633   2286709   2285435  
  8640.000000   2284128   2283110   2282630   2282819   2283686  
  8630.000000   2285134   2286982   2288991   2290901   2292463  
  8620.000000   2293484   2293875   2293698   2293157   2292573  
  8610.000000   2292272   2292498   2293322   2294628   2296169  
  8600.000000   2297655   2298878   2299769   2300417   2300994  
  8590.000000   2301669   2302516   2303480   2304405   2305101  
  8580.000000   2305428   2305362   2304990   2304495   2304062  
  8570.000000   2303861   2303982   2304455   2305238   2306251  
  8560.000000   2307377   2308455   2309292   2309678   2309447  
  8550.000000   2308512   2306929   2304895   2302736   2300821  
  8540.000000   2299475   2298913   2299191   2300229   2301817  
  8530.000000   2303711   2305671   2307523   2309144   2310478  
  8520.000000   2311505   2312235   2312690   2312894   2312882  
  8510.000000   2312682   2312334   2311865   2311315   2310711  
  8500.000000   2310087   2309463   2308850   2308239   2307608  
  8490.000000   2306942   2306249   2305587   2305052   2304789  
  8480.000000   2304940   2305620   2306868   2308636   2310804  
  8470.000000   2313180   2315545   2317665   2319348   2320435  
  8460.000000   2320844   2320572   2319739   2318560   2317321  
  8450.000000   2316329   2315834   2315981   2316737   2317936  
  8440.000000   2319297   2320548   2321471   2321988   2322144  
  8430.000000   2322075   2321923   2321767   2321585   2321274  
  8420.000000   2320713   2319822   2318627   2317266   2315960  
  8410.000000   2314934   2314329   2314161   2314300   2314533  
  8400.000000   2314610   2314352   2313694   2312717   2311615  
  8390.000000   2310640   2310025   2309907   2310290   2311029  
  8380.000000   2311870   2312514   2312699   2312273   2311250  
  8370.000000   2309806   2308239   2306874   2305963   2305601  
  8360.000000   2305703   2306024   2306238   2306063   2305358  
  8350.000000   2304182   2302758   2301405   2300404   2299921  
  8340.000000   2299937   2300283   2300712   2301000   2301033  
  8330.000000   2300815   2300443   2300018   2299583   2299090  
  8320.000000   2298431   2297495   2296260   2294831   2293430  
  8310.000000   2292326   2291717   2291674   2292086   2292738  
  8300.000000   2293368   2293792   2293952   2293911   2293798  
  8290.000000   2293704   2293635   2293485   2293091   2292314  
  8280.000000   2291118   2289614   2288022   2286613   2285587  
  8270.000000   2285039   2284909   2285045   2285250   2285347  
  8260.000000   2285221   2284806   2284073   2282993   2281542  
  8250.000000   2279714   2277567   2275249   2272994   2271076  
  8240.000000   2269740   2269125   2269219   2269863   2270784  
  8230.000000   2271678   2272271   2272395   2271996   2271144  
  8220.000000   2269983   2268704   2267492   2266499   2265813  
  8210.000000   2265445   2265316   2265272   2265114   2264637  
  8200.000000   2263677   2262156   2260083   2257575   2254805  
  8190.000000   2251997   2249368   2247123   2245413   2244325  
  8180.000000   2243851   2243882   2244202   2244528   2244544  
  8170.000000   2243984   2242692   2240685   2238152   2235420  
  8160.000000   2232856   2230776   2229348   2228563   2228238  
  8150.000000   2228080   2227777   2227073   2225838   2224066  
  8140.000000   2221861   2219362   2216718   2214032   2211378  
  8130.000000   2208805   2206376   2204187   2202361   2201049  
  8120.000000   2200363   2200355   2200962   2202005   2203211  
  8110.000000   2204250   2204831   2204723   2203844   2202219  
  8100.000000   2200017   2197464   2194832   2192368   2190281  
  8090.000000   2188712   2187721   2187305   2187373   2187794  
  8080.000000   2188385   2188966   2189368   2189477   2189239  
  8070.000000   2188657   2187785   2186691   2185448   2184119  
  8060.000000   2182763   2181442   2180227   2179193   2178395  
  8050.000000   2177848   2177491   2177202   2176795   2176087  
  8040.000000   2174935   2173294   2171244   2168962   2166699  
  8030.000000   2164693   2163118   2162022   2161329   2160864  
  8020.000000   2160418   2159826   2159026   2158081   2157158  
  8010.000000   2156467   2156173   2156335   2156867   2157563  
  8000.000000   2158166   2158451   2158306   2157756   2156944  
  7990.000000   2156066   2155281   2154656   2154146   2153623  
  7980.000000   2152947   2152026   2150863   2149538   2148171  
  7970.000000   2146864   2145652   2144508   2143364   2142178  
  7960.000000   2140965   2139822   2138896   2138329   2138201  
  7950.000000   2138490   2139071   2139749   2140313   2140589  
  7940.000000   2140484   2139992   2139189   2138201   2137175  
  7930.000000   2136250   2135521   2135030   2134744   2134566  
  7920.000000   2134354   2133966   2133305   2132346   2131154  
  7910.000000   2129849   2128565   2127394   2126372   2125467  
  7900.000000   2124637   2123861   2123185   2122704   2122535  
  7890.000000   2122751   2123337   2124172   2125071   2125836  
  7880.000000   2126337   2126539   2126513   2126387   2126282  
  7870.000000   2126266   2126330   2126416   2126458   2126434  
  7860.000000   2126374   2126345   2126404   2126551   2126701  
  7850.000000   2126706   2126392   2125645   2124445   2122905  
  7840.000000   2121240   2119713   2118556   2117912   2117775  
  7830.000000   2118016   2118390   2118631   2118502   2117880  
  7820.000000   2116776   2115339   2113809   2112437   2111412  
  7810.000000   2110795   2110500   2110332   2110057   2109498  
  7800.000000   2108597   2107445   2106241   2105219   2104548  
  7790.000000   2104276   2104305   2104434   2104436   2104141  
  7780.000000   2103492   2102553   2101481   2100460   2099631  
  7770.000000   2099061   2098718   2098506   2098291   2097950  
  7760.000000   2097404   2096632   2095668   2094589   2093486  
  7750.000000   2092440   2091497   2090649   2089849   2089015  
  7740.000000   2088073   2086985   2085772   2084521   2083358  
  7730.000000   2082418   2081795   2081518   2081536   2081732  
  7720.000000   2081954   2082053   2081917   2081490   2080780  
  7710.000000   2079847   2078788   2077713   2076728   2075912  
  7700.000000   2075304   2074898   2074645   2074470   2074291  
  7690.000000   2074040   2073669   2073148   2072455   2071571  
  7680.000000   2070477   2069170   2067691   2066136   2064659  
  7670.000000   2063438   2062620   2062276   2062359   2062715  
  7660.000000   2063123   2063365   2063298   2062886   2062209  
  7650.000000   2061408   2060637   2059997   2059523   2059185  
  7640.000000   2058922   2058679   2058425   2058159   2057891  
  7630.000000   2057628   2057354   2057046   2056674   2056222  
  7620.000000   2055689   2055081   2054398   2053630   2052768  
  7610.000000   2051813   2050805   2049816   2048946   2048273  
  7600.000000   2047826   2047558   2047359   2047094   2046660  
  7590.000000   2046032   2045284   2044569   2044069   2043927  
  7580.000000   2044200   2044839   2045709   2046632   2047438  
  7570.000000   2047997   2048248   2048193   2047890   2047434  
  7560.000000   2046938   2046513   2046255   2046205   2046350  
  7550.000000   2046599   2046817   2046853   2046604   2046051  
  7540.000000   2045276   2044443   2043746   2043361   2043383  
  7530.000000   2043815   2044572   2045515   2046505   2047430  
  7520.000000   2048225   2048855   2049312   2049582   2049664  
  7510.000000   2049562   2049312   2048976   2048655   2048450  
  7500.000000   2048455   2048719   2049239   2049960   2050796  
  7490.000000   2051655   2052457   2053155   2053745   2054254  
  7480.000000   2054744   2055275   2055907   2056661   2057529  
  7470.000000   2058455   2059366   2060179   2060843   2061345  
  7460.000000   2061729   2062075   2062481   2063025   2063742  
  7450.000000   2064611   2065577   2066558   2067492   2068343  
  7440.000000   2069123   2069876   2070666   2071547   2072556  
  7430.000000   2073699   2074959   2076304   2077700   2079123  
  7420.000000   2080562   2082020   2083506   2085021   2086557  
  7410.000000   2088083   2089553   2090903   2092074   2093024  
  7400.000000   2093749   2094290   2094728   2095169   2095719  
  7390.000000   2096461   2097420   2098573   2099844   2101146  
  7380.000000   2102389   2103528   2104564   2105545   2106545  
  7370.000000   2107621   2108804   2110062   2111324   2112479  
  7360.000000   2113434   2114136   2114604   2114935   2115274  
  7350.000000   2115796   2116647   2117912   2119580   2121553  
  7340.000000   2123677   2125776   2127693   2129314   2130584  
  7330.000000   2131498   2132094   2132436   2132617   2132744  
  7320.000000   2132923   2133259   2133830   2134689   2135835  
  7310.000000   2137230   2138788   2140411   2141988   2143431  
  7300.000000   2144670   2145668   2146411   2146911   2147207  
  7290.000000   2147360   2147455   2147583   2147828   2148254  
  7280.000000   2148880   2149688   2150611   2151570   2152474  
  7270.000000   2153259   2153889   2154361   2154708   2154967  
  7260.000000   2155187   2155389   2155592   2155787   2155976  
  7250.000000   2156161   2156374   2156662   2157100   2157764  
  7240.000000   2158720   2159992   2161567   2163372   2165322  
  7230.000000   2167306   2169252   2171099   2172839   2174469  
  7220.000000   2176019   2177507   2178969   2180441   2181998  
  7210.000000   2183719   2185706   2188026   2190706   2193686  
  7200.000000   2196848   2200021   2203055   2205842   2208370  
  7190.000000   2210701   2212969   2215306   2217826   2220559  
  7180.000000   2223483   2226509   2229547   2232509   2235357  
  7170.000000   2238080   2240711   2243294   2245894   2248568  
  7160.000000   2251379   2254366   2257564   2260959   2264525  
  7150.000000   2268191   2271892   2275555   2279164   2282722  
  7140.000000   2286297   2289952   2293767   2297766   2301961  
  7130.000000   2306315   2310808   2315406   2320122   2324968  
  7120.000000   2329988   2335201   2340625   2346233   2351993  
  7110.000000   2357837   2363712   2369549   2375321   2381001  
  7100.000000   2386615   2392194   2397804   2403486   2409277  
  7090.000000   2415163   2421112   2427067   2432993   2438885  
  7080.000000   2444788   2450780   2456947   2463342   2469964  
  7070.000000   2476739   2483557   2490289   2496844   2503177  
  7060.000000   2509310   2515298   2521217   2527134   2533098  
  7050.000000   2539141   2545280   2551525   2557875   2564314  
  7040.000000   2570798   2577265   2583643   2589875   2595930  
  7030.000000   2601816   2607572   2613254   2618908   2624567  
  7020.000000   2630242   2635938   2641653   2647400   2653181  
  7010.000000   2658999   2664822   2670608   2676289   2681818  
  7000.000000   2687159   2692324   2697332   2702226   2707024  
  6990.000000   2711734   2716330   2720793   2725096   2729241  
  6980.000000   2733225   2737063   2740751   2744294   2747691  
  6970.000000   2750975   2754189   2757412   2760700   2764090  
  6960.000000   2767552   2771023   2774397   2777603   2780604  
  6950.000000   2783446   2786207   2788995   2791875   2794858  
  6940.000000   2797881   2800841   2803615   2806117   2808295  
  6930.000000   2810164   2811764   2813181   2814497   2815814  
  6920.000000   2817208   2818754   2820472   2822343   2824283  
  6910.000000   2826179   2827906   2829383   2830581   2831552  
  6900.000000   2832387   2833196   2834060   2835014   2836043  
  6890.000000   2837113   2838190   2839264   2840333   2841402  
  6880.000000   2842450   2843436   2844297   2844999   2845544  
  6870.000000   2845999   2846468   2847060   2847835   2848785  
  6860.000000   2849827   2850843   2851721   2852404   2852900  
  6850.000000   2853283   2853643   2854059   2854563   2855147  
  6840.000000   2855769   2856392   2856984   2857540   2858057  
  6830.000000   2858532   2858946   2859278   2859506   2859638  
  6820.000000   2859697   2859739   2859811   2859951   2860162  
  6810.000000   2860423   2860687   2860906   2861032   2861029  
  6800.000000   2860867   2860534   2860029   2859380   2858639  
  6790.000000   2857887   2857203   2856658   2856277   2856041  
  6780.000000   2855887   2855739   2855528   2855220   2854818  
  6770.000000   2854348   2853841   2853305   2852733   2852100  
  6760.000000   2851392   2850617   2849816   2849052   2848388  
  6750.000000   2847872   2847515   2847309   2847218   2847211  
  6740.000000   2847255   2847321   2847374   2847370   2847257  
  6730.000000   2846987   2846534   2845909   2845159   2844359  
  6720.000000   2843585   2842896   2842311   2841820   2841379  
  6710.000000   2840948   2840483   2839967   2839389   2838757  
  6700.000000   2838076   2837364   2836637   2835922   2835236  
  6690.000000   2834594   2833984   2833376   2832713   2831938  
  6680.000000   2830999   2829884   2828608   2827226   2825806  
  6670.000000   2824419   2823109   2821901   2820786   2819744  
  6660.000000   2818738   2817738   2816715   2815652   2814531  
  6650.000000   2813346   2812090   2810758   2809342   2807836  
  6640.000000   2806235   2804541   2802765   2800936   2799091  
  6630.000000   2797276   2795526   2793867   2792299   2790815  
  6620.000000   2789388   2788003   2786643   2785300   2783962  
  6610.000000   2782610   2781211   2779728   2778130   2776405  
  6600.000000   2774566   2772653   2770713   2768791   2766913  
  6590.000000   2765087   2763305   2761565   2759870   2758237  
  6580.000000   2756677   2755193   2753761   2752339   2750873  
  6570.000000   2749321   2747673   2745949   2744200   2742479  
  6560.000000   2740831   2739265   2737767   2736296   2734818  
  6550.000000   2733306   2731761   2730200   2728653   2727149  
  6540.000000   2725713   2724357   2723087   2721899   2720782  
  6530.000000   2719712   2718661   2717592   2716477   2715298  
  6520.000000   2714053   2712755   2711427   2710087   2708749  
  6510.000000   2707415   2706086   2704769   2703479   2702241  
  6500.000000   2701079   2700011   2699031   2698118   2697236  
  6490.000000   2696351   2695436   2694476   2693470   2692419  
  6480.000000   2691321   2690173   2688975   2687734   2686475  
  6470.000000   2685231   2684036   2682915   2681872   2680893  
  6460.000000   2679950   2679017   2678076   2677118   2676145  
  6450.000000   2675152   2674134   2673072   2671957   2670786  
  6440.000000   2669586   2668396   2667271   2666257   2665390  
  6430.000000   2664674   2664100   2663643   2663276   2662974  
  6420.000000   2662714   2662471   2662222   2661938   2661607  
  6410.000000   2661225   2660811   2660386   2659974   2659580  
  6400.000000   2659197   2658801   2658375   2657917   2657451  
  6390.000000   2657016   2656650   2656369   2656159   2655975  
  6380.000000   2655759   2655467   2655085   2654635   2654164  
  6370.000000   2653722   2653335   2653003   2652694   2652370  
  6360.000000   2651998   2651571   2651099   2650600   2650086  
  6350.000000   2649552   2648976   2648341   2647635   2646874  
  6340.000000   2646083   2645300   2644546   2643827   2643125  
  6330.000000   2642419   2641685   2640920   2640127   2639322  
  6320.000000   2638508   2637678   2636808   2635875   2634859  
  6310.000000   2633764   2632609   2631427   2630244   2629079  
  6300.000000   2627927   2626777   2625611   2624424   2623212  
  6290.000000   2621983   2620737   2619469   2618159   2616791  
  6280.000000   2615349   2613840   2612289   2610738   2609229  
  6270.000000   2607800   2606464   2605214   2604010   2602808  
  6260.000000   2601551   2600197   2598716   2597107   2595384  
  6250.000000   2593583   2591741   2589892   2588054   2586233  
  6240.000000   2584421   2582609   2580794   2578987   2577203  
  6230.000000   2575462   2573765   2572100   2570437   2568743  
  6220.000000   2566994   2565189   2563349   2561512   2559717  
  6210.000000   2557984   2556317   2554701   2553115   2551549  
  6200.000000   2550009   2548513   2547081   2545721   2544423  
  6190.000000   2543156   2541887   2540587   2539244   2537861  
  6180.000000   2536451   2535022   2533576   2532107   2530615  
  6170.000000   2529108   2527609   2526152   2524765   2523457  
  6160.000000   2522211   2520989   2519749   2518460   2517118  
  6150.000000   2515741   2514362   2513003   2511672   2510346  
  6140.000000   2508998   2507599   2506146   2504659   2503182  
  6130.000000   2501760   2500426   2499190   2498040   2496954  
  6120.000000   2495913   2494906   2493934   2493001   2492113  
  6110.000000   2491263   2490446   2489649   2488876   2488127  
  6100.000000   2487417   2486746   2486114   2485503   2484898  
  6090.000000   2484283   2483666   2483062   2482505   2482019  
  6080.000000   2481628   2481331   2481126   2480999   2480951  
  6070.000000   2480979   2481097   2481302   2481592   2481939  
  6060.000000   2482326   2482723   2483130   2483551   2484020  
  6050.000000   2484560   2485199   2485942   2486788   2487716  
  6040.000000   2488710   2489748   2490820   2491912   2493021  
  6030.000000   2494139   2495276   2496446   2497679   2499000  
  6020.000000   2500436   2501984   2503627   2505314   2507002  
  6010.000000   2508642   2510222   2511750   2513265   2514807  
  6000.000000   2516418   2518115   2519905   2521773   2523711  
  5990.000000   2525704   2527753   2529852   2532005   2534199  
  5980.000000   2536433   2538697   2541000   2543351   2545776  
  5970.000000   2548290   2550910   2553626   2556435   2559313  
  5960.000000   2562254   2565243   2568287   2571377   2574515  
  5950.000000   2577682   2580865   2584042   2587209   2590362  
  5940.000000   2593519   2596697   2599920   2603205   2606566  
  5930.000000   2610014   2613544   2617149   2620797   2624441  
  5920.000000   2628016   2631449   2634679   2637668   2640413  
  5910.000000   2642944   2645314   2647582   2649797   2651995  
  5900.000000   2654193   2656411   2658666   2660990   2663406  
  5890.000000   2665941   2668586   2671322   2674101   2676874  
  5880.000000   2679595   2682233   2684772   2687201   2689515  
  5870.000000   2691701   2693750   2695660   2697451   2699158  
  5860.000000   2700839   2702551   2704340   2706234   2708238  
  5850.000000   2710342   2712531   2714790   2717108   2719473  
  5840.000000   2721873   2724291   2726714   2729134   2731559  
  5830.000000   2734005   2736495   2739036   2741623   2744221  
  5820.000000   2746789   2749287   2751693   2754014   2756277  
  5810.000000   2758527   2760794   2763102   2765440   2767807  
  5800.000000   2770172   2772546   2774914   2777303   2779690  
  5790.000000   2782073   2784387   2786582   2788552   2790216  
  5780.000000   2791455   2792184   2792298   2791748   2790503  
  5770.000000   2788616   2786179   2783363   2780339   2777298  
  5760.000000   2774366   2771642   2769140   2766864   2764779  
  5750.000000   2762873   2761125   2759535   2758088   2756762  
  5740.000000   2755526   2754337   2753173   2752012   2750864  
  5730.000000   2749728   2748623   2747542   2746486   2745443  
  5720.000000   2744422   2743427   2742488   2741619   2740840  
  5710.000000   2740148   2739540   2739006   2738550   2738178  
  5700.000000   2737907   2737740   2737666   2737655   2737660  
  5690.000000   2737645   2737581   2737478   2737352   2737242  
  5680.000000   2737158   2737098   2737021   2736873   2736582  
  5670.000000   2736093   2735352   2734333   2733013   2731394  
  5660.000000   2729486   2727333   2724996   2722568   2720141  
  5650.000000   2717805   2715611   2713583   2711697   2709921  
  5640.000000   2708210   2706540   2704896   2703284   2701711  
  5630.000000   2700181   2698696   2697253   2695853   2694495  
  5620.000000   2693186   2691916   2690675   2689437   2688181  
  5610.000000   2686889   2685574   2684261   2682996   2681819  
  5600.000000   2680757   2679807   2678947   2678142   2677360  
  5590.000000   2676585   2675811   2675045   2674290   2673539  
  5580.000000   2672777   2671986   2671153   2670275   2669360  
  5570.000000   2668416   2667448   2666451   2665412   2664321  
  5560.000000   2663175   2661982   2660759   2659524   2658284  
  5550.000000   2657036   2655769   2654475   2653156   2651830  
  5540.000000   2650522   2649258   2648048   2646892   2645773  
  5530.000000   2644676   2643594   2642532   2641501   2640511  
  5520.000000   2639556   2638612   2637646   2636625   2635535  
  5510.000000   2634380   2633184   2631978   2630780   2629598  
  5500.000000   2628420   2627234   2626029   2624811   2623589  
  5490.000000   2622379   2621175   2619962   2618704   2617374  
  5480.000000   2615952   2614444   2612867   2611254   2609620  
  5470.000000   2607974   2606300   2604586   2602817   2600999  
  5460.000000   2599142   2597263   2595365   2593443   2591482  
  5450.000000   2589471   2587412   2585331   2583264   2581250  
  5440.000000   2579312   2577454   2575663   2573919   2572213  
  5430.000000   2570540   2568905   2567304   2565726   2564140  
  5420.000000   2562534   2560897   2559269   2557706   2556293  
  5410.000000   2555082   2554098   2553303   2552645   2552052  
  5400.000000   2551497   2550971   2550521   2550187   2550017  
  5390.000000   2550008   2550152   2550399   2550740   2551162  
  5380.000000   2551708   2552404   2553297   2554377   2555640  
  5370.000000   2557030   2558534   2560110   2561791   2563569  
  5360.000000   2565500   2567573   2569832   2572261   2574919  
  5350.000000   2577817   2581050   2584643   2588685   2593160  
  5340.000000   2598108   2603470   2609280   2615483   2622132  
  5330.000000   2629175   2636660   2644510   2652764   2661358  
  5320.000000   2670379   2679824   2689847   2700473   2711851  
  5310.000000   2723952   2736855   2750463   2764821   2779841  
  5300.000000   2795608   2812097   2829445   2847657   2866868  
  5290.000000   2887041   2908228   2930296   2953190   2976715  
  5280.000000   3000807   3025343   3050377   3075927   3102139  
  5270.000000   3129054   3156718   3185005   3213742   3242680  
  5260.000000   3271616   3300432   3329115   3357745   3386387  
  5250.000000   3415078   3443703   3472100   3499978   3527158  
  5240.000000   3553443   3578868   3603444   3627367   3650697  
  5230.000000   3673579   3695945   3717790   3738921   3759288  
  5220.000000   3778734   3797319   3815015   3832000   3848305  
  5210.000000   3864095   3879314   3893992   3907949   3921144  
  5200.000000   3933409   3944804   3955298   3965069   3974150  
  5190.000000   3982695   3990658   3998092   4004879   4011046  
  5180.000000   4016513   4021370   4025592   4029288   4032414  
  5170.000000   4035030   4037060   4038548   4039447   4039840  
  5160.000000   4039719   4039175   4038182   4036795   4034960  
  5150.000000   4032723   4030054   4027025   4023631   4019942  
  5140.000000   4015937   4011655   4007069   4002225   3997134  
  5130.000000   3991874   3986478   3981012   3975472   3969872  
  5120.000000   3964171   3958368   3952443   3946427   3940337  
  5110.000000   3934212   3928062   3921899   3915708   3909494  
  5100.000000   3903257   3897026   3890827   3884700   3878660  
  5090.000000   3872713   3866839   3861015   3855206   3849388  
  5080.000000   3843537   3837641   3831688   3825680   3819617  
  5070.000000   3813518   3807398   3801283   3795183   3789101  
  5060.000000   3783016   3776903   3770724   3764461   3758100  
  5050.000000   3751656   3745145   3738592   3732004   3725383  
  5040.000000   3718710   3711973   3705154   3698257   3691293  
  5030.000000   3684287   3677267   3670261   3663295   3656384  
  5020.000000   3649548   3642793   3636135   3629573   3623122  
  5010.000000   3616775   3610549   3604441   3598477   3592659  
  5000.000000   3587018   3581550   3576280   3571190   3566304  
  4990.000000   3561604   3557125   3552861   3548856   3545101  
  4980.000000   3541631   3538420   3535493   3532819   3530436  
  4970.000000   3528329   3526556   3525107   3524039   3523322  
  4960.000000   3522990   3522999   3523380   3524097   3525202  
  4950.000000   3526674   3528573   3530869   3533601   3536718  
  4940.000000   3540240   3544110   3548352   3552917   3557836  
  4930.000000   3563063   3568627   3574480   3580649   3587098  
  4920.000000   3593864   3600923   3608312   3616005   3624027  
  4910.000000   3632341   3640957   3649837   3658981   3668349  
  4900.000000   3677926   3687666   3697537   3707495   3717510  
  4890.000000   3727560   3737623   3747688   3757718   3767683  
  4880.000000   3777510   3787146   3796500   3805529   3814157  
  4870.000000   3822373   3830125   3837425   3844238   3850593  
  4860.000000   3856467   3861909   3866915   3871544   3875797  
  4850.000000   3879733   3883346   3886688   3889752   3892589  
  4840.000000   3895200   3897634   3899896   3902031   3904043  
  4830.000000   3905976   3907840   3909677   3911501   3913342  
  4820.000000   3915202   3917090   3918994   3920910   3922829  
  4810.000000   3924753   3926684   3928626   3930585   3932558  
  4800.000000   3934549   3936555   3938587   3940655   3942774  
  4790.000000   3944959   3947214   3949535   3951910   3954324  
  4780.000000   3956761   3959214   3961678   3964151   3966619  
  4770.000000   3969068   3971465   3973784   3975994   3978085  
  4760.000000   3980051   3981910   3983673   3985362   3986979  
  4750.000000   3988530   3989996   3991376   3992649   3993818  
  4740.000000   3994875   3995833   3996687   3997454   3998132  
  4730.000000   3998730   3999245   3999681   4000030   4000290  
  4720.000000   4000456   4000530   4000518   4000438   4000316  
  4710.000000   4000184   4000077   4000029   4000070   4000222  
  4700.000000   4000504   4000926   4001498   4002221   4003098  
  4690.000000   4004123   4005293   4006592   4008005   4009501  
  4680.000000   4011049   4012598   4014109   4015525   4016821  
  4670.000000   4017967   4018977   4019869   4020698   4021515  
  4660.000000   4022387   4023364   4024499   4025821   4027362  
  4650.000000   4029130   4031132   4033356   4035783   4038380  
  4640.000000   4041106   4043921   4046787   4049673   4052550  
  4630.000000   4055395   4058178   4060867   4063421   4065806  
  4620.000000   4067985   4069941   4071658   4073140   4074384  
  4610.000000   4075408   4076207   4076808   4077216   4077475  
  4600.000000   4077611   4077684   4077720   4077767   4077822  
  4590.000000   4077892   4077937   4077936   4077833   4077605  
  4580.000000   4077210   4076638   4075868   4074911   4073762  
  4570.000000   4072447   4070974   4069373   4067653   4065842  
  4560.000000   4063939   4061961   4059906   4057786   4055602  
  4550.000000   4053368   4051084   4048759   4046387   4043966  
  4540.000000   4041490   4038961   4036388   4033788   4031189  
  4530.000000   4028612   4026083   4023609   4021204   4018854  
  4520.000000   4016573   4014344   4012198   4010129   4008193  
  4510.000000   4006398   4004826   4003501   4002528   4001937  
  4500.000000   4001843   4002262   4003290   4004905   4007171  
  4490.000000   4010037   4013555   4017672   4022455   4027865  
  4480.000000   4033985   4040779   4048324   4056571   4065577  
  4470.000000   4075275   4085694   4096748   4108443   4120680  
  4460.000000   4133448   4146645   4160250   4174167   4188370  
  4450.000000   4202774   4217353   4232044   4246830   4261675  
  4440.000000   4276571   4291495   4306420   4321319   4336137  
  4430.000000   4350842   4365366   4379698   4393776   4407609  
  4420.000000   4421129   4434337   4447135   4459500   4471307  
  4410.000000   4482523   4493030   4502815   4511793   4519992  
  4400.000000   4527372   4534002   4539890   4545140   4549798  
  4390.000000   4553996   4557802   4561355   4564725   4568027  
  4380.000000   4571307   4574639   4578038   4581541   4585154  
  4370.000000   4588906   4592819   4596929   4601273   4605884  
  4360.000000   4610785   4615985   4621466   4627206   4633134  
  4350.000000   4639215   4645350   4651537   4657708   4663935  
  4340.000000   4670211   4676623   4683103   4689551   4695622  
  4330.000000   4700868   4704653   4706375   4705510   4701835  
  4320.000000   4695457   4686885   4676883   4666392   4656266  
  4310.000000   4647210   4639597   4633559   4628949   4625535  
  4300.000000   4623019   4621174   4619834   4618901   4618333  
  4290.000000   4618075   4618111   4618372   4618859   4619527  
  4280.000000   4620405   4621488   4622798   4624340   4626104  
  4270.000000   4628087   4630251   4632561   4634900   4637110  
  4260.000000   4638918   4640012   4640041   4638729   4635909  
  4250.000000   4631613   4626045   4619584   4612667   4605756  
  4240.000000   4599203   4593267   4588033   4583499   4579552  
  4230.000000   4576067   4572895   4569913   4567022   4564146  
  4220.000000   4561264   4558360   4555501   4552742   4550217  
  4210.000000   4548006   4546229   4544910   4544076   4543659  
  4200.000000   4543602   4543794   4544169   4544644   4545204  
  4190.000000   4545821   4546532   4547338   4548293   4549384  
  4180.000000   4550648   4552046   4553594   4555249   4557043  
  4170.000000   4558971   4561112   4563507   4566269   4569444  
  4160.000000   4573123   4577307   4582036   4587262   4592994  
  4150.000000   4599167   4605787   4612789   4620187   4627918  
  4140.000000   4636009   4644408   4653165   4662250   4671730  
  4130.000000   4681579   4691855   4702518   4713607   4725083  
  4120.000000   4736987   4749307   4762109   4775403   4789257  
  4110.000000   4803666   4818659   4834177   4850186   4866576  
  4100.000000   4883269   4900143   4917130   4934151   4951186  
  4090.000000   4968222   4985283   5002392   5019574   5036856  
  4080.000000   5054235   5071729   5089305   5106963   5124627  
  4070.000000   5142250   5159696   5176882   5193652   5209948  
  4060.000000   5225665   5240820   5255365   5269359   5282760  
  4050.000000   5295632   5307923   5319710   5330947   5341725  
  4040.000000   5351982   5361783   5371019   5379719   5387756  
  4030.000000   5395167   5401849   5407854   5413094   5417599  
  4020.000000   5421249   5424079   5426047   5427234   5427610  
  4010.000000   5427328   5426478   5425111   5423051   5420382  
  4000.000000   5417405  
##END= 
