##TITLE= Sample 003 By ssteindl date Dienstag, November 20 2018
##JCAMP-DX= 4.24
##DATA TYPE= INFRARED SPECTRUM
##ORIGIN= Exported PE Spectrum Data File
##OWNER= Sandra Steindl
##DATE= 18/11/20
##TIME= 13:19:43.00
##SPECTROMETER/DATA SYSTEM= PERKIN-ELMER Frontier FT-IR/NIR IR
##INSTRUMENT PARAMETERS=
  APODIZATION=stark
  DETECTOR=INGAAS
##RESOLUTION= 16.000000
##DELTAX= -2.000000
##XUNITS= 1/CM
##YUNITS= A
##XFACTOR= 1.00
##YFACTOR= 0.00000011920928955078
##FIRSTX= 10000.00
##LASTX= 4000.00
##NPOINTS= 3001
##FIRSTY= 0.193197
##MAXY= 0.609865
##MINY= 0.168873
##XYDATA= (X++(Y..Y))
 10000.000000   1620651   1617515   1613894   1609770   1606369  
  9990.000000   1605065   1606044   1608425   1611239   1613860  
  9980.000000   1615929   1617363   1618532   1619905   1621773  
  9970.000000   1623994   1626134   1627540   1627581   1625906  
  9960.000000   1622612   1618328   1614039   1610943   1609950  
  9950.000000   1611529   1615337   1620418   1625390   1628904  
  9940.000000   1630051   1628520   1624645   1619088   1612585  
  9930.000000   1605610   1598349   1590786   1582991   1575364  
  9920.000000   1568688   1564008   1562193   1563644   1567963  
  9910.000000   1574115   1580666   1586261   1589981   1591450  
  9900.000000   1590856   1588622   1585345   1581499   1577578  
  9890.000000   1573957   1571038   1569067   1568125   1568021  
  9880.000000   1568339   1568633   1568565   1568191   1567866  
  9870.000000   1568236   1569834   1572897   1577162   1581962  
  9860.000000   1586487   1590031   1592240   1593056   1592636  
  9850.000000   1591092   1588435   1584568   1579506   1573529  
  9840.000000   1567304   1561727   1557689   1555699   1555743  
  9830.000000   1557255   1559389   1561339   1562602   1563144  
  9820.000000   1563254   1563447   1564172   1565824   1568652  
  9810.000000   1572889   1578676   1585987   1594427   1603107  
  9800.000000   1610696   1615645   1616655   1613056   1605155  
  9790.000000   1594129   1581773   1569889   1559841   1552268  
  9780.000000   1547097   1543893   1542083   1541362   1541588  
  9770.000000   1542855   1545173   1548454   1552436   1556745  
  9760.000000   1561055   1565003   1568329   1570637   1571573  
  9750.000000   1570768   1568141   1564011   1559188   1554856  
  9740.000000   1552195   1552053   1554558   1559120   1564544  
  9730.000000   1569484   1572803   1573925   1572865   1570126  
  9720.000000   1566408   1562369   1558499   1555104   1552413  
  9710.000000   1550605   1549818   1550035   1551006   1552249  
  9700.000000   1553159   1553237   1552281   1550480   1548346  
  9690.000000   1546495   1545414   1545278   1545935   1547039  
  9680.000000   1548236   1549362   1550489   1551862   1553707  
  9670.000000   1556042   1558593   1560814   1562091   1561914  
  9660.000000   1560094   1556787   1552480   1547843   1543561  
  9650.000000   1540246   1538260   1537766   1538629   1540550  
  9640.000000   1543060   1545660   1547877   1549335   1549811  
  9630.000000   1549191   1547498   1544786   1541204   1536940  
  9620.000000   1532302   1527720   1523694   1520760   1519292  
  9610.000000   1519491   1521226   1524154   1527712   1531293  
  9600.000000   1534307   1536257   1536811   1535751   1533095  
  9590.000000   1528995   1523864   1518208   1512663   1507766  
  9580.000000   1503914   1501256   1499722   1499139   1499303  
  9570.000000   1500148   1501664   1503921   1506893   1510430  
  9560.000000   1514250   1518003   1521426   1524347   1526737  
  9550.000000   1528569   1529770   1530149   1529497   1527710  
  9540.000000   1524954   1521709   1518668   1516520   1515650  
  9530.000000   1515983   1516940   1517681   1517412   1515744  
  9520.000000   1512849   1509406   1506312   1504332   1503815  
  9510.000000   1504626   1506268   1508155   1509837   1511137  
  9500.000000   1512114   1512929   1513697   1514407   1514943  
  9490.000000   1515163   1515003   1514482   1513671   1512595  
  9480.000000   1511199   1509376   1507057   1504339   1501515  
  9470.000000   1499037   1497349   1496703   1497021   1497890  
  9460.000000   1498706   1498904   1498175   1496568   1494453  
  9450.000000   1492354   1490760   1489991   1490134   1491098  
  9440.000000   1492659   1494558   1496519   1498278   1499596  
  9430.000000   1500269   1500201   1499403   1498036   1496304  
  9420.000000   1494399   1492373   1490165   1487659   1484839  
  9410.000000   1481915   1479301   1477549   1477081   1478057  
  9400.000000   1480242   1483103   1485977   1488298   1489762  
  9390.000000   1490333   1490171   1489447   1488274   1486650  
  9380.000000   1484617   1482319   1480125   1478504   1477846  
  9370.000000   1478236   1479310   1480418   1480823   1480106  
  9360.000000   1478328   1476105   1474378   1474026   1475472  
  9350.000000   1478411   1481912   1484717   1485752   1484450  
  9340.000000   1480963   1476024   1470715   1466114   1462996  
  9330.000000   1461700   1462098   1463788   1466211   1468853  
  9320.000000   1471255   1473121   1474310   1474891   1475081  
  9310.000000   1475128   1475222   1475326   1475241   1474559  
  9300.000000   1472894   1469980   1465891   1461074   1456260  
  9290.000000   1452249   1449670   1448826   1449662   1451834  
  9280.000000   1454797   1457975   1460836   1463038   1464402  
  9270.000000   1464972   1464984   1464884   1465251   1466593  
  9260.000000   1469125   1472563   1476142   1478775   1479406  
  9250.000000   1477355   1472618   1465940   1458610   1452035  
  9240.000000   1447235   1444583   1443749   1443955   1444318  
  9230.000000   1444232   1443571   1442640   1441936   1441850  
  9220.000000   1442450   1443452   1444371   1444757   1444449  
  9210.000000   1443595   1442642   1442105   1442425   1443750  
  9200.000000   1445911   1448449   1450798   1452403   1452890  
  9190.000000   1452087   1450115   1447355   1444412   1441979  
  9180.000000   1440648   1440805   1442476   1445380   1448928  
  9170.000000   1452499   1455547   1457838   1459387   1460436  
  9160.000000   1461255   1461962   1462470   1462452   1461540  
  9150.000000   1459400   1455911   1451190   1445596   1439663  
  9140.000000   1433968   1429104   1425551   1423696   1423686  
  9130.000000   1425412   1428423   1432034   1435447   1437933  
  9120.000000   1439022   1438615   1437047   1434885   1432772  
  9110.000000   1431150   1430239   1429949   1430034   1430199  
  9100.000000   1430252   1430150   1429930   1429678   1429424  
  9090.000000   1429175   1428918   1428686   1428577   1428697  
  9080.000000   1429104   1429709   1430293   1430540   1430191  
  9070.000000   1429151   1427589   1425874   1424466   1423708  
  9060.000000   1423715   1424320   1425170   1425889   1426231  
  9050.000000   1426207   1426039   1426086   1426672   1427973  
  9040.000000   1429957   1432400   1434975   1437321   1439126  
  9030.000000   1440147   1440240   1439376   1437666   1435391  
  9020.000000   1432984   1430957   1429768   1429674   1430615  
  9010.000000   1432219   1433892   1435017   1435156   1434210  
  9000.000000   1432451   1430403   1428640   1427591   1427410  
  8990.000000   1427961   1428907   1429881   1430636   1431123  
  8980.000000   1431459   1431850   1432452   1433294   1434234  
  8970.000000   1435004   1435330   1435004   1433994   1432420  
  8960.000000   1430551   1428701   1427128   1426010   1425368  
  8950.000000   1425156   1425251   1425569   1426072   1426790  
  8940.000000   1427777   1429036   1430466   1431812   1432728  
  8930.000000   1432828   1431874   1429809   1426876   1423530  
  8920.000000   1420372   1417964   1416672   1416608   1417604  
  8910.000000   1419342   1421438   1423615   1425739   1427817  
  8900.000000   1429911   1432025   1434074   1435825   1437016  
  8890.000000   1437388   1436856   1435493   1433566   1431457  
  8880.000000   1429571   1428275   1427787   1428212   1429500  
  8870.000000   1431517   1434020   1436715   1439259   1441325  
  8860.000000   1442630   1442997   1442404   1440997   1439099  
  8850.000000   1437112   1435463   1434458   1434244   1434745  
  8840.000000   1435697   1436720   1437421   1437526   1436950  
  8830.000000   1435849   1434570   1433570   1433276   1433963  
  8820.000000   1435674   1438180   1441066   1443821   1446018  
  8810.000000   1447396   1447935   1447813   1447339   1446833  
  8800.000000   1446550   1446623   1447090   1447910   1449027  
  8790.000000   1450383   1451918   1453555   1455173   1456632  
  8780.000000   1457790   1458564   1458961   1459088   1459138  
  8770.000000   1459306   1459753   1460512   1461512   1462582  
  8760.000000   1463525   1464178   1464457   1464397   1464140  
  8750.000000   1463916   1463992   1464633   1466032   1468260  
  8740.000000   1471210   1474604   1478019   1481003   1483189  
  8730.000000   1484403   1484734   1484495   1484142   1484086  
  8720.000000   1484576   1485577   1486826   1487927   1488539  
  8710.000000   1488519   1487995   1487342   1487027   1487472  
  8700.000000   1488877   1491197   1494140   1497303   1500291  
  8690.000000   1502832   1504839   1506358   1507533   1508495  
  8680.000000   1509351   1510133   1510839   1511429   1511885  
  8670.000000   1512197   1512402   1512566   1512799   1513245  
  8660.000000   1514049   1515342   1517177   1519522   1522243  
  8650.000000   1525134   1527972   1530578   1532874   1534879  
  8640.000000   1536692   1538411   1540109   1541774   1543342  
  8630.000000   1544714   1545819   1546653   1547283   1547850  
  8620.000000   1548501   1549388   1550601   1552190   1554132  
  8610.000000   1556361   1558745   1561104   1563228   1564917  
  8600.000000   1566053   1566623   1566762   1566700   1566711  
  8590.000000   1567008   1567676   1568656   1569793   1570933  
  8580.000000   1572001   1573062   1574279   1575846   1577855  
  8570.000000   1580242   1582764   1585090   1586916   1588089  
  8560.000000   1588673   1588909   1589115   1589554   1590333  
  8550.000000   1591378   1592478   1593399   1593992   1594253  
  8540.000000   1594311   1594363   1594575   1595021   1595659  
  8530.000000   1596376   1597058   1597648   1598179   1598743  
  8520.000000   1599450   1600361   1601466   1602687   1603918  
  8510.000000   1605066   1606095   1607021   1607904   1608801  
  8500.000000   1609752   1610748   1611757   1612726   1613620  
  8490.000000   1614421   1615152   1615847   1616558   1617341  
  8480.000000   1618255   1619365   1620717   1622347   1624252  
  8470.000000   1626403   1628722   1631103   1633420   1635556  
  8460.000000   1637412   1638918   1640047   1640798   1641219  
  8450.000000   1641370   1641328   1641169   1640963   1640773  
  8440.000000   1640653   1640671   1640907   1641459   1642409  
  8430.000000   1643807   1645621   1647741   1649961   1652052  
  8420.000000   1653812   1655148   1656090   1656793   1657470  
  8410.000000   1658306   1659377   1660614   1661819   1662745  
  8400.000000   1663175   1663012   1662297   1661208   1659976  
  8390.000000   1658825   1657903   1657263   1656878   1656667  
  8380.000000   1656543   1656424   1656260   1656011   1655663  
  8370.000000   1655229   1654772   1654408   1654295   1654592  
  8360.000000   1655413   1656788   1658629   1660761   1662965  
  8350.000000   1665046   1666884   1668442   1669747   1670822  
  8340.000000   1671649   1672143   1672191   1671696   1670650  
  8330.000000   1669181   1667548   1666094   1665129   1664865  
  8320.000000   1665324   1666364   1667695   1668986   1669942  
  8310.000000   1670397   1670341   1669906   1669306   1668772  
  8300.000000   1668494   1668565   1668975   1669609   1670300  
  8290.000000   1670863   1671158   1671106   1670702   1670010  
  8280.000000   1669130   1668184   1667285   1666526   1665979  
  8270.000000   1665703   1665744   1666132   1666847   1667820  
  8260.000000   1668913   1669957   1670774   1671234   1671298  
  8250.000000   1671021   1670552   1670054   1669650   1669373  
  8240.000000   1669149   1668853   1668354   1667609   1666682  
  8230.000000   1665770   1665120   1664955   1665352   1666207  
  8220.000000   1667232   1668040   1668258   1667638   1666148  
  8210.000000   1663988   1661544   1659280   1657585   1656689  
  8200.000000   1656586   1657083   1657844   1658523   1658846  
  8190.000000   1658698   1658114   1657248   1656276   1655322  
  8180.000000   1654403   1653434   1652267   1650769   1648878  
  8170.000000   1646659   1644289   1642031   1640127   1638748  
  8160.000000   1637907   1637479   1637226   1636868   1636170  
  8150.000000   1634985   1633305   1631231   1628945   1626653  
  8140.000000   1624538   1622733   1621308   1620283   1619631  
  8130.000000   1619294   1619177   1619168   1619131   1618932  
  8120.000000   1618456   1617630   1616449   1614960   1613264  
  8110.000000   1611464   1609656   1607879   1606140   1604405  
  8100.000000   1602646   1600860   1599089   1597416   1595937  
  8090.000000   1594737   1593855   1593284   1592981   1592890  
  8080.000000   1592968   1593188   1593539   1593995   1594502  
  8070.000000   1594962   1595258   1595274   1594949   1594284  
  8060.000000   1593359   1592297   1591225   1590234   1589344  
  8050.000000   1588526   1587710   1586853   1585935   1584999  
  8040.000000   1584097   1583284   1582565   1581906   1581224  
  8030.000000   1580441   1579503   1578411   1577209   1575965  
  8020.000000   1574738   1573548   1572386   1571214   1570010  
  8010.000000   1568770   1567531   1566341   1565247   1564264  
  8000.000000   1563378   1562549   1561746   1560963   1560235  
  7990.000000   1559627   1559213   1559045   1559127   1559419  
  7980.000000   1559835   1560275   1560643   1560863   1560888  
  7970.000000   1560691   1560262   1559597   1558711   1557624  
  7960.000000   1556387   1555050   1553686   1552350   1551091  
  7950.000000   1549937   1548894   1547968   1547158   1546484  
  7940.000000   1545975   1545679   1545648   1545922   1546513  
  7930.000000   1547380   1548424   1549488   1550389   1550946  
  7920.000000   1551048   1550668   1549900   1548915   1547931  
  7910.000000   1547123   1546588   1546303   1546153   1545986  
  7900.000000   1545674   1545178   1544557   1543953   1543527  
  7890.000000   1543403   1543611   1544085   1544679   1545216  
  7880.000000   1545547   1545582   1545312   1544796   1544140  
  7870.000000   1543463   1542875   1542455   1542234   1542198  
  7860.000000   1542278   1542385   1542409   1542277   1541957  
  7850.000000   1541487   1540949   1540448   1540065   1539816  
  7840.000000   1539647   1539437   1539051   1538373   1537363  
  7830.000000   1536066   1534602   1533148   1531876   1530942  
  7820.000000   1530431   1530368   1530699   1531318   1532070  
  7810.000000   1532785   1533304   1533502   1533319   1532755  
  7800.000000   1531871   1530747   1529471   1528103   1526689  
  7790.000000   1525268   1523894   1522656   1521650   1520970  
  7780.000000   1520641   1520622   1520772   1520920   1520897  
  7770.000000   1520612   1520072   1519367   1518634   1517968  
  7760.000000   1517394   1516835   1516162   1515241   1514013  
  7750.000000   1512522   1510912   1509381   1508109   1507207  
  7740.000000   1506681   1506453   1506393   1506365   1506268  
  7730.000000   1506037   1505649   1505100   1504401   1503577  
  7720.000000   1502678   1501775   1500962   1500319   1499898  
  7710.000000   1499689   1499629   1499614   1499535   1499310  
  7700.000000   1498908   1498352   1497701   1497030   1496404  
  7690.000000   1495872   1495460   1495180   1495033   1495009  
  7680.000000   1495081   1495201   1495307   1495324   1495190  
  7670.000000   1494861   1494331   1493615   1492758   1491808  
  7660.000000   1490825   1489871   1489022   1488364   1487978  
  7650.000000   1487928   1488222   1488805   1489560   1490322  
  7640.000000   1490933   1491265   1491275   1490983   1490487  
  7630.000000   1489898   1489330   1488853   1488501   1488283  
  7620.000000   1488197   1488254   1488467   1488851   1489391  
  7610.000000   1490040   1490705   1491277   1491653   1491760  
  7600.000000   1491587   1491160   1490551   1489822   1489039  
  7590.000000   1488232   1487435   1486681   1486040   1485607  
  7580.000000   1485498   1485813   1486605   1487855   1489465  
  7570.000000   1491279   1493128   1494854   1496370   1497638  
  7560.000000   1498690   1499566   1500319   1500974   1501553  
  7550.000000   1502074   1502583   1503148   1503856   1504780  
  7540.000000   1505952   1507338   1508838   1510308   1511602  
  7530.000000   1512613   1513316   1513759   1514060   1514353  
  7520.000000   1514767   1515383   1516239   1517331   1518637  
  7510.000000   1520127   1521780   1523569   1525468   1527418  
  7500.000000   1529353   1531188   1532868   1534361   1535698  
  7490.000000   1536948   1538222   1539624   1541243   1543110  
  7480.000000   1545210   1547469   1549800   1552108   1554332  
  7470.000000   1556439   1558438   1560359   1562246   1564130  
  7460.000000   1566038   1567987   1569999   1572099   1574326  
  7450.000000   1576713   1579280   1582011   1584857   1587725  
  7440.000000   1590516   1593136   1595536   1597709   1599707  
  7430.000000   1601612   1603535   1605578   1607825   1610329  
  7420.000000   1613103   1616120   1619311   1622575   1625788  
  7410.000000   1628835   1631632   1634150   1636427   1638552  
  7400.000000   1640639   1642788   1645055   1647438   1649893  
  7390.000000   1652358   1654791   1657186   1659567   1661973  
  7380.000000   1664421   1666890   1669318   1671633   1673791  
  7370.000000   1675801   1677745   1679741   1681913   1684338  
  7360.000000   1687017   1689873   1692779   1695605   1698259  
  7350.000000   1700709   1702984   1705148   1707276   1709424  
  7340.000000   1711625   1713893   1716237   1718669   1721197  
  7330.000000   1723822   1726515   1729237   1731918   1734511  
  7320.000000   1736980   1739336   1741599   1743803   1745952  
  7310.000000   1748027   1749966   1751710   1753204   1754446  
  7300.000000   1755470   1756360   1757193   1758047   1758940  
  7290.000000   1759860   1760745   1761538   1762184   1762669  
  7280.000000   1763012   1763264   1763486   1763733   1764038  
  7270.000000   1764405   1764819   1765254   1765696   1766143  
  7260.000000   1766626   1767191   1767900   1768802   1769935  
  7250.000000   1771301   1772885   1774633   1776487   1778363  
  7240.000000   1780191   1781888   1783412   1784729   1785870  
  7230.000000   1786891   1787914   1789064   1790478   1792231  
  7220.000000   1794347   1796761   1799369   1802026   1804624  
  7210.000000   1807089   1809440   1811733   1814080   1816563  
  7200.000000   1819248   1822135   1825212   1828430   1831781  
  7190.000000   1835255   1838888   1842693   1846687   1850833  
  7180.000000   1855089   1859377   1863656   1867890   1872100  
  7170.000000   1876299   1880534   1884804   1889119   1893439  
  7160.000000   1897755   1902055   1906379   1910782   1915358  
  7150.000000   1920185   1925339   1930840   1936682   1942795  
  7140.000000   1949101   1955487   1961877   1968194   1974427  
  7130.000000   1980569   1986669   1992760   1998908   2005143  
  7120.000000   2011508   2018009   2024664   2031469   2038436  
  7110.000000   2045564   2052861   2060316   2067921   2075642  
  7100.000000   2083453   2091308   2099187   2107059   2114924  
  7090.000000   2122771   2130622   2138484   2146386   2154334  
  7080.000000   2162346   2170407   2178504   2186600   2194671  
  7070.000000   2202700   2210704   2218722   2226814   2235033  
  7060.000000   2243411   2251938   2260571   2269242   2277885  
  7050.000000   2286453   2294930   2303321   2311634   2319868  
  7040.000000   2327998   2335990   2343805   2351436   2358904  
  7030.000000   2366268   2373592   2380945   2388353   2395833  
  7020.000000   2403351   2410883   2418376   2425799   2433092  
  7010.000000   2440201   2447050   2453586   2459771   2465629  
  7000.000000   2471221   2476655   2482024   2487408   2492808  
  6990.000000   2498198   2503498   2508665   2513663   2518534  
  6980.000000   2523319   2528095   2532883   2537688   2542450  
  6970.000000   2547112   2551599   2555878   2559923   2563744  
  6960.000000   2567343   2570743   2573948   2576993   2579903  
  6950.000000   2582726   2585485   2588202   2590848   2593394  
  6940.000000   2595782   2597997   2600039   2601964   2603828  
  6930.000000   2605705   2607626   2609605   2611610   2613608  
  6920.000000   2615555   2617429   2619207   2620879   2622432  
  6910.000000   2623858   2625161   2626364   2627506   2628639  
  6900.000000   2629798   2630995   2632209   2633410   2634571  
  6890.000000   2635701   2636845   2638075   2639446   2640969  
  6880.000000   2642588   2644191   2645652   2646872   2647820  
  6870.000000   2648541   2649137   2649721   2650377   2651136  
  6860.000000   2651983   2652883   2653810   2654769   2655781  
  6850.000000   2656876   2658051   2659273   2660472   2661582  
  6840.000000   2662560   2663410   2664171   2664899   2665630  
  6830.000000   2666371   2667089   2667751   2668332   2668855  
  6820.000000   2669371   2669955   2670651   2671461   2672327  
  6810.000000   2673155   2673842   2674318   2674559   2674600  
  6800.000000   2674507   2674368   2674256   2674229   2674313  
  6790.000000   2674522   2674837   2675235   2675664   2676071  
  6780.000000   2676396   2676596   2676646   2676549   2676322  
  6770.000000   2675991   2675570   2675065   2674471   2673799  
  6760.000000   2673074   2672353   2671699   2671181   2670828  
  6750.000000   2670634   2670543   2670484   2670376   2670165  
  6740.000000   2669828   2669376   2668836   2668243   2667620  
  6730.000000   2666980   2666317   2665626   2664888   2664091  
  6720.000000   2663218   2662261   2661216   2660097   2658925  
  6710.000000   2657739   2656567   2655437   2654349   2653295  
  6700.000000   2652247   2651187   2650100   2648988   2647853  
  6690.000000   2646701   2645524   2644305   2643021   2641657  
  6680.000000   2640209   2638697   2637148   2635597   2634070  
  6670.000000   2632588   2631151   2629758   2628393   2627041  
  6660.000000   2625675   2624264   2622770   2621170   2619451  
  6650.000000   2617632   2615751   2613863   2612007   2610206  
  6640.000000   2608440   2606675   2604860   2602966   2600983  
  6630.000000   2598938   2596869   2594821   2592815   2590856  
  6620.000000   2588926   2586999   2585051   2583069   2581047  
  6610.000000   2578985   2576890   2574776   2572665   2570589  
  6600.000000   2568581   2566668   2564853   2563109   2561392  
  6590.000000   2559650   2557852   2555995   2554112   2552244  
  6580.000000   2550423   2548651   2546896   2545109   2543255  
  6570.000000   2541336   2539401   2537534   2535819   2534304  
  6560.000000   2532981   2531786   2530628   2529418   2528107  
  6550.000000   2526685   2525187   2523650   2522109   2520574  
  6540.000000   2519051   2517550   2516103   2514763   2513585  
  6530.000000   2512602   2511804   2511137   2510513   2509845  
  6520.000000   2509071   2508169   2507158   2506073   2504952  
  6510.000000   2503809   2502649   2501461   2500242   2499002  
  6500.000000   2497762   2496546   2495366   2494229   2493131  
  6490.000000   2492077   2491073   2490137   2489279   2488486  
  6480.000000   2487723   2486928   2486042   2485023   2483870  
  6470.000000   2482623   2481345   2480101   2478937   2477865  
  6460.000000   2476872   2475937   2475043   2474182   2473357  
  6450.000000   2472562   2471779   2470976   2470123   2469207  
  6440.000000   2468244   2467279   2466366   2465543   2464815  
  6430.000000   2464144   2463469   2462728   2461888   2460949  
  6420.000000   2459949   2458932   2457934   2456965   2456012  
  6410.000000   2455061   2454107   2453165   2452268   2451445  
  6400.000000   2450708   2450039   2449399   2448743   2448041  
  6390.000000   2447286   2446491   2445681   2444870   2444061  
  6380.000000   2443245   2442415   2441578   2440763   2440004  
  6370.000000   2439331   2438743   2438209   2437672   2437077  
  6360.000000   2436391   2435619   2434799   2433984   2433217  
  6350.000000   2432513   2431857   2431217   2430560   2429873  
  6340.000000   2429158   2428430   2427695   2426947   2426161  
  6330.000000   2425309   2424369   2423343   2422247   2421111  
  6320.000000   2419956   2418796   2417621   2416430   2415223  
  6310.000000   2414026   2412868   2411785   2410780   2409831  
  6300.000000   2408869   2407820   2406604   2405182   2403543  
  6290.000000   2401719   2399751   2397689   2395557   2393379  
  6280.000000   2391152   2388886   2386581   2384254   2381906  
  6270.000000   2379551   2377180   2374794   2372382   2369945  
  6260.000000   2367475   2364970   2362415   2359798   2357104  
  6250.000000   2354339   2351520   2348692   2345898   2343181  
  6240.000000   2340546   2337978   2335430   2332853   2330211  
  6230.000000   2327496   2324726   2321935   2319153   2316389  
  6220.000000   2313628   2310838   2307984   2305054   2302062  
  6210.000000   2299055   2296094   2293238   2290526   2287967  
  6200.000000   2285534   2283177   2280833   2278442   2275961  
  6190.000000   2273374   2270693   2267951   2265203   2262499  
  6180.000000   2259884   2257377   2254979   2252669   2250422  
  6170.000000   2248210   2246018   2243836   2241664   2239503  
  6160.000000   2237350   2235202   2233062   2230936   2228842  
  6150.000000   2226792   2224797   2222845   2220909   2218946  
  6140.000000   2216925   2214831   2212683   2210526   2208421  
  6130.000000   2206416   2204539   2202776   2201093   2199432  
  6120.000000   2197749   2196012   2194227   2192414   2190614  
  6110.000000   2188863   2187202   2185650   2184228   2182936  
  6100.000000   2181776   2180728   2179776   2178887   2178039  
  6090.000000   2177207   2176386   2175572   2174780   2174013  
  6080.000000   2173289   2172607   2171982   2171414   2170924  
  6070.000000   2170515   2170202   2169977   2169835   2169754  
  6060.000000   2169729   2169750   2169834   2169990   2170245  
  6050.000000   2170597   2171046   2171566   2172142   2172751  
  6040.000000   2173402   2174103   2174884   2175760   2176751  
  6030.000000   2177848   2179049   2180335   2181704   2183146  
  6020.000000   2184661   2186231   2187842   2189464   2191078  
  6010.000000   2192671   2194251   2195833   2197442   2199081  
  6000.000000   2200744   2202397   2204005   2205533   2206975  
  5990.000000   2208346   2209685   2211035   2212432   2213893  
  5980.000000   2215419   2216999   2218628   2220305   2222045  
  5970.000000   2223862   2225769   2227764   2229835   2231960  
  5960.000000   2234119   2236291   2238464   2240618   2242740  
  5950.000000   2244806   2246801   2248715   2250561   2252361  
  5940.000000   2254160   2255995   2257902   2259892   2261965  
  5930.000000   2264105   2266296   2268525   2270789   2273083  
  5920.000000   2275407   2277754   2280115   2282479   2284839  
  5910.000000   2287191   2289533   2291861   2294166   2296437  
  5900.000000   2298665   2300852   2303009   2305164   2307341  
  5890.000000   2309562   2311822   2314104   2316372   2318593  
  5880.000000   2320746   2322825   2324846   2326824   2328774  
  5870.000000   2330694   2332578   2334411   2336194   2337938  
  5860.000000   2339679   2341450   2343294   2345232   2347279  
  5850.000000   2349433   2351698   2354071   2356560   2359166  
  5840.000000   2361888   2364710   2367613   2370572   2373572  
  5830.000000   2376607   2379677   2382785   2385919   2389055  
  5820.000000   2392151   2395162   2398041   2400761   2403300  
  5810.000000   2405660   2407828   2409810   2411584   2413158  
  5800.000000   2414520   2415705   2416728   2417641   2418454  
  5790.000000   2419193   2419828   2420346   2420692   2420840  
  5780.000000   2420747   2420405   2419794   2418927   2417813  
  5770.000000   2416489   2414999   2413408   2411778   2410174  
  5760.000000   2408639   2407202   2405874   2404657   2403553  
  5750.000000   2402572   2401725   2401023   2400473   2400063  
  5740.000000   2399779   2399589   2399477   2399415   2399397  
  5730.000000   2399402   2399427   2399450   2399471   2399480  
  5720.000000   2399497   2399537   2399635   2399808   2400070  
  5710.000000   2400413   2400826   2401291   2401804   2402366  
  5700.000000   2402992   2403690   2404462   2405292   2406155  
  5690.000000   2407025   2407883   2408728   2409568   2410419  
  5680.000000   2411286   2412162   2413015   2413809   2414496  
  5670.000000   2415042   2415418   2415615   2415630   2415478  
  5660.000000   2415180   2414776   2414312   2413846   2413420  
  5650.000000   2413070   2412790   2412562   2412339   2412086  
  5640.000000   2411772   2411398   2410980   2410546   2410118  
  5630.000000   2409707   2409307   2408906   2408491   2408060  
  5620.000000   2407617   2407176   2406743   2406319   2405894  
  5610.000000   2405460   2405006   2404533   2404046   2403552  
  5600.000000   2403049   2402534   2401991   2401416   2400803  
  5590.000000   2400162   2399502   2398833   2398145   2397423  
  5580.000000   2396640   2395779   2394838   2393836   2392805  
  5570.000000   2391780   2390778   2389802   2388827   2387830  
  5560.000000   2386788   2385701   2384579   2383449   2382331  
  5550.000000   2381235   2380154   2379075   2377981   2376869  
  5540.000000   2375746   2374629   2373534   2372475   2371455  
  5530.000000   2370471   2369519   2368594   2367692   2366804  
  5520.000000   2365917   2365015   2364080   2363103   2362087  
  5510.000000   2361048   2360003   2358971   2357952   2356938  
  5500.000000   2355908   2354851   2353761   2352657   2351553  
  5490.000000   2350471   2349405   2348338   2347234   2346064  
  5480.000000   2344807   2343467   2342058   2340603   2339107  
  5470.000000   2337565   2335946   2334231   2332402   2330473  
  5460.000000   2328468   2326428   2324378   2322338   2320303  
  5450.000000   2318265   2316211   2314144   2312063   2309976  
  5440.000000   2307880   2305765   2303620   2301445   2299256  
  5430.000000   2297084   2294971   2292935   2290980   2289077  
  5420.000000   2287194   2285301   2283411   2281561   2279828  
  5410.000000   2278271   2276937   2275812   2274866   2274031  
  5400.000000   2273277   2272575   2271956   2271441   2271076  
  5390.000000   2270867   2270824   2270919   2271156   2271527  
  5380.000000   2272067   2272785   2273711   2274820   2276104  
  5370.000000   2277505   2279017   2280603   2282300   2284104  
  5360.000000   2286071   2288193   2290520   2293035   2295804  
  5350.000000   2298833   2302218   2305970   2310170   2314789  
  5340.000000   2319865   2325339   2331253   2337566   2344354  
  5330.000000   2351584   2359329   2367532   2376245   2385398  
  5320.000000   2395070   2405228   2415997   2427365   2439461  
  5310.000000   2452242   2465798   2480052   2495082   2510831  
  5300.000000   2527412   2544804   2563147   2582429   2602768  
  5290.000000   2624106   2646482   2669757   2693879   2718663  
  5280.000000   2744050   2769927   2796342   2823305   2850941  
  5270.000000   2879271   2908302   2937885   2967808   2997805  
  5260.000000   3027641   3057189   3086414   3115397   3144191  
  5250.000000   3172852   3201268   3229311   3256697   3283273  
  5240.000000   3308832   3333415   3357005   3379799   3401829  
  5230.000000   3423256   3444002   3464090   3483327   3501682  
  5220.000000   3518983   3535287   3550533   3564889   3578365  
  5210.000000   3591145   3603201   3614630   3625308   3635263  
  5200.000000   3644358   3652661   3660107   3666827   3672790  
  5190.000000   3678109   3682713   3686664   3689872   3692410  
  5180.000000   3694236   3695467   3696092   3696212   3695775  
  5170.000000   3694831   3693302   3691245   3688631   3685568  
  5160.000000   3682074   3678261   3674121   3669712   3664986  
  5150.000000   3659973   3654640   3649039   3643167   3637084  
  5140.000000   3630780   3624292   3617598   3610730   3603685  
  5130.000000   3596516   3589240   3581905   3574514   3567083  
  5120.000000   3559595   3552057   3544463   3536840   3529203  
  5110.000000   3521584   3513990   3506435   3498911   3491419  
  5100.000000   3483955   3476529   3469143   3461806   3454509  
  5090.000000   3447245   3439996   3432756   3425519   3418296  
  5080.000000   3411097   3403934   3396806   3389709   3382621  
  5070.000000   3375528   3368410   3361261   3354077   3346862  
  5060.000000   3339617   3332347   3325053   3317739   3310408  
  5050.000000   3303070   3295729   3288392   3281061   3273737  
  5040.000000   3266420   3259113   3251827   3244571   3237359  
  5030.000000   3230196   3223088   3216029   3209024   3202068  
  5020.000000   3195181   3188370   3181663   3175067   3168605  
  5010.000000   3162265   3156065   3149995   3144089   3138353  
  5000.000000   3132840   3127561   3122562   3117827   3113380  
  4990.000000   3109183   3105257   3101577   3098190   3095088  
  4980.000000   3092331   3089908   3087865   3086167   3084849  
  4970.000000   3083871   3083277   3083040   3083212   3083768  
  4960.000000   3084749   3086114   3087891   3090030   3092560  
  4950.000000   3095435   3098690   3102278   3106230   3110497  
  4940.000000   3115105   3120010   3125246   3130783   3136662  
  4930.000000   3142857   3149400   3156255   3163440   3170908  
  4920.000000   3178669   3186671   3194915   3203349   3211976  
  4910.000000   3220757   3229707   3238816   3248116   3257610  
  4900.000000   3267321   3277233   3287334   3297581   3307939  
  4890.000000   3318362   3328818   3339278   3349718   3360118  
  4880.000000   3370449   3380687   3390799   3400767   3410562  
  4870.000000   3420179   3429597   3438819   3447831   3456645  
  4860.000000   3465253   3473680   3481921   3490009   3497934  
  4850.000000   3505725   3513368   3520889   3528279   3535568  
  4840.000000   3542741   3549820   3556774   3563602   3570259  
  4830.000000   3576740   3583012   3589089   3594959   3600651  
  4820.000000   3606155   3611492   3616639   3621607   3626373  
  4810.000000   3630954   3635335   3639537   3643548   3647383  
  4800.000000   3651028   3654506   3657814   3660993   3664057  
  4790.000000   3667048   3669967   3672830   3675607   3678292  
  4780.000000   3680848   3683280   3685571   3687748   3689807  
  4770.000000   3691776   3693637   3695398   3697024   3698510  
  4760.000000   3699816   3700941   3701853   3702559   3703036  
  4750.000000   3703299   3703336   3703175   3702808   3702263  
  4740.000000   3701530   3700629   3699540   3698283   3696845  
  4730.000000   3695256   3693515   3691653   3689666   3687569  
  4720.000000   3685345   3682997   3680507   3677892   3675161  
  4710.000000   3672355   3669501   3666643   3663795   3660979  
  4700.000000   3658183   3655402   3652612   3649803   3646957  
  4690.000000   3644072   3641146   3638188   3635210   3632224  
  4680.000000   3629244   3626274   3623314   3620352   3617376  
  4670.000000   3614367   3611326   3608253   3605179   3602137  
  4660.000000   3599181   3596350   3593690   3591218   3588953  
  4650.000000   3586886   3585016   3583322   3581797   3580420  
  4640.000000   3579182   3578060   3577043   3576109   3575249  
  4630.000000   3574441   3573677   3572934   3572201   3571456  
  4620.000000   3570691   3569891   3569059   3568194   3567305  
  4610.000000   3566398   3565481   3564558   3563637   3562729  
  4600.000000   3561850   3561014   3560235   3559519   3558860  
  4590.000000   3558246   3557662   3557095   3556538   3555991  
  4580.000000   3555461   3554949   3554451   3553958   3553453  
  4570.000000   3552923   3552363   3551775   3551169   3550556  
  4560.000000   3549937   3549306   3548644   3547930   3547148  
  4550.000000   3546287   3545360   3544382   3543384   3542389  
  4540.000000   3541427   3540510   3539661   3538883   3538199  
  4530.000000   3537607   3537134   3536774   3536560   3536488  
  4520.000000   3536606   3536915   3537478   3538292   3539420  
  4510.000000   3540847   3542632   3544754   3547291   3550233  
  4500.000000   3553680   3557635   3562197   3567359   3573205  
  4490.000000   3579706   3586932   3594842   3603492   3612825  
  4480.000000   3622868   3633539   3644837   3656663   3669010  
  4470.000000   3681790   3695001   3708570   3722495   3736706  
  4460.000000   3751184   3765856   3780691   3795616   3810593  
  4450.000000   3825554   3840454   3855242   3869880   3884353  
  4440.000000   3898649   3912795   3926794   3940694   3954481  
  4430.000000   3968186   3981755   3995197   4008422   4021429  
  4420.000000   4034106   4046448   4058324   4069717   4080474  
  4410.000000   4090558   4099801   4108160   4115479   4121743  
  4400.000000   4126845   4130835   4133688   4135527   4136406  
  4390.000000   4136492   4135880   4134741   4133167   4131308  
  4380.000000   4129247   4127114   4125003   4123047   4121362  
  4370.000000   4120077   4119306   4119137   4119637   4120814  
  4360.000000   4122670   4125139   4128174   4131675   4135576  
  4350.000000   4139782   4144241   4148895   4153731   4158739  
  4340.000000   4163943   4169348   4174947   4180671   4186396  
  4330.000000   4191929   4197041   4201503   4205135   4207864  
  4320.000000   4209728   4210901   4211621   4212184   4212822  
  4310.000000   4213735   4214978   4216567   4218396   4220380  
  4300.000000   4222382   4224329   4226129   4227746   4229124  
  4290.000000   4230239   4231051   4231551   4231727   4231607  
  4280.000000   4231216   4230621   4229865   4229032   4228162  
  4270.000000   4227327   4226538   4225821   4225128   4224409  
  4260.000000   4223548   4222443   4220971   4219061   4216674  
  4250.000000   4213848   4210660   4207245   4203735   4200271  
  4240.000000   4196950   4193844   4190967   4188316   4185845  
  4230.000000   4183510   4181245   4178993   4176695   4174298  
  4220.000000   4171766   4169071   4166217   4163223   4160142  
  4210.000000   4157031   4153970   4151017   4148234   4145646  
  4200.000000   4143274   4141101   4139120   4137289   4135596  
  4190.000000   4133995   4132485   4131027   4129645   4128316  
  4180.000000   4127094   4125977   4125047   4124323   4123907  
  4170.000000   4123832   4124212   4125082   4126550   4128628  
  4160.000000   4131394   4134812   4138918   4143635   4148976  
  4150.000000   4154850   4161280   4168189   4175621   4183520  
  4140.000000   4191950   4200868   4210352   4220364   4230974  
  4130.000000   4242136   4253898   4266198   4279066   4292436  
  4120.000000   4306335   4320706   4335576   4350891   4366666  
  4110.000000   4382843   4399424   4416350   4433619   4451173  
  4100.000000   4469002   4487045   4505280   4523648   4542131  
  4090.000000   4560694   4579338   4598061   4616877   4635809  
  4080.000000   4654868   4674077   4693427   4712927   4732530  
  4070.000000   4752216   4771899   4791541   4811043   4830385  
  4060.000000   4849479   4868327   4886836   4905001   4922696  
  4050.000000   4939913   4956524   4972557   4987915   5002664  
  4040.000000   5016702   5030076   5042639   5054406   5065215  
  4030.000000   5075103   5083940   5091792   5098550   5104270  
  4020.000000   5108812   5112245   5114523   5115764   5115918  
  4010.000000   5115181   5113651   5111395   5108185   5104151  
  4000.000000   5099702  
##END= 
