##TITLE= Sample 014 By ssteindl date Dienstag, November 20 2018
##JCAMP-DX= 4.24
##DATA TYPE= INFRARED SPECTRUM
##ORIGIN= Exported PE Spectrum Data File
##OWNER= Sandra Steindl
##DATE= 18/11/20
##TIME= 10:08:16.00
##SPECTROMETER/DATA SYSTEM= PERKIN-ELMER Frontier FT-IR/NIR IR
##INSTRUMENT PARAMETERS=
  APODIZATION=stark
  DETECTOR=INGAAS
##RESOLUTION= 16.000000
##DELTAX= -2.000000
##XUNITS= 1/CM
##YUNITS= A
##XFACTOR= 1.00
##YFACTOR= 0.00000011920928955078
##FIRSTX= 10000.00
##LASTX= 4000.00
##NPOINTS= 3001
##FIRSTY= 0.186035
##MAXY= 0.592622
##MINY= 0.162577
##XYDATA= (X++(Y..Y))
 10000.000000   1560578   1557300   1554537   1552880   1552309  
  9990.000000   1552268   1552325   1552090   1551158   1548961  
  9980.000000   1545141   1539579   1532509   1524629   1517051  
  9970.000000   1511211   1508362   1509369   1514320   1522545  
  9960.000000   1532742   1543285   1552601   1559334   1562564  
  9950.000000   1561724   1556750   1547979   1536355   1523290  
  9940.000000   1510671   1500427   1494168   1492694   1495724  
  9930.000000   1501982   1509493   1516280   1520856   1522710  
  9920.000000   1522283   1520715   1519370   1519318   1521108  
  9910.000000   1524618   1529317   1534398   1539130   1542909  
  9900.000000   1545386   1546424   1546069   1544566   1542257  
  9890.000000   1539604   1537035   1534898   1533381   1532529  
  9880.000000   1532302   1532675   1533607   1535083   1536908  
  9870.000000   1538757   1540104   1540457   1539562   1537563  
  9860.000000   1535078   1532917   1531825   1532039   1533187  
  9850.000000   1534347   1534437   1532716   1529095   1524321  
  9840.000000   1519652   1516512   1515888   1518084   1522585  
  9830.000000   1528324   1534017   1538497   1540956   1540935  
  9820.000000   1538370   1533445   1526681   1518826   1510884  
  9810.000000   1503880   1498679   1495713   1494872   1495598  
  9800.000000   1497106   1498803   1500437   1502251   1504652  
  9790.000000   1507982   1512136   1516554   1520396   1522897  
  9780.000000   1523743   1523134   1521710   1520125   1518767  
  9770.000000   1517489   1515759   1512902   1508527   1502743  
  9760.000000   1496186   1489779   1484368   1480485   1478208  
  9750.000000   1477367   1477694   1479092   1481571   1485173  
  9740.000000   1489715   1494692   1499364   1502932   1504929  
  9730.000000   1505251   1504323   1502667   1500812   1498884  
  9720.000000   1496715   1493953   1490380   1486239   1482190  
  9710.000000   1479317   1478602   1480758   1485822   1493281  
  9700.000000   1502102   1511055   1518884   1524483   1527034  
  9690.000000   1526058   1521576   1514113   1504749   1494911  
  9680.000000   1486112   1479555   1475790   1474623   1475150  
  9670.000000   1476224   1476721   1476058   1474158   1471488  
  9660.000000   1468709   1466400   1464900   1464163   1463994  
  9650.000000   1463988   1463825   1463118   1461586   1458999  
  9640.000000   1455340   1450918   1446404   1442797   1441142  
  9630.000000   1442230   1446282   1452794   1460647   1468380  
  9620.000000   1474612   1478385   1479369   1477829   1474490  
  9610.000000   1470253   1466052   1462661   1460655   1460330  
  9600.000000   1461602   1464033   1466777   1468901   1469569  
  9590.000000   1468483   1465959   1462913   1460472   1459490  
  9580.000000   1460143   1461755   1463071   1462728   1459870  
  9570.000000   1454528   1447651   1440796   1435532   1432925  
  9560.000000   1433194   1435733   1439435   1443065   1445688  
  9550.000000   1446761   1446202   1444180   1441072   1437339  
  9540.000000   1433593   1430510   1428795   1428951   1431142  
  9530.000000   1435065   1440012   1445124   1449628   1453153  
  9520.000000   1455726   1457715   1459544   1461442   1463346  
  9510.000000   1464887   1465633   1465251   1463690   1461161  
  9500.000000   1458030   1454695   1451463   1448597   1446294  
  9490.000000   1444801   1444273   1444766   1446046   1447662  
  9480.000000   1449004   1449583   1449191   1448050   1446681  
  9470.000000   1445686   1445424   1445804   1446329   1446264  
  9460.000000   1445054   1442502   1438920   1434909   1431086  
  9450.000000   1427795   1424969   1422277   1419381   1416270  
  9440.000000   1413384   1411512   1411427   1413496   1417402  
  9430.000000   1422214   1426684   1429698   1430667   1429652  
  9420.000000   1427319   1424554   1422176   1420588   1419779  
  9410.000000   1419401   1419033   1418369   1417302   1415923  
  9400.000000   1414405   1412965   1411777   1411024   1410842  
  9390.000000   1411325   1412437   1413967   1415530   1416646  
  9380.000000   1416903   1416112   1414412   1412252   1410241  
  9370.000000   1408904   1408488   1408854   1409573   1410081  
  9360.000000   1409934   1408938   1407208   1405085   1402968  
  9350.000000   1401190   1399906   1399145   1398846   1398958  
  9340.000000   1399467   1400390   1401725   1403391   1405186  
  9330.000000   1406807   1407912   1408225   1407619   1406145  
  9320.000000   1404045   1401675   1399476   1397823   1396963  
  9310.000000   1396897   1397399   1398064   1398434   1398138  
  9300.000000   1396999   1395138   1392937   1390987   1389861  
  9290.000000   1390001   1391534   1394289   1397824   1401563  
  9280.000000   1404937   1407484   1408944   1409220   1408381  
  9270.000000   1406540   1403857   1400463   1396538   1392298  
  9260.000000   1388076   1384281   1381360   1379718   1379567  
  9250.000000   1380903   1383389   1386513   1389661   1392355  
  9240.000000   1394364   1395746   1396789   1397840   1399148  
  9230.000000   1400685   1402162   1403117   1403165   1402145  
  9220.000000   1400209   1397780   1395365   1393403   1392057  
  9210.000000   1391252   1390714   1390172   1389434   1388480  
  9200.000000   1387372   1386197   1384957   1383582   1381996  
  9190.000000   1380202   1378353   1376677   1375403   1374578  
  9180.000000   1374049   1373455   1372438   1370788   1368629  
  9170.000000   1366375   1364606   1363794   1364125   1365411  
  9160.000000   1367220   1369072   1370670   1372002   1373300  
  9150.000000   1374868   1376876   1379245   1381668   1383765  
  9140.000000   1385272   1386157   1386592   1386824   1386995  
  9130.000000   1387042   1386729   1385796   1384163   1382016  
  9120.000000   1379776   1377895   1376645   1375974   1375512  
  9110.000000   1374770   1373381   1371391   1369277   1367815  
  9100.000000   1367711   1369367   1372667   1377033   1381591  
  9090.000000   1385490   1388177   1389458   1389481   1388520  
  9080.000000   1386887   1384782   1382322   1379572   1376654  
  9070.000000   1373764   1371153   1369052   1367599   1366854  
  9060.000000   1366786   1367353   1368453   1369975   1371750  
  9050.000000   1373547   1375109   1376210   1376799   1376992  
  9040.000000   1377065   1377314   1377931   1378897   1379973  
  9030.000000   1380816   1381145   1380899   1380275   1379637  
  9020.000000   1379331   1379512   1380042   1380543   1380558  
  9010.000000   1379774   1378179   1376074   1373957   1372328  
  9000.000000   1371516   1371585   1372351   1373505   1374752  
  8990.000000   1375912   1376909   1377739   1378386   1378828  
  8980.000000   1379036   1379048   1378984   1379043   1379418  
  8970.000000   1380189   1381249   1382300   1382945   1382830  
  8960.000000   1381770   1379842   1377361   1374757   1372438  
  8950.000000   1370660   1369498   1368848   1368515   1368287  
  8940.000000   1368016   1367652   1367230   1366864   1366698  
  8930.000000   1366895   1367576   1368806   1370567   1372714  
  8920.000000   1375042   1377268   1379158   1380516   1381241  
  8910.000000   1381302   1380751   1379686   1378263   1376713  
  8900.000000   1375360   1374582   1374704   1375914   1378136  
  8890.000000   1381022   1383973   1386353   1387682   1387828  
  8880.000000   1387025   1385791   1384712   1384222   1384442  
  8870.000000   1385156   1385955   1386404   1386258   1385508  
  8860.000000   1384367   1383116   1381959   1380951   1380012  
  8850.000000   1379039   1378015   1377097   1376584   1376809  
  8840.000000   1377969   1380038   1382724   1385594   1388185  
  8830.000000   1390165   1391416   1392013   1392181   1392122  
  8820.000000   1391968   1391687   1391186   1390313   1388998  
  8810.000000   1387243   1385193   1383076   1381168   1379752  
  8800.000000   1379044   1379203   1380276   1382234   1384954  
  8790.000000   1388267   1391984   1395898   1399821   1403539  
  8780.000000   1406852   1409517   1411340   1412176   1412055  
  8770.000000   1411179   1409936   1408814   1408277   1408654  
  8760.000000   1410017   1412200   1414831   1417479   1419744  
  8750.000000   1421374   1422276   1422502   1422198   1421546  
  8740.000000   1420762   1420065   1419687   1419828   1420598  
  8730.000000   1421987   1423829   1425876   1427843   1429553  
  8720.000000   1430979   1432259   1433614   1435193   1436986  
  8710.000000   1438741   1440084   1440617   1440147   1438760  
  8700.000000   1436861   1435044   1433889   1433797   1434847  
  8690.000000   1436843   1439388   1442082   1444634   1446930  
  8680.000000   1448998   1450901   1452670   1454228   1455447  
  8670.000000   1456185   1456395   1456153   1455670   1455230  
  8660.000000   1455105   1455499   1456498   1458087   1460150  
  8650.000000   1462500   1464897   1467058   1468712   1469632  
  8640.000000   1469728   1469075   1467962   1466836   1466208  
  8630.000000   1466497   1467903   1470340   1473472   1476820  
  8620.000000   1479913   1482412   1484214   1485424   1486296  
  8610.000000   1487095   1488012   1489103   1490318   1491560  
  8600.000000   1492768   1493973   1495302   1496939   1499027  
  8590.000000   1501625   1504630   1507817   1510850   1513402  
  8580.000000   1515235   1516264   1516569   1516364   1515934  
  8570.000000   1515553   1515406   1515551   1515928   1516405  
  8560.000000   1516849   1517175   1517389   1517573   1517847  
  8550.000000   1518323   1519051   1520027   1521209   1522562  
  8540.000000   1524091   1525868   1528009   1530618   1533708  
  8530.000000   1537164   1540753   1544147   1547020   1549111  
  8520.000000   1550339   1550763   1550586   1550052   1549416  
  8510.000000   1548867   1548517   1548426   1548631   1549201  
  8500.000000   1550185   1551658   1553618   1556027   1558737  
  8490.000000   1561561   1564282   1566717   1568748   1570302  
  8480.000000   1571367   1571926   1571994   1571572   1570714  
  8470.000000   1569527   1568216   1567052   1566316   1566238  
  8460.000000   1566913   1568292   1570151   1572202   1574152  
  8450.000000   1575814   1577136   1578201   1579179   1580230  
  8440.000000   1581449   1582799   1584150   1585312   1586124  
  8430.000000   1586515   1586535   1586358   1586215   1586340  
  8420.000000   1586869   1587822   1589079   1590434   1591648  
  8410.000000   1592505   1592876   1592737   1592173   1591337  
  8400.000000   1590391   1589487   1588731   1588204   1587946  
  8390.000000   1588002   1588414   1589239   1590481   1592090  
  8380.000000   1593899   1595670   1597109   1597950   1598034  
  8370.000000   1597354   1596085   1594506   1592929   1591594  
  8360.000000   1590604   1589919   1589384   1588833   1588157  
  8350.000000   1587377   1586609   1586040   1585817   1586000  
  8340.000000   1586514   1587172   1587752   1588054   1587978  
  8330.000000   1587522   1586786   1585906   1585024   1584237  
  8320.000000   1583602   1583144   1582865   1582766   1582827  
  8310.000000   1583018   1583280   1583546   1583751   1583862  
  8300.000000   1583879   1583834   1583759   1583666   1583526  
  8290.000000   1583278   1582864   1582254   1581485   1580652  
  8280.000000   1579880   1579276   1578879   1578652   1578485  
  8270.000000   1578256   1577865   1577290   1576579   1575840  
  8260.000000   1575175   1574657   1574287   1574015   1573756  
  8250.000000   1573432   1572982   1572370   1571576   1570578  
  8240.000000   1569357   1567891   1566196   1564314   1562339  
  8230.000000   1560378   1558538   1556896   1555483   1554311  
  8220.000000   1553371   1552688   1552294   1552245   1552574  
  8210.000000   1553266   1554218   1555247   1556114   1556568  
  8200.000000   1556419   1555560   1554007   1551884   1549405  
  8190.000000   1546829   1544403   1542329   1540701   1539524  
  8180.000000   1538684   1538022   1537349   1536528   1535489  
  8170.000000   1534248   1532880   1531464   1530045   1528596  
  8160.000000   1527047   1525307   1523344   1521209   1519049  
  8150.000000   1517077   1515499   1514460   1513985   1513984  
  8140.000000   1514274   1514634   1514856   1514770   1514272  
  8130.000000   1513308   1511888   1510074   1507998   1505844  
  8120.000000   1503837   1502188   1501034   1500400   1500166  
  8110.000000   1500125   1500033   1499709   1499072   1498169  
  8100.000000   1497126   1496077   1495111   1494216   1493314  
  8090.000000   1492288   1491067   1489651   1488125   1486620  
  8080.000000   1485257   1484121   1483229   1482572   1482120  
  8070.000000   1481861   1481789   1481885   1482088   1482272  
  8060.000000   1482278   1481943   1481177   1479988   1478506  
  8050.000000   1476927   1475463   1474267   1473408   1472865  
  8040.000000   1472569   1472451   1472460   1472583   1472799  
  8030.000000   1473070   1473315   1473429   1473328   1472972  
  8020.000000   1472410   1471731   1471050   1470422   1469826  
  8010.000000   1469167   1468330   1467258   1466007   1464766  
  8000.000000   1463797   1463367   1463616   1464525   1465884  
  7990.000000   1467365   1468620   1469379   1469528   1469101  
  7980.000000   1468252   1467163   1465994   1464834   1463718  
  7970.000000   1462662   1461702   1460923   1460428   1460310  
  7960.000000   1460585   1461172   1461887   1462490   1462761  
  7950.000000   1462546   1461821   1460666   1459256   1457788  
  7940.000000   1456440   1455344   1454575   1454176   1454167  
  7930.000000   1454554   1455313   1456370   1457582   1458745  
  7920.000000   1459629   1460034   1459863   1459139   1458035  
  7910.000000   1456795   1455688   1454910   1454551   1454574  
  7900.000000   1454859   1455265   1455686   1456089   1456502  
  7890.000000   1456988   1457588   1458298   1459057   1459769  
  7880.000000   1460354   1460769   1461043   1461249   1461481  
  7870.000000   1461802   1462222   1462688   1463104   1463369  
  7860.000000   1463410   1463216   1462827   1462335   1461840  
  7850.000000   1461442   1461203   1461150   1461274   1461532  
  7840.000000   1461859   1462175   1462395   1462443   1462267  
  7830.000000   1461863   1461277   1460614   1460009   1459602  
  7820.000000   1459495   1459723   1460229   1460892   1461542  
  7810.000000   1462025   1462237   1462160   1461857   1461443  
  7800.000000   1461042   1460727   1460503   1460293   1459977  
  7790.000000   1459440   1458620   1457545   1456324   1455135  
  7780.000000   1454157   1453540   1453350   1453574   1454113  
  7770.000000   1454818   1455520   1456050   1456276   1456108  
  7760.000000   1455525   1454568   1453354   1452045   1450831  
  7750.000000   1449881   1449308   1449140   1449311   1449700  
  7740.000000   1450151   1450537   1450779   1450864   1450821  
  7730.000000   1450704   1450559   1450401   1450225   1450004  
  7720.000000   1449716   1449343   1448890   1448364   1447784  
  7710.000000   1447172   1446554   1445971   1445470   1445108  
  7700.000000   1444928   1444949   1445148   1445468   1445826  
  7690.000000   1446135   1446329   1446378   1446291   1446106  
  7680.000000   1445878   1445657   1445487   1445388   1445365  
  7670.000000   1445400   1445459   1445495   1445459   1445318  
  7660.000000   1445069   1444752   1444444   1444237   1444208  
  7650.000000   1444387   1444742   1445186   1445603   1445891  
  7640.000000   1445987   1445898   1445686   1445448   1445284  
  7630.000000   1445259   1445394   1445653   1445971   1446257  
  7620.000000   1446427   1446405   1446147   1445641   1444921  
  7610.000000   1444066   1443195   1442447   1441945   1441769  
  7600.000000   1441932   1442385   1443035   1443779   1444540  
  7590.000000   1445270   1445961   1446611   1447213   1447728  
  7580.000000   1448109   1448307   1448327   1448226   1448129  
  7570.000000   1448181   1448507   1449153   1450067   1451100  
  7560.000000   1452063   1452784   1453169   1453227   1453080  
  7550.000000   1452916   1452940   1453310   1454097   1455272  
  7540.000000   1456724   1458294   1459818   1461163   1462255  
  7530.000000   1463084   1463705   1464209   1464707   1465282  
  7520.000000   1465989   1466816   1467706   1468561   1469286  
  7510.000000   1469817   1470156   1470377   1470614   1471025  
  7500.000000   1471748   1472854   1474321   1476037   1477839  
  7490.000000   1479560   1481087   1482388   1483525   1484624  
  7480.000000   1485833   1487255   1488927   1490791   1492735  
  7470.000000   1494604   1496271   1497651   1498731   1499554  
  7460.000000   1500206   1500790   1501414   1502174   1503150  
  7450.000000   1504391   1505912   1507686   1509644   1511680  
  7440.000000   1513686   1515569   1517295   1518878   1520387  
  7430.000000   1521898   1523483   1525167   1526944   1528773  
  7420.000000   1530625   1532496   1534421   1536456   1538648  
  7410.000000   1541011   1543506   1546054   1548551   1550901  
  7400.000000   1553048   1554971   1556685   1558220   1559609  
  7390.000000   1560888   1562105   1563323   1564624   1566091  
  7380.000000   1567781   1569696   1571763   1573858   1575836  
  7370.000000   1577588   1579074   1580342   1581508   1582714  
  7360.000000   1584076   1585645   1587393   1589232   1591050  
  7350.000000   1592754   1594297   1595692   1597001   1598313  
  7340.000000   1599704   1601226   1602890   1604674   1606525  
  7330.000000   1608377   1610168   1611844   1613380   1614774  
  7320.000000   1616052   1617250   1618408   1619553   1620700  
  7310.000000   1621857   1623031   1624249   1625549   1626983  
  7300.000000   1628587   1630371   1632293   1634268   1636182  
  7290.000000   1637922   1639412   1640631   1641619   1642459  
  7280.000000   1643255   1644102   1645070   1646186   1647442  
  7270.000000   1648792   1650177   1651530   1652801   1653964  
  7260.000000   1655035   1656061   1657123   1658304   1659674  
  7250.000000   1661254   1663027   1664920   1666847   1668718  
  7240.000000   1670485   1672132   1673699   1675239   1676824  
  7230.000000   1678498   1680301   1682243   1684339   1686585  
  7220.000000   1688987   1691530   1694202   1696973   1699820  
  7210.000000   1702716   1705665   1708664   1711736   1714876  
  7200.000000   1718079   1721305   1724521   1727691   1730815  
  7190.000000   1733912   1737041   1740254   1743607   1747114  
  7180.000000   1750766   1754515   1758309   1762080   1765784  
  7170.000000   1769375   1772844   1776190   1779452   1782679  
  7160.000000   1785949   1789330   1792890   1796654   1800628  
  7150.000000   1804772   1809049   1813405   1817816   1822259  
  7140.000000   1826741   1831252   1835800   1840370   1844977  
  7130.000000   1849631   1854387   1859294   1864411   1869747  
  7120.000000   1875281   1880933   1886616   1892247   1897802  
  7110.000000   1903303   1908830   1914459   1920254   1926204  
  7100.000000   1932258   1938305   1944247   1950002   1955553  
  7090.000000   1960929   1966203   1971462   1976789   1982253  
  7080.000000   1987899   1993747   1999797   2006013   2012336  
  7070.000000   2018676   2024941   2031048   2036952   2042645  
  7060.000000   2048165   2053571   2058930   2064295   2069707  
  7050.000000   2075191   2080762   2086438   2092222   2098120  
  7040.000000   2104106   2110149   2116196   2122202   2128126  
  7030.000000   2133946   2139649   2145225   2150651   2155896  
  7020.000000   2160931   2165743   2170344   2174788   2179142  
  7010.000000   2183491   2187890   2192378   2196953   2201612  
  7000.000000   2206328   2211092   2215877   2220655   2225362  
  6990.000000   2229929   2234271   2238344   2242140   2245726  
  6980.000000   2249200   2252685   2256263   2259965   2263742  
  6970.000000   2267506   2271138   2274548   2277680   2280545  
  6960.000000   2283179   2285658   2288045   2290409   2292788  
  6950.000000   2295218   2297704   2300249   2302827   2305416  
  6940.000000   2307975   2310481   2312913   2315273   2317556  
  6930.000000   2319763   2321875   2323864   2325700   2327371  
  6920.000000   2328891   2330310   2331694   2333112   2334599  
  6910.000000   2336160   2337756   2339338   2340857   2342293  
  6900.000000   2343656   2344983   2346312   2347679   2349089  
  6890.000000   2350533   2351985   2353422   2354823   2356176  
  6880.000000   2357473   2358705   2359864   2360943   2361941  
  6870.000000   2362868   2363738   2364571   2365387   2366203  
  6860.000000   2367032   2367893   2368799   2369765   2370789  
  6850.000000   2371859   2372942   2374001   2375002   2375930  
  6840.000000   2376794   2377619   2378421   2379199   2379917  
  6830.000000   2380519   2380949   2381185   2381253   2381235  
  6820.000000   2381242   2381387   2381734   2382296   2383018  
  6810.000000   2383814   2384590   2385279   2385843   2386283  
  6800.000000   2386615   2386859   2387033   2387147   2387212  
  6790.000000   2387243   2387259   2387276   2387299   2387326  
  6780.000000   2387348   2387364   2387378   2387413   2387485  
  6770.000000   2387602   2387749   2387887   2387973   2387973  
  6760.000000   2387883   2387731   2387570   2387450   2387403  
  6750.000000   2387428   2387500   2387588   2387671   2387758  
  6740.000000   2387876   2388060   2388328   2388671   2389053  
  6730.000000   2389425   2389746   2389999   2390195   2390358  
  6720.000000   2390508   2390646   2390751   2390793   2390747  
  6710.000000   2390619   2390438   2390257   2390122   2390058  
  6700.000000   2390049   2390050   2389991   2389814   2389477  
  6690.000000   2388980   2388353   2387656   2386954   2386317  
  6680.000000   2385788   2385397   2385138   2384984   2384883  
  6670.000000   2384780   2384622   2384371   2384010   2383541  
  6660.000000   2382967   2382298   2381530   2380661   2379696  
  6650.000000   2378662   2377602   2376583   2375662   2374877  
  6640.000000   2374222   2373657   2373108   2372508   2371799  
  6630.000000   2370962   2370004   2368955   2367845   2366702  
  6620.000000   2365542   2364381   2363235   2362124   2361059  
  6610.000000   2360042   2359047   2358032   2356946   2355756  
  6600.000000   2354454   2353069   2351645   2350233   2348857  
  6590.000000   2347517   2346188   2344842   2343464   2342067  
  6580.000000   2340681   2339345   2338078   2336870   2335683  
  6570.000000   2334467   2333180   2331805   2330358   2328875  
  6560.000000   2327402   2325969   2324590   2323259   2321964  
  6550.000000   2320695   2319449   2318229   2317040   2315880  
  6540.000000   2314745   2313629   2312535   2311477   2310476  
  6530.000000   2309549   2308699   2307908   2307139   2306348  
  6520.000000   2305498   2304575   2303590   2302573   2301564  
  6510.000000   2300597   2299690   2298845   2298048   2297280  
  6500.000000   2296516   2295736   2294922   2294064   2293156  
  6490.000000   2292206   2291225   2290231   2289237   2288250  
  6480.000000   2287262   2286260   2285229   2284167   2283085  
  6470.000000   2282008   2280960   2279960   2279005   2278073  
  6460.000000   2277135   2276161   2275139   2274070   2272973  
  6450.000000   2271866   2270762   2269660   2268557   2267450  
  6440.000000   2266354   2265298   2264324   2263469   2262757  
  6430.000000   2262186   2261738   2261376   2261068   2260784  
  6420.000000   2260511   2260238   2259963   2259678   2259382  
  6410.000000   2259073   2258763   2258462   2258183   2257925  
  6400.000000   2257679   2257418   2257124   2256786   2256421  
  6390.000000   2256066   2255772   2255580   2255513   2255559  
  6380.000000   2255682   2255833   2255964   2256044   2256060  
  6370.000000   2256013   2255913   2255770   2255590   2255386  
  6360.000000   2255168   2254957   2254765   2254602   2254458  
  6350.000000   2254315   2254146   2253935   2253675   2253380  
  6340.000000   2253065   2252745   2252413   2252050   2251624  
  6330.000000   2251116   2250521   2249864   2249184   2248527  
  6320.000000   2247921   2247372   2246858   2246349   2245814  
  6310.000000   2245239   2244623   2243979   2243317   2242644  
  6300.000000   2241952   2241235   2240488   2239718   2238931  
  6290.000000   2238137   2237326   2236483   2235577   2234588  
  6280.000000   2233507   2232354   2231164   2229981   2228835  
  6270.000000   2227738   2226673   2225612   2224519   2223379  
  6260.000000   2222187   2220963   2219727   2218500   2217289  
  6250.000000   2216095   2214909   2213725   2212541   2211360  
  6240.000000   2210187   2209024   2207869   2206721   2205574  
  6230.000000   2204426   2203273   2202109   2200923   2199705  
  6220.000000   2198445   2197143   2195812   2194476   2193166  
  6210.000000   2191906   2190711   2189577   2188494   2187444  
  6200.000000   2186423   2185433   2184489   2183606   2182791  
  6190.000000   2182037   2181325   2180627   2179922   2179193  
  6180.000000   2178435   2177648   2176837   2175999   2175133  
  6170.000000   2174238   2173321   2172394   2171478   2170588  
  6160.000000   2169734   2168912   2168107   2167301   2166476  
  6150.000000   2165624   2164745   2163846   2162936   2162023  
  6140.000000   2161112   2160207   2159317   2158447   2157604  
  6130.000000   2156784   2155979   2155170   2154339   2153470  
  6120.000000   2152565   2151637   2150715   2149825   2148994  
  6110.000000   2148235   2147556   2146957   2146440   2146006  
  6100.000000   2145662   2145399   2145209   2145060   2144921  
  6090.000000   2144753   2144534   2144255   2143933   2143592  
  6080.000000   2143271   2143002   2142815   2142724   2142740  
  6070.000000   2142855   2143065   2143348   2143689   2144059  
  6060.000000   2144447   2144836   2145234   2145644   2146091  
  6050.000000   2146586   2147153   2147797   2148537   2149377  
  6040.000000   2150335   2151418   2152638   2153986   2155456  
  6030.000000   2157017   2158650   2160325   2162035   2163772  
  6020.000000   2165548   2167365   2169236   2171153   2173120  
  6010.000000   2175124   2177171   2179251   2181374   2183530  
  6000.000000   2185724   2187942   2190190   2192469   2194804  
  5990.000000   2197215   2199742   2202402   2205217   2208182  
  5980.000000   2211297   2214545   2217922   2221415   2225024  
  5970.000000   2228728   2232520   2236366   2240251   2244152  
  5960.000000   2248072   2252011   2255994   2260023   2264111  
  5950.000000   2268242   2272406   2276583   2280766   2284957  
  5940.000000   2289170   2293422   2297728   2302094   2306518  
  5930.000000   2310992   2315498   2320017   2324517   2328963  
  5920.000000   2333304   2337492   2341480   2345249   2348798  
  5910.000000   2352159   2355370   2358482   2361521   2364509  
  5900.000000   2367445   2370335   2373180   2376010   2378847  
  5890.000000   2381725   2384649   2387618   2390593   2393537  
  5880.000000   2396401   2399152   2401763   2404224   2406532  
  5870.000000   2408689   2410711   2412622   2414468   2416303  
  5860.000000   2418188   2420168   2422264   2424469   2426752  
  5850.000000   2429079   2431423   2433778   2436159   2438590  
  5840.000000   2441094   2443674   2446320   2449005   2451708  
  5830.000000   2454409   2457105   2459792   2462471   2465125  
  5820.000000   2467737   2470283   2472754   2475157   2477520  
  5810.000000   2479883   2482278   2484729   2487226   2489761  
  5800.000000   2492292   2494814   2497299   2499763   2502184  
  5790.000000   2504567   2506856   2509010   2510928   2512529  
  5780.000000   2513698   2514353   2514407   2513831   2512617  
  5770.000000   2510834   2508579   2506013   2503290   2500575  
  5760.000000   2497974   2495566   2493358   2491349   2489497  
  5750.000000   2487792   2486208   2484749   2483405   2482165  
  5740.000000   2481006   2479891   2478795   2477684   2476551  
  5730.000000   2475383   2474189   2472969   2471740   2470513  
  5720.000000   2469320   2468190   2467157   2466241   2465450  
  5710.000000   2464768   2464168   2463614   2463081   2462555  
  5700.000000   2462034   2461523   2461023   2460533   2460042  
  5690.000000   2459545   2459037   2458530   2458026   2457538  
  5680.000000   2457047   2456536   2455957   2455272   2454431  
  5670.000000   2453412   2452184   2450736   2449046   2447107  
  5660.000000   2444907   2442469   2439830   2437067   2434266  
  5650.000000   2431518   2428890   2426427   2424135   2422002  
  5640.000000   2420000   2418100   2416274   2414498   2412750  
  5630.000000   2411008   2409266   2407524   2405812   2404160  
  5620.000000   2402614   2401195   2399914   2398743   2397647  
  5610.000000   2396582   2395524   2394464   2393421   2392414  
  5600.000000   2391464   2390575   2389739   2388938   2388163  
  5590.000000   2387410   2386683   2385989   2385325   2384673  
  5580.000000   2384009   2383303   2382539   2381716   2380846  
  5570.000000   2379949   2379039   2378119   2377180   2376212  
  5560.000000   2375209   2374175   2373123   2372073   2371032  
  5550.000000   2370004   2368979   2367953   2366925   2365909  
  5540.000000   2364925   2363990   2363106   2362256   2361409  
  5530.000000   2360532   2359599   2358611   2357582   2356540  
  5520.000000   2355509   2354499   2353507   2352521   2351525  
  5510.000000   2350512   2349477   2348423   2347342   2346226  
  5500.000000   2345057   2343828   2342542   2341221   2339895  
  5490.000000   2338594   2337330   2336098   2334871   2333624  
  5480.000000   2332334   2331004   2329648   2328291   2326944  
  5470.000000   2325606   2324253   2322859   2321398   2319865  
  5460.000000   2318268   2316628   2314961   2313275   2311566  
  5450.000000   2309824   2308046   2306239   2304424   2302626  
  5440.000000   2300867   2299158   2297501   2295893   2294340  
  5430.000000   2292850   2291445   2290131   2288912   2287768  
  5420.000000   2286684   2285639   2284644   2283712   2282885  
  5410.000000   2282179   2281606   2281132   2280726   2280338  
  5400.000000   2279960   2279594   2279294   2279102   2279079  
  5390.000000   2279236   2279584   2280088   2280738   2281513  
  5380.000000   2282433   2283502   2284751   2286163   2287742  
  5370.000000   2289442   2291263   2293172   2295200   2297344  
  5360.000000   2299661   2302152   2304873   2307821   2311062  
  5350.000000   2314595   2318493   2322741   2327389   2332381  
  5340.000000   2337738   2343393   2349394   2355714   2362445  
  5330.000000   2369580   2377211   2385301   2393906   2402964  
  5320.000000   2412537   2422585   2433212   2444406   2456289  
  5310.000000   2468834   2482132   2496116   2510851   2526264  
  5300.000000   2542429   2559298   2576973   2595425   2614755  
  5290.000000   2634913   2655940   2677717   2700205   2723236  
  5280.000000   2746766   2770692   2795064   2819893   2845301  
  5270.000000   2871308   2897941   2925079   2952570   2980203  
  5260.000000   3007811   3035300   3062659   3089953   3117229  
  5250.000000   3144518   3171724   3198728   3225306   3251330  
  5240.000000   3276649   3301291   3325248   3348659   3371533  
  5230.000000   3393965   3415872   3437247   3457935   3477916  
  5220.000000   3497072   3515474   3533096   3550089   3566463  
  5210.000000   3582353   3597702   3612549   3626746   3640282  
  5200.000000   3653023   3665028   3676257   3686845   3696784  
  5190.000000   3706184   3714979   3723212   3730784   3737743  
  5180.000000   3744035   3749759   3754890   3759517   3763575  
  5170.000000   3767103   3770017   3772367   3774120   3775383  
  5160.000000   3776165   3776565   3776554   3776172   3775348  
  5150.000000   3774109   3772415   3770335   3767869   3765096  
  5140.000000   3762002   3758626   3754934   3750961   3746701  
  5130.000000   3742222   3737549   3732753   3727838   3722833  
  5120.000000   3717713   3712489   3707153   3701743   3696281  
  5110.000000   3690815   3685361   3679938   3674539   3669163  
  5100.000000   3663806   3658476   3653178   3647922   3642700  
  5090.000000   3637500   3632300   3627088   3621862   3616638  
  5080.000000   3611439   3606291   3601206   3596186   3591207  
  5070.000000   3586249   3581276   3576273   3571217   3566106  
  5060.000000   3560924   3555669   3550321   3544877   3539317  
  5050.000000   3533640   3527835   3521906   3515845   3509664  
  5040.000000   3503362   3496965   3490487   3483960   3477396  
  5030.000000   3470815   3464212   3457585   3450921   3444219  
  5020.000000   3437482   3430726   3423972   3417244   3410565  
  5010.000000   3403948   3397416   3390979   3384665   3378489  
  5000.000000   3372483   3366650   3361006   3355530   3350223  
  4990.000000   3345052   3340029   3335135   3330403   3325831  
  4980.000000   3321456   3317274   3313321   3309585   3306109  
  4970.000000   3302884   3299962   3297329   3295025   3293012  
  4960.000000   3291304   3289850   3288665   3287714   3287047  
  4950.000000   3286660   3286623   3286934   3287648   3288730  
  4940.000000   3290210   3292034   3294224   3296736   3299610  
  4930.000000   3302813   3306393   3310319   3314629   3319285  
  4920.000000   3324318   3329688   3335427   3341501   3347943  
  4910.000000   3354724   3361870   3369347   3377160   3385260  
  4900.000000   3393629   3402209   3410966   3419853   3428837  
  4890.000000   3437887   3446969   3456051   3465079   3474006  
  4880.000000   3482749   3491257   3499443   3507272   3514667  
  4870.000000   3521616   3528052   3533978   3539338   3544155  
  4860.000000   3548395   3552104   3555271   3557958   3560161  
  4850.000000   3561945   3563312   3564332   3565021   3565460  
  4840.000000   3565682   3565766   3565741   3565669   3565569  
  4830.000000   3565482   3565420   3565414   3565472   3565606  
  4820.000000   3565816   3566096   3566439   3566838   3567302  
  4810.000000   3567839   3568473   3569217   3570088   3571081  
  4800.000000   3572193   3573401   3574696   3576056   3577482  
  4790.000000   3578963   3580506   3582103   3583755   3585451  
  4780.000000   3587189   3588961   3590763   3592588   3594423  
  4770.000000   3596250   3598046   3599790   3601464   3603061  
  4760.000000   3604581   3606037   3607437   3608795   3610116  
  4750.000000   3611406   3612660   3613881   3615064   3616212  
  4740.000000   3617319   3618385   3619404   3620375   3621296  
  4730.000000   3622169   3622997   3623781   3624519   3625205  
  4720.000000   3625837   3626409   3626935   3627428   3627925  
  4710.000000   3628454   3629056   3629751   3630568   3631515  
  4700.000000   3632614   3633876   3635329   3636991   3638889  
  4690.000000   3641026   3643405   3646000   3648790   3651727  
  4680.000000   3654782   3657906   3661073   3664236   3667375  
  4670.000000   3670447   3673445   3676348   3679175   3681937  
  4660.000000   3684680   3687438   3690270   3693214   3696320  
  4650.000000   3699614   3703121   3706840   3710761   3714854  
  4640.000000   3719082   3723407   3727794   3732222   3736677  
  4630.000000   3741154   3745638   3750112   3754538   3758873  
  4620.000000   3763059   3767051   3770800   3774286   3777485  
  4610.000000   3780404   3783035   3785404   3787514   3789408  
  4600.000000   3791102   3792651   3794071   3795407   3796651  
  4590.000000   3797816   3798860   3799774   3800510   3801062  
  4580.000000   3801398   3801533   3801459   3801204   3800773  
  4570.000000   3800202   3799505   3798719   3797855   3796943  
  4560.000000   3795979   3794971   3793899   3792757   3791525  
  4550.000000   3790209   3788810   3787350   3785847   3784325  
  4540.000000   3782798   3781277   3779768   3778267   3776777  
  4530.000000   3775294   3773823   3772358   3770914   3769489  
  4520.000000   3768113   3766793   3765579   3764481   3763556  
  4510.000000   3762803   3762274   3761955   3761904   3762116  
  4500.000000   3762677   3763603   3765003   3766894   3769370  
  4490.000000   3772416   3776093   3780356   3785247   3790715  
  4480.000000   3796811   3803493   3810816   3818738   3827300  
  4470.000000   3836438   3846162   3856383   3867084   3878164  
  4460.000000   3889596   3901282   3913192   3925242   3937409  
  4450.000000   3949624   3961878   3974134   3986399   3998668  
  4440.000000   4010964   4023302   4035694   4048156   4060675  
  4430.000000   4073252   4085843   4098432   4110950   4123368  
  4420.000000   4135596   4147597   4159273   4170587   4181440  
  4410.000000   4191799   4201576   4210749   4219255   4227104  
  4400.000000   4234279   4240842   4246834   4252369   4257528  
  4390.000000   4262451   4267225   4271977   4276767   4281672  
  4380.000000   4286700   4291873   4297155   4302538   4307988  
  4370.000000   4313514   4319112   4324814   4330625   4336559  
  4360.000000   4342585   4348678   4354761   4360797   4366695  
  4350.000000   4372442   4377952   4383249   4388262   4393052  
  4340.000000   4397574   4401897   4405945   4409672   4412827  
  4330.000000   4415120   4416085   4415297   4412359   4407122  
  4320.000000   4399676   4390450   4380077   4369347   4358982  
  4310.000000   4349585   4341489   4334823   4329490   4325308  
  4300.000000   4322049   4319521   4317588   4316145   4315144  
  4290.000000   4314507   4314217   4314210   4314505   4315084  
  4280.000000   4315998   4317253   4318864   4320801   4323011  
  4270.000000   4325426   4327951   4330489   4332894   4334988  
  4260.000000   4336527   4337246   4336871   4335211   4332187  
  4250.000000   4327896   4322576   4316609   4310397   4304348  
  4240.000000   4298742   4293771   4289455   4285742   4282482  
  4230.000000   4279528   4276723   4273951   4271132   4268222  
  4220.000000   4265229   4262174   4259138   4256186   4253432  
  4210.000000   4250938   4248785   4246984   4245545   4244418  
  4200.000000   4243564   4242909   4242416   4242027   4241733  
  4190.000000   4241501   4241348   4241254   4241253   4241332  
  4180.000000   4241535   4241857   4242352   4243024   4243936  
  4170.000000   4245098   4246581   4248392   4250598   4253193  
  4160.000000   4256223   4259660   4263531   4267789   4272455  
  4150.000000   4277475   4282875   4288605   4294695   4301100  
  4140.000000   4307862   4314946   4322404   4330208   4338412  
  4130.000000   4346982   4355960   4365306   4375054   4385173  
  4120.000000   4395709   4406648   4418051   4429918   4442302  
  4110.000000   4455191   4468608   4482507   4496862   4511581  
  4100.000000   4526598   4541798   4557108   4572442   4587764  
  4090.000000   4603050   4618309   4633559   4648814   4664099  
  4080.000000   4679402   4694736   4710058   4725365   4740582  
  4070.000000   4755676   4770529   4785088   4799220   4812889  
  4060.000000   4825991   4838537   4850458   4861794   4872490  
  4050.000000   4882602   4892088   4901031   4909405   4917302  
  4040.000000   4924678   4931593   4937965   4943831   4949107  
  4030.000000   4953850   4958002   4961631   4964684   4967196  
  4020.000000   4969082   4970382   4971084   4971270   4970935  
  4010.000000   4970207   4969156   4967788   4965916   4963561  
  4000.000000   4960954  
##END= 
