##TITLE= Sample 043 By ssteindl date Dienstag, November 20 2018
##JCAMP-DX= 4.24
##DATA TYPE= INFRARED SPECTRUM
##ORIGIN= Exported PE Spectrum Data File
##OWNER= Sandra Steindl
##DATE= 18/11/20
##TIME= 12:06:34.00
##SPECTROMETER/DATA SYSTEM= PERKIN-ELMER Frontier FT-IR/NIR IR
##INSTRUMENT PARAMETERS=
  APODIZATION=stark
  DETECTOR=INGAAS
##RESOLUTION= 16.000000
##DELTAX= -2.000000
##XUNITS= 1/CM
##YUNITS= A
##XFACTOR= 1.00
##YFACTOR= 0.00000011920928955078
##FIRSTX= 10000.00
##LASTX= 4000.00
##NPOINTS= 3001
##FIRSTY= 0.195098
##MAXY= 0.663704
##MINY= 0.169103
##XYDATA= (X++(Y..Y))
 10000.000000   1636596   1643360   1649582   1654088   1655758  
  9990.000000   1654084   1649249   1642067   1633638   1625135  
  9980.000000   1617505   1611422   1607188   1604877   1604305  
  9970.000000   1605201   1607042   1609225   1611017   1611865  
  9960.000000   1611529   1610285   1608891   1608281   1609228  
  9950.000000   1611829   1615475   1618856   1620582   1619605  
  9940.000000   1615756   1609766   1603043   1597152   1593251  
  9930.000000   1591814   1592575   1594882   1598030   1601614  
  9920.000000   1605498   1609718   1614158   1618453   1621994  
  9910.000000   1624179   1624694   1623651   1621570   1619088  
  9900.000000   1616697   1614532   1612384   1609947   1607029  
  9890.000000   1603810   1600712   1598274   1596772   1596088  
  9880.000000   1595675   1594813   1592935   1589868   1585932  
  9870.000000   1581715   1577824   1574577   1571965   1569744  
  9860.000000   1567701   1565831   1564408   1563835   1564437  
  9850.000000   1566227   1568863   1571732   1574174   1575713  
  9840.000000   1576187   1575737   1574730   1573543   1572542  
  9830.000000   1571942   1571913   1572497   1573620   1574991  
  9820.000000   1576093   1576311   1575136   1572480   1568815  
  9810.000000   1565184   1562876   1562991   1565974   1571377  
  9800.000000   1577946   1584034   1588146   1589444   1587965  
  9790.000000   1584546   1580459   1576958   1574900   1574571  
  9780.000000   1575727   1577775   1579984   1581677   1582335  
  9770.000000   1581696   1579777   1576914   1573680   1570779  
  9760.000000   1568827   1568136   1568596   1569665   1570599  
  9750.000000   1570755   1569868   1568233   1566522   1565567  
  9740.000000   1565917   1567667   1570390   1573360   1575831  
  9730.000000   1577287   1577543   1576677   1574880   1572286  
  9720.000000   1568967   1564953   1560429   1555734   1551407  
  9710.000000   1547913   1545503   1544017   1542964   1541780  
  9700.000000   1540096   1538065   1536279   1535667   1537027  
  9690.000000   1540767   1546657   1553928   1561473   1568173  
  9680.000000   1573126   1575770   1575908   1573599   1569170  
  9670.000000   1563092   1556065   1548846   1542204   1536646  
  9660.000000   1532284   1528795   1525534   1521908   1517627  
  9650.000000   1513034   1508993   1506686   1507078   1510506  
  9640.000000   1516453   1523630   1530459   1535515   1538080  
  9630.000000   1538185   1536593   1534317   1532294   1531036  
  9620.000000   1530604   1530730   1531063   1531378   1531658  
  9610.000000   1532068   1532782   1533901   1535306   1536741  
  9600.000000   1537837   1538288   1537910   1536718   1534869  
  9590.000000   1532644   1530349   1528328   1526878   1526246  
  9580.000000   1526545   1527684   1529342   1530975   1531919  
  9570.000000   1531537   1529397   1525419   1519971   1513822  
  9560.000000   1508014   1503588   1501312   1501450   1503653  
  9550.000000   1507087   1510644   1513338   1514538   1514201  
  9540.000000   1512758   1510968   1509554   1508965   1509218  
  9530.000000   1509900   1510432   1510206   1508906   1506445  
  9520.000000   1502987   1498728   1493837   1488426   1482655  
  9510.000000   1476871   1471650   1467762   1465937   1466654  
  9500.000000   1469878   1475069   1481254   1487349   1492459  
  9490.000000   1496078   1498184   1499027   1498991   1498310  
  9480.000000   1497064   1495185   1492628   1489497   1486097  
  9470.000000   1482932   1480510   1479255   1479277   1480409  
  9460.000000   1482172   1483943   1485087   1485069   1483615  
  9450.000000   1480675   1476517   1471590   1466516   1461918  
  9440.000000   1458345   1456164   1455543   1456466   1458778  
  9430.000000   1462261   1466632   1471575   1476699   1481548  
  9420.000000   1485661   1488626   1490255   1490593   1489979  
  9410.000000   1488883   1487785   1486995   1486583   1486427  
  9400.000000   1486308   1486096   1485793   1485579   1485626  
  9390.000000   1485998   1486494   1486738   1486294   1484916  
  9380.000000   1482643   1479845   1477077   1474911   1473735  
  9370.000000   1473635   1474410   1475643   1476892   1477757  
  9360.000000   1477964   1477321   1475718   1473146   1469772  
  9350.000000   1466027   1462588   1460268   1459758   1461405  
  9340.000000   1465017   1469893   1474971   1479162   1481646  
  9330.000000   1482106   1480751   1478152   1474993   1471824  
  9320.000000   1468963   1466478   1464315   1462383   1460662  
  9310.000000   1459164   1457894   1456805   1455748   1454558  
  9300.000000   1453070   1451269   1449290   1447433   1446079  
  9290.000000   1445563   1446101   1447707   1450184   1453128  
  9280.000000   1455986   1458152   1459137   1458690   1456914  
  9270.000000   1454228   1451274   1448722   1447073   1446468  
  9260.000000   1446665   1447139   1447360   1446984   1445992  
  9250.000000   1444643   1443316   1442325   1441772   1441559  
  9240.000000   1441494   1441456   1441520   1441956   1443117  
  9230.000000   1445206   1448127   1451443   1454543   1456842  
  9220.000000   1458001   1457995   1457085   1455675   1454137  
  9210.000000   1452730   1451564   1450740   1450379   1450698  
  9200.000000   1451835   1453761   1456125   1458330   1459671  
  9190.000000   1459590   1457887   1454810   1450982   1447133  
  9180.000000   1443827   1441284   1439393   1437871   1436456  
  9170.000000   1435097   1433951   1433297   1433317   1433969  
  9160.000000   1434950   1435804   1436135   1435728   1434670  
  9150.000000   1433190   1431601   1430075   1428677   1427363  
  9140.000000   1426124   1425063   1424402   1424430   1425334  
  9130.000000   1427120   1429544   1432234   1434798   1436985  
  9120.000000   1438728   1440080   1441144   1441912   1442277  
  9110.000000   1442025   1440983   1439131   1436666   1433969  
  9100.000000   1431472   1429579   1428549   1428504   1429377  
  9090.000000   1431012   1433131   1435407   1437429   1438788  
  9080.000000   1439171   1438457   1436829   1434702   1432651  
  9070.000000   1431156   1430465   1430467   1430765   1430864  
  9060.000000   1430396   1429323   1427933   1426750   1426262  
  9050.000000   1426758   1428182   1430178   1432224   1433838  
  9040.000000   1434737   1434855   1434291   1433194   1431716  
  9030.000000   1429964   1428052   1426137   1424458   1423249  
  9020.000000   1422655   1422627   1422929   1423197   1423089  
  9010.000000   1422447   1421393   1420272   1419524   1419478  
  9000.000000   1420256   1421704   1423491   1425253   1426749  
  8990.000000   1427958   1429027   1430215   1431730   1433679  
  8980.000000   1436002   1438520   1440986   1443121   1444670  
  8970.000000   1445373   1445030   1443499   1440788   1437070  
  8960.000000   1432722   1428258   1424238   1421132   1419214  
  8950.000000   1418536   1418942   1420183   1421972   1424097  
  8940.000000   1426385   1428730   1431024   1433170   1435107  
  8930.000000   1436813   1438360   1439831   1441321   1442793  
  8920.000000   1444088   1444907   1444940   1443973   1442008  
  8910.000000   1439323   1436424   1433922   1432308   1431842  
  8900.000000   1432440   1433762   1435317   1436650   1437497  
  8890.000000   1437824   1437825   1437764   1437861   1438169  
  8880.000000   1438575   1438853   1438812   1438410   1437849  
  8870.000000   1437520   1437894   1439325   1441899   1445358  
  8860.000000   1449137   1452522   1454865   1455793   1455335  
  8850.000000   1453887   1452086   1450600   1449952   1450372  
  8840.000000   1451792   1453885   1456222   1458375   1460024  
  8830.000000   1460988   1461232   1460858   1460076   1459188  
  8820.000000   1458555   1458526   1459382   1461247   1464041  
  8810.000000   1467475   1471105   1474468   1477192   1479117  
  8800.000000   1480304   1480991   1481492   1482069   1482869  
  8790.000000   1483868   1484936   1485879   1486538   1486831  
  8780.000000   1486771   1486458   1486033   1485667   1485510  
  8770.000000   1485696   1486314   1487393   1488895   1490706  
  8760.000000   1492674   1494623   1496426   1498015   1499430  
  8750.000000   1500769   1502173   1503744   1505533   1507504  
  8740.000000   1509568   1511617   1513581   1515454   1517298  
  8730.000000   1519213   1521282   1523533   1525896   1528229  
  8720.000000   1530347   1532100   1533428   1534390   1535146  
  8710.000000   1535903   1536836   1538017   1539380   1540748  
  8700.000000   1541899   1542670   1543023   1543086   1543103  
  8690.000000   1543370   1544115   1545442   1547301   1549506  
  8680.000000   1551821   1554010   1555925   1557488   1558717  
  8670.000000   1559658   1560407   1561061   1561764   1562672  
  8660.000000   1563957   1565743   1568083   1570931   1574163  
  8650.000000   1577612   1581128   1584613   1588021   1591333  
  8640.000000   1594493   1597401   1599929   1601977   1603552  
  8630.000000   1604805   1606010   1607466   1609365   1611693  
  8620.000000   1614200   1616494   1618182   1619054   1619178  
  8610.000000   1618899   1618706   1619063   1620228   1622184  
  8600.000000   1624663   1627282   1629689   1631703   1633331  
  8590.000000   1634744   1636159   1637760   1639614   1641692  
  8580.000000   1643891   1646091   1648182   1650063   1651652  
  8570.000000   1652860   1653635   1653974   1653963   1653764  
  8560.000000   1653556   1653501   1653676   1654093   1654706  
  8550.000000   1655516   1656584   1658060   1660074   1662676  
  8540.000000   1665715   1668846   1671586   1673469   1674239  
  8530.000000   1673913   1672824   1671457   1670319   1669734  
  8520.000000   1669776   1670277   1670954   1671567   1672032  
  8510.000000   1672463   1673088   1674169   1675844   1678099  
  8500.000000   1680745   1683509   1686136   1688440   1690362  
  8490.000000   1691901   1693123   1694056   1694712   1695069  
  8480.000000   1695141   1694989   1694757   1694642   1694871  
  8470.000000   1695644   1697073   1699169   1701818   1704827  
  8460.000000   1707949   1710950   1713649   1715955   1717879  
  8450.000000   1719502   1720940   1722295   1723626   1724945  
  8440.000000   1726222   1727435   1728582   1729704   1730832  
  8430.000000   1731977   1733080   1734022   1734643   1734812  
  8420.000000   1734490   1733765   1732835   1731957   1731365  
  8410.000000   1731218   1731547   1732293   1733332   1734550  
  8400.000000   1735862   1737230   1738621   1739992   1741270  
  8390.000000   1742366   1743209   1743784   1744150   1744422  
  8380.000000   1744728   1745147   1745680   1746249   1746727  
  8370.000000   1746996   1746989   1746721   1746271   1745753  
  8360.000000   1745258   1744842   1744499   1744214   1743966  
  8350.000000   1743778   1743698   1743803   1744151   1744751  
  8340.000000   1745536   1746369   1747072   1747465   1747415  
  8330.000000   1746865   1745861   1744539   1743100   1741759  
  8320.000000   1740692   1740010   1739729   1739787   1740057  
  8310.000000   1740402   1740700   1740876   1740898   1740775  
  8300.000000   1740530   1740192   1739789   1739350   1738906  
  8290.000000   1738499   1738170   1737952   1737853   1737856  
  8280.000000   1737908   1737938   1737865   1737614   1737123  
  8270.000000   1736348   1735280   1733937   1732394   1730756  
  8260.000000   1729159   1727729   1726556   1725671   1725034  
  8250.000000   1724569   1724187   1723851   1723581   1723456  
  8240.000000   1723558   1723935   1724547   1725272   1725933  
  8230.000000   1726351   1726405   1726060   1725365   1724412  
  8220.000000   1723293   1722059   1720718   1719258   1717672  
  8210.000000   1715992   1714275   1712599   1711016   1709553  
  8200.000000   1708198   1706937   1705766   1704719   1703832  
  8190.000000   1703132   1702581   1702084   1701509   1700744  
  8180.000000   1699758   1698615   1697460   1696446   1695661  
  8170.000000   1695065   1694493   1693716   1692542   1690912  
  8160.000000   1688940   1686882   1685033   1683629   1682750  
  8150.000000   1682316   1682112   1681906   1681511   1680858  
  8140.000000   1679971   1678925   1677776   1676529   1675144  
  8130.000000   1673570   1671799   1669878   1667912   1666003  
  8120.000000   1664216   1662548   1660937   1659327   1657708  
  8110.000000   1656167   1654854   1653933   1653494   1653501  
  8100.000000   1653776   1654049   1654045   1653573   1652599  
  8090.000000   1651227   1649662   1648100   1646660   1645336  
  8080.000000   1644033   1642625   1641045   1639320   1637590  
  8070.000000   1636042   1634841   1634053   1633607   1633322  
  8060.000000   1632966   1632349   1631403   1630212   1628988  
  8050.000000   1627997   1627456   1627457   1627924   1628637  
  8040.000000   1629307   1629660   1629530   1628881   1627808  
  8030.000000   1626473   1625044   1623639   1622310   1621058  
  8020.000000   1619881   1618807   1617899   1617247   1616909  
  8010.000000   1616883   1617073   1617321   1617447   1617308  
  8000.000000   1616852   1616108   1615184   1614193   1613225  
  7990.000000   1612303   1611405   1610481   1609507   1608504  
  7980.000000   1607548   1606747   1606195   1605947   1605989  
  7970.000000   1606246   1606600   1606916   1607074   1606981  
  7960.000000   1606592   1605908   1604990   1603944   1602914  
  7950.000000   1602046   1601452   1601175   1601168   1601307  
  7940.000000   1601424   1601367   1601047   1600470   1599728  
  7930.000000   1598956   1598286   1597786   1597459   1597236  
  7920.000000   1597030   1596769   1596437   1596071   1595750  
  7910.000000   1595559   1595554   1595752   1596127   1596629  
  7900.000000   1597196   1597770   1598302   1598750   1599082  
  7890.000000   1599266   1599288   1599142   1598846   1598426  
  7880.000000   1597915   1597349   1596760   1596198   1595721  
  7870.000000   1595409   1595334   1595548   1596040   1596737  
  7860.000000   1597492   1598131   1598489   1598463   1598043  
  7850.000000   1597308   1596391   1595437   1594556   1593800  
  7840.000000   1593165   1592622   1592138   1591706   1591334  
  7830.000000   1591038   1590806   1590600   1590351   1589987  
  7820.000000   1589464   1588783   1588000   1587203   1586483  
  7810.000000   1585905   1585486   1585198   1584980   1584767  
  7800.000000   1584505   1584163   1583732   1583221   1582646  
  7790.000000   1582031   1581409   1580817   1580300   1579890  
  7780.000000   1579601   1579414   1579280   1579131   1578900  
  7770.000000   1578545   1578054   1577450   1576777   1576083  
  7760.000000   1575401   1574753   1574141   1573572   1573054  
  7750.000000   1572609   1572252   1571986   1571783   1571580  
  7740.000000   1571290   1570823   1570120   1569171   1568033  
  7730.000000   1566812   1565645   1564660   1563946   1563527  
  7720.000000   1563366   1563371   1563433   1563449   1563352  
  7710.000000   1563118   1562768   1562351   1561926   1561549  
  7700.000000   1561259   1561078   1561010   1561043   1561153  
  7690.000000   1561296   1561416   1561447   1561324   1561004  
  7680.000000   1560476   1559775   1558971   1558158   1557430  
  7670.000000   1556853   1556457   1556232   1556135   1556108  
  7660.000000   1556093   1556041   1555918   1555705   1555394  
  7650.000000   1554990   1554522   1554028   1553574   1553224  
  7640.000000   1553039   1553047   1553244   1553577   1553970  
  7630.000000   1554332   1554594   1554718   1554720   1554653  
  7620.000000   1554608   1554675   1554936   1555429   1556147  
  7610.000000   1557022   1557950   1558801   1559468   1559883  
  7600.000000   1560057   1560060   1560015   1560045   1560249  
  7590.000000   1560663   1561268   1561999   1562794   1563621  
  7580.000000   1564498   1565482   1566633   1567972   1569457  
  7570.000000   1570972   1572368   1573499   1574290   1574746  
  7560.000000   1574968   1575102   1575304   1575689   1576314  
  7550.000000   1577174   1578223   1579397   1580642   1581916  
  7540.000000   1583195   1584461   1585702   1586911   1588098  
  7530.000000   1589284   1590513   1591817   1593230   1594749  
  7520.000000   1596357   1598018   1599705   1601398   1603111  
  7510.000000   1604857   1606659   1608505   1610375   1612211  
  7500.000000   1613966   1615600   1617121   1618567   1620018  
  7490.000000   1621561   1623282   1625239   1627457   1629913  
  7480.000000   1632547   1635266   1637971   1640558   1642960  
  7470.000000   1645132   1647090   1648874   1650566   1652242  
  7460.000000   1653984   1655847   1657876   1660096   1662522  
  7450.000000   1665153   1667975   1670951   1674026   1677125  
  7440.000000   1680181   1683135   1685971   1688689   1691322  
  7430.000000   1693893   1696430   1698938   1701424   1703899  
  7420.000000   1706390   1708939   1711586   1714354   1717229  
  7410.000000   1720166   1723098   1725970   1728756   1731465  
  7400.000000   1734134   1736796   1739462   1742096   1744640  
  7390.000000   1747029   1749239   1751298   1753290   1755333  
  7380.000000   1757539   1759984   1762682   1765598   1768664  
  7370.000000   1771806   1774955   1778048   1781027   1783827  
  7360.000000   1786392   1788688   1790734   1792609   1794446  
  7350.000000   1796399   1798602   1801123   1803936   1806942  
  7340.000000   1809996   1812972   1815778   1818396   1820846  
  7330.000000   1823181   1825441   1827651   1829812   1831911  
  7320.000000   1833934   1835862   1837684   1839386   1840957  
  7310.000000   1842408   1843764   1845099   1846502   1848083  
  7300.000000   1849917   1852045   1854429   1856992   1859604  
  7290.000000   1862141   1864488   1866564   1868318   1869716  
  7280.000000   1870746   1871413   1871760   1871870   1871875  
  7270.000000   1871931   1872193   1872779   1873741   1875066  
  7260.000000   1876679   1878476   1880346   1882193   1883958  
  7250.000000   1885601   1887135   1888583   1890023   1891535  
  7240.000000   1893230   1895176   1897417   1899912   1902582  
  7230.000000   1905296   1907953   1910480   1912891   1915239  
  7220.000000   1917633   1920154   1922876   1925808   1928961  
  7210.000000   1932313   1935880   1939670   1943706   1947967  
  7200.000000   1952413   1956952   1961507   1966009   1970470  
  7190.000000   1974927   1979480   1984181   1989057   1994030  
  7180.000000   1998989   2003790   2008359   2012691   2016899  
  7170.000000   2021142   2025614   2030438   2035674   2041269  
  7160.000000   2047123   2053094   2059088   2065042   2070971  
  7150.000000   2076909   2082930   2089082   2095423   2101955  
  7140.000000   2108684   2115558   2122539   2129552   2136564  
  7130.000000   2143539   2150510   2157521   2164666   2172014  
  7120.000000   2179623   2187471   2195502   2203597   2211651  
  7110.000000   2219580   2227375   2235078   2242793   2250617  
  7100.000000   2258637   2266869   2275281   2283777   2292257  
  7090.000000   2300629   2308853   2316942   2324962   2333003  
  7080.000000   2341151   2349458   2357931   2366522   2375160  
  7070.000000   2383765   2392282   2400689   2409004   2417261  
  7060.000000   2425496   2433726   2441949   2450153   2458327  
  7050.000000   2466474   2474607   2482746   2490885   2499005  
  7040.000000   2507046   2514961   2522704   2530285   2537739  
  7030.000000   2545138   2552530   2559941   2567332   2574640  
  7020.000000   2581778   2588698   2595381   2601868   2608205  
  7010.000000   2614449   2620610   2626699   2632695   2638623  
  7000.000000   2644515   2650452   2656481   2662631   2668836  
  6990.000000   2674986   2680914   2686489   2691628   2696353  
  6980.000000   2700745   2704947   2709073   2713220   2717407  
  6970.000000   2721635   2725859   2730064   2734219   2738320  
  6960.000000   2742337   2746249   2750006   2753586   2756967  
  6950.000000   2760176   2763241   2766208   2769097   2771916  
  6940.000000   2774640   2777247   2779712   2782040   2784234  
  6930.000000   2786318   2788300   2790202   2792036   2793838  
  6920.000000   2795650   2797527   2799502   2801578   2803703  
  6910.000000   2805796   2807759   2809526   2811075   2812450  
  6900.000000   2813729   2815011   2816365   2817824   2819379  
  6890.000000   2820994   2822620   2824216   2825742   2827168  
  6880.000000   2828463   2829613   2830626   2831548   2832460  
  6870.000000   2833465   2834647   2836047   2837639   2839346  
  6860.000000   2841063   2842710   2844246   2845686   2847064  
  6850.000000   2848408   2849700   2850885   2851883   2852643  
  6840.000000   2853170   2853547   2853893   2854338   2854954  
  6830.000000   2855743   2856628   2857505   2858276   2858895  
  6820.000000   2859363   2859721   2860009   2860248   2860426  
  6810.000000   2860530   2860558   2860547   2860562   2860681  
  6800.000000   2860948   2861365   2861875   2862402   2862865  
  6790.000000   2863226   2863481   2863664   2863801   2863903  
  6780.000000   2863943   2863879   2863676   2863327   2862863  
  6770.000000   2862346   2861830   2861357   2860920   2860499  
  6760.000000   2860055   2859576   2859069   2858571   2858118  
  6750.000000   2857735   2857412   2857116   2856795   2856406  
  6740.000000   2855920   2855336   2854667   2853941   2853182  
  6730.000000   2852417   2851665   2850950   2850282   2849666  
  6720.000000   2849081   2848492   2847848   2847104   2846225  
  6710.000000   2845211   2844080   2842876   2841641   2840420  
  6700.000000   2839244   2838144   2837139   2836247   2835464  
  6690.000000   2834775   2834130   2833468   2832720   2831835  
  6680.000000   2830793   2829611   2828325   2826981   2825610  
  6670.000000   2824226   2822828   2821419   2820011   2818639  
  6660.000000   2817337   2816132   2815008   2813926   2812811  
  6650.000000   2811602   2810256   2808780   2807214   2805622  
  6640.000000   2804053   2802535   2801054   2799581   2798072  
  6630.000000   2796500   2794849   2793119   2791311   2789428  
  6620.000000   2787469   2785447   2783387   2781343   2779366  
  6610.000000   2777509   2775784   2774172   2772614   2771039  
  6600.000000   2769383   2767612   2765722   2763736   2761683  
  6590.000000   2759586   2757458   2755305   2753138   2750978  
  6580.000000   2748852   2746791   2744805   2742889   2741018  
  6570.000000   2739161   2737300   2735438   2733598   2731810  
  6560.000000   2730098   2728459   2726871   2725294   2723696  
  6550.000000   2722059   2720396   2718737   2717125   2715593  
  6540.000000   2714160   2712822   2711570   2710380   2709232  
  6530.000000   2708100   2706962   2705790   2704563   2703274  
  6520.000000   2701932   2700568   2699228   2697958   2696793  
  6510.000000   2695739   2694777   2693866   2692953   2691989  
  6500.000000   2690937   2689782   2688524   2687185   2685798  
  6490.000000   2684407   2683056   2681780   2680593   2679479  
  6480.000000   2678400   2677305   2676144   2674896   2673569  
  6470.000000   2672205   2670859   2669587   2668420   2667366  
  6460.000000   2666407   2665507   2664633   2663748   2662821  
  6450.000000   2661815   2660695   2659429   2658009   2656455  
  6440.000000   2654831   2653229   2651753   2650484   2649462  
  6430.000000   2648676   2648071   2647566   2647084   2646563  
  6420.000000   2645964   2645266   2644459   2643534   2642499  
  6410.000000   2641370   2640193   2639025   2637938   2636979  
  6400.000000   2636169   2635488   2634887   2634311   2633716  
  6390.000000   2633087   2632439   2631799   2631195   2630640  
  6380.000000   2630134   2629666   2629226   2628810   2628421  
  6370.000000   2628055   2627696   2627311   2626859   2626312  
  6360.000000   2625665   2624950   2624223   2623546   2622956  
  6350.000000   2622459   2622015   2621569   2621060   2620456  
  6340.000000   2619751   2618970   2618144   2617297   2616431  
  6330.000000   2615535   2614585   2613572   2612498   2611390  
  6320.000000   2610276   2609190   2608143   2607139   2606158  
  6310.000000   2605182   2604182   2603140   2602033   2600844  
  6300.000000   2599551   2598140   2596596   2594924   2593131  
  6290.000000   2591245   2589291   2587306   2585314   2583351  
  6280.000000   2581432   2579582   2577798   2576078   2574391  
  6270.000000   2572705   2570972   2569159   2567236   2565195  
  6260.000000   2563035   2560773   2558420   2555996   2553517  
  6250.000000   2551008   2548492   2546000   2543549   2541151  
  6240.000000   2538796   2536469   2534143   2531808   2529458  
  6230.000000   2527107   2524770   2522462   2520180   2517912  
  6220.000000   2515636   2513329   2510984   2508602   2506201  
  6210.000000   2503799   2501411   2499046   2496711   2494412  
  6200.000000   2492161   2489973   2487861   2485824   2483844  
  6190.000000   2481886   2479911   2477886   2475803   2473673  
  6180.000000   2471528   2469399   2467312   2465271   2463267  
  6170.000000   2461278   2459289   2457295   2455302   2453328  
  6160.000000   2451388   2449491   2447640   2445829   2444050  
  6150.000000   2442294   2440556   2438826   2437094   2435345  
  6140.000000   2433572   2431772   2429959   2428152   2426380  
  6130.000000   2424663   2423012   2421422   2419883   2418379  
  6120.000000   2416906   2415463   2414063   2412707   2411400  
  6110.000000   2410128   2408882   2407650   2406440   2405266  
  6100.000000   2404166   2403166   2402295   2401552   2400931  
  6090.000000   2400400   2399934   2399503   2399096   2398700  
  6080.000000   2398320   2397953   2397609   2397290   2397009  
  6070.000000   2396769   2396589   2396466   2396408   2396403  
  6060.000000   2396451   2396541   2396684   2396883   2397161  
  6050.000000   2397525   2397997   2398572   2399262   2400059  
  6040.000000   2400975   2402010   2403180   2404483   2405925  
  6030.000000   2407487   2409159   2410914   2412745   2414632  
  6020.000000   2416576   2418561   2420581   2422613   2424640  
  6010.000000   2426633   2428580   2430467   2432301   2434088  
  6000.000000   2435848   2437598   2439363   2441160   2443014  
  5990.000000   2444937   2446944   2449033   2451208   2453457  
  5980.000000   2455783   2458181   2460663   2463231   2465896  
  5970.000000   2468651   2471493   2474399   2477363   2480370  
  5960.000000   2483428   2486540   2489719   2492964   2496271  
  5950.000000   2499616   2502977   2506329   2509659   2512964  
  5940.000000   2516255   2519545   2522852   2526185   2529552  
  5930.000000   2532957   2536396   2539865   2543350   2546832  
  5920.000000   2550282   2553672   2556971   2560163   2563238  
  5910.000000   2566198   2569048   2571796   2574444   2577000  
  5900.000000   2579475   2581896   2584298   2586730   2589227  
  5890.000000   2591819   2594505   2597267   2600069   2602873  
  5880.000000   2605644   2608359   2611001   2613559   2616026  
  5870.000000   2618393   2620668   2622866   2625027   2627196  
  5860.000000   2629426   2631747   2634173   2636691   2639280  
  5850.000000   2641918   2644602   2647345   2650173   2653109  
  5840.000000   2656164   2659324   2662562   2665839   2669123  
  5830.000000   2672397   2675654   2678897   2682117   2685301  
  5820.000000   2688415   2691429   2694307   2697037   2699605  
  5810.000000   2702023   2704284   2706401   2708358   2710171  
  5800.000000   2711828   2713366   2714785   2716121   2717355  
  5790.000000   2718487   2719461   2720249   2720792   2721070  
  5780.000000   2721049   2720732   2720107   2719190   2717990  
  5770.000000   2716551   2714922   2713185   2711415   2709694  
  5760.000000   2708071   2706582   2705225   2703998   2702888  
  5750.000000   2701894   2701017   2700259   2699617   2699073  
  5740.000000   2698607   2698193   2697823   2697491   2697212  
  5730.000000   2696988   2696824   2696698   2696589   2696460  
  5720.000000   2696294   2696084   2695849   2695617   2695427  
  5710.000000   2695306   2695278   2695352   2695533   2695812  
  5700.000000   2696182   2696622   2697107   2697607   2698096  
  5690.000000   2698560   2699000   2699433   2699880   2700362  
  5680.000000   2700873   2701399   2701899   2702332   2702652  
  5670.000000   2702829   2702835   2702661   2702289   2701720  
  5660.000000   2700951   2700010   2698934   2697788   2696632  
  5650.000000   2695527   2694500   2693560   2692680   2691836  
  5640.000000   2690995   2690146   2689290   2688439   2687607  
  5630.000000   2686806   2686042   2685320   2684648   2684029  
  5620.000000   2683466   2682946   2682446   2681930   2681367  
  5610.000000   2680738   2680047   2679324   2678608   2677936  
  5600.000000   2677326   2676771   2676244   2675711   2675144  
  5590.000000   2674535   2673885   2673204   2672493   2671746  
  5580.000000   2670944   2670074   2669132   2668136   2667114  
  5570.000000   2666098   2665108   2664148   2663200   2662246  
  5560.000000   2661263   2660249   2659205   2658143   2657067  
  5550.000000   2655975   2654852   2653685   2652470   2651216  
  5540.000000   2649942   2648673   2647420   2646184   2644952  
  5530.000000   2643711   2642453   2641190   2639946   2638753  
  5520.000000   2637634   2636598   2635636   2634725   2633835  
  5510.000000   2632939   2632011   2631033   2629986   2628858  
  5500.000000   2627645   2626359   2625026   2623693   2622401  
  5490.000000   2621183   2620038   2618940   2617836   2616672  
  5480.000000   2615404   2614015   2612506   2610903   2609229  
  5470.000000   2607510   2605757   2603984   2602195   2600400  
  5460.000000   2598597   2596779   2594922   2592998   2590978  
  5450.000000   2588856   2586652   2584415   2582210   2580089  
  5440.000000   2578084   2576186   2574372   2572601   2570856  
  5430.000000   2569130   2567446   2565819   2564267   2562779  
  5420.000000   2561353   2559974   2558667   2557457   2556402  
  5410.000000   2555530   2554864   2554373   2554027   2553768  
  5400.000000   2553584   2553463   2553443   2553545   2553812  
  5390.000000   2554238   2554832   2555565   2556452   2557488  
  5380.000000   2558715   2560136   2561778   2563603   2565606  
  5370.000000   2567732   2569996   2572381   2574949   2577711  
  5360.000000   2580738   2584016   2587595   2591446   2595633  
  5350.000000   2600151   2605098   2610477   2616373   2622749  
  5340.000000   2629658   2637035   2644943   2653337   2662303  
  5330.000000   2671792   2681869   2692451   2703580   2715178  
  5320.000000   2727339   2740047   2753462   2767597   2782606  
  5310.000000   2798444   2815196   2832751   2851163   2870336  
  5300.000000   2890368   2911229   2933069   2955896   2979854  
  5290.000000   3004904   3031096   3058276   3086367   3115141  
  5280.000000   3144506   3174319   3204622   3235441   3266924  
  5270.000000   3299125   3332072   3365634   3399597   3433692  
  5260.000000   3467671   3501406   3534845   3568066   3601094  
  5250.000000   3633964   3666516   3698600   3729903   3760280  
  5240.000000   3789533   3817741   3844907   3871251   3896796  
  5230.000000   3921694   3945829   3969207   3991606   4013003  
  5220.000000   4033231   4052385   4070431   4087582   4103865  
  5210.000000   4119481   4134382   4148644   4162093   4174729  
  5200.000000   4186380   4197120   4206895   4215879   4224070  
  5190.000000   4231615   4238448   4244626   4250030   4254715  
  5180.000000   4258611   4261835   4264375   4266356   4267740  
  5170.000000   4268597   4268852   4268561   4267677   4266293  
  5160.000000   4264398   4262088   4259338   4256212   4252666  
  5150.000000   4248758   4244468   4239872   4234968   4229813  
  5140.000000   4224384   4218712   4212769   4206606   4200238  
  5130.000000   4193745   4187159   4180535   4173862   4167143  
  5120.000000   4160340   4153455   4146487   4139473   4132440  
  5110.000000   4125427   4118438   4111476   4104527   4097595  
  5100.000000   4090688   4083842   4077079   4070421   4063853  
  5090.000000   4057348   4050851   4044326   4037739   4031091  
  5080.000000   4024383   4017631   4010825   4003952   3996967  
  5070.000000   3989841   3982537   3975051   3967382   3959557  
  5060.000000   3951593   3943523   3935357   3927126   3918839  
  5050.000000   3910530   3902210   3893908   3885625   3877374  
  5040.000000   3869144   3860941   3852760   3844607   3836484  
  5030.000000   3828389   3820314   3812241   3804155   3796042  
  5020.000000   3787905   3779755   3771624   3763541   3755546  
  5010.000000   3747660   3739911   3732302   3724853   3717557  
  5000.000000   3710432   3703469   3696688   3690077   3683665  
  4990.000000   3677445   3671459   3665707   3660233   3655027  
  4980.000000   3650123   3645490   3641156   3637093   3633346  
  4970.000000   3629909   3626849   3624165   3621916   3620071  
  4960.000000   3618651   3617593   3616899   3616498   3616408  
  4950.000000   3616582   3617060   3617816   3618904   3620301  
  4940.000000   3622064   3624173   3626678   3629546   3632813  
  4930.000000   3636425   3640398   3644674   3649274   3654159  
  4920.000000   3659373   3664898   3670782   3677002   3683586  
  4910.000000   3690487   3697712   3705207   3712975   3720973  
  4900.000000   3729207   3737647   3746297   3755132   3764149  
  4890.000000   3773320   3782623   3792013   3801439   3810840  
  4880.000000   3820151   3829321   3838304   3847084   3855637  
  4870.000000   3863968   3872049   3879875   3887404   3894629  
  4860.000000   3901520   3908099   3914366   3920369   3926117  
  4850.000000   3931654   3936975   3942115   3947067   3951875  
  4840.000000   3956544   3961125   3965619   3970057   3974417  
  4830.000000   3978704   3982883   3986953   3990887   3994689  
  4820.000000   3998336   4001831   4005153   4008307   4011287  
  4810.000000   4014121   4016826   4019442   4021988   4024489  
  4800.000000   4026939   4029346   4031695   4033998   4036258  
  4790.000000   4038503   4040748   4043016   4045303   4047611  
  4780.000000   4049912   4052192   4054417   4056576   4058642  
  4770.000000   4060611   4062463   4064198   4065807   4067300  
  4760.000000   4068675   4069948   4071110   4072171   4073109  
  4750.000000   4073919   4074578   4075087   4075435   4075640  
  4740.000000   4075699   4075635   4075443   4075139   4074714  
  4730.000000   4074182   4073541   4072812   4072001   4071129  
  4720.000000   4070198   4069219   4068185   4067098   4065948  
  4710.000000   4064739   4063470   4062156   4060811   4059461  
  4700.000000   4058126   4056835   4055602   4054439   4053337  
  4690.000000   4052284   4051254   4050221   4049163   4048063  
  4680.000000   4046917   4045721   4044480   4043189   4041851  
  4670.000000   4040456   4039012   4037524   4036020   4034526  
  4660.000000   4033090   4031746   4030539   4029494   4028646  
  4650.000000   4028006   4027594   4027408   4027448   4027692  
  4640.000000   4028117   4028682   4029358   4030111   4030927  
  4630.000000   4031788   4032689   4033611   4034534   4035420  
  4620.000000   4036236   4036945   4037527   4037978   4038311  
  4610.000000   4038550   4038717   4038833   4038910   4038955  
  4600.000000   4038970   4038967   4038957   4038961   4038994  
  4590.000000   4039073   4039194   4039350   4039514   4039661  
  4580.000000   4039763   4039801   4039766   4039663   4039507  
  4570.000000   4039319   4039120   4038926   4038739   4038552  
  4560.000000   4038346   4038099   4037793   4037421   4036988  
  4550.000000   4036510   4036012   4035513   4035029   4034563  
  4540.000000   4034118   4033687   4033282   4032904   4032582  
  4530.000000   4032325   4032169   4032112   4032188   4032385  
  4520.000000   4032742   4033247   4033955   4034859   4036028  
  4510.000000   4037457   4039225   4041330   4043866   4046839  
  4500.000000   4050352   4054413   4059122   4064481   4070583  
  4490.000000   4077426   4085092   4093557   4102861   4112921  
  4480.000000   4123698   4135036   4146840   4158940   4171258  
  4470.000000   4183682   4196203   4208779   4221444   4234183  
  4460.000000   4247017   4259916   4272865   4285817   4298733  
  4450.000000   4311565   4324267   4336808   4349156   4361315  
  4440.000000   4373285   4385112   4396815   4408457   4420039  
  4430.000000   4431601   4443098   4454531   4465819   4476950  
  4420.000000   4487834   4498465   4508753   4518689   4528168  
  4410.000000   4537158   4545531   4553244   4560177   4566315  
  4400.000000   4571597   4576071   4579752   4582747   4585118  
  4390.000000   4586991   4588438   4589572   4590451   4591173  
  4380.000000   4591793   4592402   4593070   4593898   4594975  
  4370.000000   4596400   4598254   4600601   4603470   4606847  
  4360.000000   4610693   4614924   4619456   4624190   4629045  
  4350.000000   4633956   4638882   4643809   4648730   4653663  
  4340.000000   4658608   4663569   4668502   4673336   4677934  
  4330.000000   4682130   4685720   4688532   4690425   4691378  
  4320.000000   4691454   4690851   4689812   4688633   4687547  
  4310.000000   4686752   4686322   4686282   4686561   4687093  
  4300.000000   4687777   4688552   4689351   4690144   4690894  
  4290.000000   4691588   4692215   4692788   4693331   4693884  
  4280.000000   4694478   4695148   4695888   4696692   4697507  
  4270.000000   4698293   4698970   4699482   4699734   4699649  
  4260.000000   4699121   4698075   4696440   4694213   4691431  
  4250.000000   4688210   4684692   4681061   4677463   4674032  
  4240.000000   4670823   4667859   4665099   4662498   4659992  
  4230.000000   4657540   4655106   4652669   4650210   4647705  
  4220.000000   4645137   4642481   4639745   4636944   4634139  
  4210.000000   4631393   4628798   4626415   4624302   4622462  
  4200.000000   4620882   4619502   4618277   4617129   4616036  
  4190.000000   4614951   4613900   4612877   4611947   4611128  
  4180.000000   4610505   4610102   4610010   4610249   4610908  
  4170.000000   4611996   4613592   4615688   4618344   4621526  
  4160.000000   4625270   4629518   4634290   4639517   4645226  
  4150.000000   4651352   4657939   4664933   4672383   4680242  
  4140.000000   4688566   4697316   4706556   4716257   4726484  
  4130.000000   4737204   4748465   4760211   4772466   4785162  
  4120.000000   4798316   4811873   4825870   4840282   4855160  
  4110.000000   4870491   4886318   4902608   4919362   4936509  
  4100.000000   4954010   4971773   4989752   5007880   5026141  
  4090.000000   5044511   5062996   5081594   5100300   5119108  
  4080.000000   5137991   5156943   5175930   5194950   5213955  
  4070.000000   5232930   5251790   5270503   5288964   5307152  
  4060.000000   5324975   5342442   5359468   5376068   5392143  
  4050.000000   5407713   5422688   5437127   5450963   5464275  
  4040.000000   5476968   5489072   5500428   5511028   5520710  
  4030.000000   5529516   5537351   5544317   5550357   5555555  
  4020.000000   5559796   5563136   5565515   5567009   5567553  
  4010.000000   5567309   5566369   5564793   5562372   5559215  
  4000.000000   5555685  
##END= 
