##TITLE= Sample 024 By ssteindl date Montag, November 19 2018
##JCAMP-DX= 4.24
##DATA TYPE= INFRARED SPECTRUM
##ORIGIN= Exported PE Spectrum Data File
##OWNER= Sandra Steindl
##DATE= 18/11/19
##TIME= 16:41:10.00
##SPECTROMETER/DATA SYSTEM= PERKIN-ELMER Frontier FT-IR/NIR IR
##INSTRUMENT PARAMETERS=
  APODIZATION=stark
  DETECTOR=INGAAS
##RESOLUTION= 16.000000
##DELTAX= -2.000000
##XUNITS= 1/CM
##YUNITS= A
##XFACTOR= 1.00
##YFACTOR= 0.00000011920928955078
##FIRSTX= 10000.00
##LASTX= 4000.00
##NPOINTS= 3001
##FIRSTY= 0.172697
##MAXY= 0.629230
##MINY= 0.146850
##XYDATA= (X++(Y..Y))
 10000.000000   1448686   1448488   1448777   1450301   1453144  
  9990.000000   1456707   1460155   1462947   1465006   1466676  
  9980.000000   1468400   1470287   1471915   1472404   1470949  
  9970.000000   1467210   1461654   1455420   1449845   1445965  
  9960.000000   1444044   1443701   1444127   1444739   1445402  
  9950.000000   1446566   1448833   1452519   1457238   1461873  
  9940.000000   1464929   1465073   1461738   1455295   1447007  
  9930.000000   1438451   1431044   1425558   1422074   1420157  
  9920.000000   1419174   1418622   1418183   1417752   1417251  
  9910.000000   1416641   1415892   1415135   1414692   1415004  
  9900.000000   1416479   1419145   1422607   1425968   1428212  
  9890.000000   1428494   1426541   1422740   1418027   1413534  
  9880.000000   1410208   1408551   1408562   1409885   1411995  
  9870.000000   1414404   1416710   1418611   1419867   1420300  
  9860.000000   1419886   1418796   1417446   1416363   1416003  
  9850.000000   1416526   1417689   1418949   1419712   1419678  
  9840.000000   1419026   1418393   1418565   1420075   1422855  
  9830.000000   1426170   1428845   1429743   1428219   1424439  
  9820.000000   1419325   1414260   1410563   1409090   1409959  
  9810.000000   1412641   1416164   1419480   1421702   1422296  
  9800.000000   1421059   1418124   1413859   1408854   1403827  
  9790.000000   1399525   1396561   1395192   1395248   1396082  
  9780.000000   1396823   1396608   1394923   1391762   1387584  
  9770.000000   1383155   1379218   1376333   1374750   1374509  
  9760.000000   1375544   1377776   1381117   1385353   1390061  
  9750.000000   1394501   1397775   1398966   1397536   1393458  
  9740.000000   1387382   1380375   1373684   1368353   1365018  
  9730.000000   1363881   1364766   1367356   1371240   1376065  
  9720.000000   1381406   1386823   1391757   1395665   1398093  
  9710.000000   1398847   1398072   1396223   1393925   1391747  
  9700.000000   1389998   1388671   1387473   1386047   1384099  
  9690.000000   1381558   1378489   1375028   1371229   1367020  
  9680.000000   1362265   1356834   1350814   1344513   1338517  
  9670.000000   1333497   1330014   1328355   1328398   1329772  
  9660.000000   1331977   1334658   1337694   1341186   1345315  
  9650.000000   1350063   1355100   1359647   1362739   1363396  
  9640.000000   1361115   1355983   1348836   1340973   1333819  
  9630.000000   1328518   1325584   1324927   1325928   1327840  
  9620.000000   1330013   1332112   1334071   1335958   1337768  
  9610.000000   1339290   1340142   1339887   1338315   1335535  
  9600.000000   1332107   1328824   1326537   1325842   1326894  
  9590.000000   1329399   1332688   1335994   1338644   1340256  
  9580.000000   1340766   1340377   1339422   1338244   1337110  
  9570.000000   1336180   1335525   1335130   1334947   1334883  
  9560.000000   1334846   1334745   1334500   1334057   1333360  
  9550.000000   1332396   1331178   1329788   1328348   1327037  
  9540.000000   1326030   1325494   1325530   1326157   1327288  
  9530.000000   1328733   1330231   1331471   1332167   1332073  
  9520.000000   1331064   1329127   1326435   1323297   1320152  
  9510.000000   1317474   1315654   1314929   1315272   1316458  
  9500.000000   1318094   1319806   1321341   1322658   1323887  
  9490.000000   1325192   1326611   1327922   1328693   1328404  
  9480.000000   1326718   1323648   1319654   1315536   1312176  
  9470.000000   1310265   1310033   1311216   1313172   1315147  
  9460.000000   1316539   1317042   1316658   1315572   1314010  
  9450.000000   1312152   1310118   1308048   1306191   1304930  
  9440.000000   1304722   1305899   1308485   1312067   1315854  
  9430.000000   1318904   1320412   1319972   1317676   1314063  
  9420.000000   1309934   1306124   1303305   1301861   1301851  
  9410.000000   1303050   1305012   1307175   1308923   1309718  
  9400.000000   1309179   1307232   1304139   1300497   1297069  
  9390.000000   1294556   1293364   1293467   1294461   1295726  
  9380.000000   1296682   1296971   1296548   1295627   1294527  
  9370.000000   1293493   1292597   1291723   1290729   1289519  
  9360.000000   1288193   1286952   1286066   1285696   1285839  
  9350.000000   1286341   1286972   1287587   1288152   1288813  
  9340.000000   1289752   1291145   1293029   1295313   1297777  
  9330.000000   1300142   1302132   1303479   1303959   1303344  
  9320.000000   1301469   1298248   1293786   1288445   1282831  
  9310.000000   1277700   1273738   1271421   1270852   1271807  
  9300.000000   1273782   1276194   1278505   1280360   1281603  
  9290.000000   1282225   1282299   1281894   1281097   1279999  
  9280.000000   1278775   1277630   1276804   1276440   1276558  
  9270.000000   1277015   1277550   1277861   1277673   1276854  
  9260.000000   1275423   1273588   1271641   1269927   1268726  
  9250.000000   1268249   1268560   1269589   1271103   1272758  
  9240.000000   1274166   1274967   1274910   1273869   1271865  
  9230.000000   1269023   1265559   1261728   1257811   1254088  
  9220.000000   1250855   1248400   1246950   1246607   1247270  
  9210.000000   1248654   1250332   1251841   1252809   1253051  
  9200.000000   1252648   1251861   1251063   1250555   1250534  
  9190.000000   1250997   1251829   1252814   1253754   1254521  
  9180.000000   1255074   1255461   1255737   1255991   1256289  
  9170.000000   1256704   1257272   1257991   1258819   1259651  
  9160.000000   1260345   1260709   1260564   1259785   1258351  
  9150.000000   1256362   1254020   1251631   1249543   1248107  
  9140.000000   1247549   1247969   1249249   1251120   1253152  
  9130.000000   1254904   1256023   1256347   1255939   1255009  
  9120.000000   1253822   1252545   1251183   1249568   1247481  
  9110.000000   1244779   1241549   1238133   1235060   1232866  
  9100.000000   1231868   1232066   1233095   1234382   1235337  
  9090.000000   1235581   1235096   1234174   1233314   1232959  
  9080.000000   1233373   1234503   1236047   1237553   1238621  
  9070.000000   1239020   1238778   1238141   1237494   1237245  
  9060.000000   1237692   1238941   1240847   1243062   1245114  
  9050.000000   1246519   1246910   1246164   1244462   1242255  
  9040.000000   1240123   1238610   1238048   1238442   1239474  
  9030.000000   1240618   1241356   1241336   1240485   1239013  
  9020.000000   1237307   1235790   1234758   1234330   1234466  
  9010.000000   1235045   1235960   1237144   1238574   1240187  
  9000.000000   1241845   1243308   1244320   1244666   1244284  
  8990.000000   1243291   1241983   1240719   1239815   1239457  
  8980.000000   1239684   1240421   1241534   1242904   1244440  
  8970.000000   1246069   1247661   1249044   1250007   1250377  
  8960.000000   1250087   1249232   1248090   1247026   1246380  
  8950.000000   1246325   1246804   1247555   1248190   1248377  
  8940.000000   1247934   1246936   1245665   1244525   1243884  
  8930.000000   1243934   1244642   1245736   1246836   1247529  
  8920.000000   1247548   1246798   1245423   1243722   1242088  
  8910.000000   1240893   1240417   1240806   1242052   1244036  
  8900.000000   1246554   1249384   1252293   1255098   1257642  
  8890.000000   1259838   1261647   1263068   1264143   1264903  
  8880.000000   1265387   1265575   1265427   1264868   1263845  
  8870.000000   1262356   1260490   1258446   1256501   1254980  
  8860.000000   1254142   1254163   1255041   1256635   1258654  
  8850.000000   1260775   1262707   1264277   1265460   1266339  
  8840.000000   1267094   1267848   1268664   1269427   1269951  
  8830.000000   1269973   1269337   1268029   1266285   1264520  
  8820.000000   1263257   1262967   1263914   1266105   1269259  
  8810.000000   1272941   1276683   1280153   1283233   1286006  
  8800.000000   1288668   1291372   1294152   1296838   1299141  
  8790.000000   1300728   1301401   1301167   1300273   1299138  
  8780.000000   1298214   1297895   1298374   1299668   1301602  
  8770.000000   1303915   1306313   1308533   1310361   1311642  
  8760.000000   1312291   1312300   1311773   1310913   1310022  
  8750.000000   1309431   1309425   1310175   1311685   1313810  
  8740.000000   1316302   1318893   1321374   1323612   1325559  
  8730.000000   1327175   1328421   1329210   1329474   1329196  
  8720.000000   1328499   1327659   1327086   1327218   1328400  
  8710.000000   1330753   1334120   1338089   1342103   1345602  
  8700.000000   1348181   1349673   1350199   1350095   1349824  
  8690.000000   1349838   1350493   1351981   1354325   1357388  
  8680.000000   1360912   1364574   1368035   1371015   1373317  
  8670.000000   1374878   1375771   1376199   1376455   1376829  
  8660.000000   1377549   1378698   1380223   1381956   1383680  
  8650.000000   1385220   1386487   1387528   1388476   1389528  
  8640.000000   1390850   1392544   1394624   1397012   1399593  
  8630.000000   1402211   1404730   1407007   1408934   1410428  
  8620.000000   1411469   1412126   1412563   1413039   1413848  
  8610.000000   1415262   1417445   1420398   1423951   1427788  
  8600.000000   1431545   1434861   1437489   1439306   1440355  
  8590.000000   1440790   1440857   1440852   1441097   1441901  
  8580.000000   1443485   1445985   1449382   1453526   1458097  
  8570.000000   1462705   1466943   1470487   1473137   1474835  
  8560.000000   1475654   1475728   1475220   1474287   1473099  
  8550.000000   1471848   1470734   1469986   1469792   1470298  
  8540.000000   1471503   1473306   1475481   1477769   1479917  
  8530.000000   1481737   1483136   1484084   1484611   1484759  
  8520.000000   1484608   1484253   1483853   1483599   1483719  
  8510.000000   1484404   1485760   1487743   1490158   1492676  
  8500.000000   1494932   1496607   1497530   1497722   1497400  
  8490.000000   1496918   1496684   1497063   1498293   1500452  
  8480.000000   1503427   1506975   1510761   1514450   1517758  
  8470.000000   1520493   1522559   1523943   1524693   1524864  
  8460.000000   1524532   1523774   1522728   1521573   1520535  
  8450.000000   1519846   1519690   1520160   1521205   1522669  
  8440.000000   1524326   1525978   1527503   1528899   1530273  
  8430.000000   1531775   1533529   1535561   1537798   1540088  
  8420.000000   1542272   1544238   1545964   1547510   1548971  
  8410.000000   1550427   1551882   1553275   1554487   1555413  
  8400.000000   1555979   1556197   1556131   1555894   1555584  
  8390.000000   1555287   1555054   1554918   1554891   1554963  
  8380.000000   1555091   1555193   1555147   1554829   1554147  
  8370.000000   1553136   1551957   1550910   1550324   1550485  
  8360.000000   1551521   1553341   1555631   1557920   1559734  
  8350.000000   1560698   1560656   1559656   1557933   1555826  
  8340.000000   1553701   1551872   1550566   1549920   1549998  
  8330.000000   1550796   1552222   1554087   1556108   1557956  
  8320.000000   1559315   1559960   1559816   1558995   1557776  
  8310.000000   1556517   1555555   1555110   1555246   1555888  
  8300.000000   1556852   1557932   1558933   1559722   1560202  
  8290.000000   1560321   1560030   1559308   1558171   1556705  
  8280.000000   1555077   1553501   1552195   1551309   1550885  
  8270.000000   1550840   1550987   1551111   1551028   1550668  
  8260.000000   1550070   1549369   1548729   1548282   1548089  
  8250.000000   1548112   1548253   1548368   1548336   1548080  
  8240.000000   1547589   1546917   1546147   1545396   1544760  
  8230.000000   1544331   1544146   1544204   1544436   1544739  
  8220.000000   1544971   1544998   1544695   1543988   1542839  
  8210.000000   1541262   1539303   1537037   1534561   1531982  
  8200.000000   1529418   1526983   1524767   1522828   1521167  
  8190.000000   1519756   1518538   1517471   1516528   1515718  
  8180.000000   1515055   1514544   1514159   1513831   1513479  
  8170.000000   1513010   1512387   1511595   1510667   1509627  
  8160.000000   1508476   1507183   1505703   1504031   1502234  
  8150.000000   1500487   1499021   1498083   1497800   1498141  
  8140.000000   1498860   1499582   1499896   1499489   1498238  
  8130.000000   1496229   1493713   1490992   1488326   1485847  
  8120.000000   1483572   1481438   1479393   1477441   1475663  
  8110.000000   1474178   1473067   1472340   1471892   1471564  
  8100.000000   1471188   1470669   1470019   1469343   1468795  
  8090.000000   1468485   1468427   1468514   1468561   1468361  
  8080.000000   1467780   1466776   1465427   1463867   1462244  
  8070.000000   1460658   1459140   1457670   1456209   1454758  
  8060.000000   1453368   1452158   1451263   1450801   1450804  
  8050.000000   1451206   1451836   1452455   1452818   1452721  
  8040.000000   1452062   1450841   1449174   1447238   1445254  
  8030.000000   1443416   1441873   1440697   1439882   1439352  
  8020.000000   1438984   1438644   1438205   1437599   1436818  
  8010.000000   1435934   1435069   1434366   1433932   1433796  
  8000.000000   1433887   1434045   1434075   1433802   1433147  
  7990.000000   1432149   1430957   1429771   1428766   1428014  
  7980.000000   1427464   1426957   1426305   1425368   1424134  
  7970.000000   1422719   1421338   1420211   1419479   1419154  
  7960.000000   1419121   1419203   1419241   1419163   1419008  
  7950.000000   1418895   1418953   1419249   1419753   1420327  
  7940.000000   1420805   1421020   1420905   1420461   1419777  
  7930.000000   1418942   1418033   1417082   1416100   1415123  
  7920.000000   1414236   1413598   1413387   1413767   1414797  
  7910.000000   1416417   1418424   1420541   1422463   1423940  
  7900.000000   1424814   1425033   1424650   1423778   1422579  
  7890.000000   1421228   1419902   1418754   1417893   1417369  
  7880.000000   1417146   1417136   1417198   1417214   1417099  
  7870.000000   1416850   1416517   1416176   1415883   1415634  
  7860.000000   1415378   1415020   1414497   1413796   1412993  
  7850.000000   1412219   1411627   1411330   1411359   1411670  
  7840.000000   1412151   1412695   1413215   1413691   1414146  
  7830.000000   1414624   1415147   1415686   1416160   1416451  
  7820.000000   1416438   1416032   1415202   1413986   1412483  
  7810.000000   1410848   1409248   1407858   1406803   1406158  
  7800.000000   1405897   1405925   1406070   1406149   1406000  
  7790.000000   1405541   1404782   1403816   1402782   1401803  
  7780.000000   1400959   1400248   1399615   1398965   1398231  
  7770.000000   1397382   1396453   1395522   1394682   1394017  
  7760.000000   1393566   1393335   1393284   1393362   1393507  
  7750.000000   1393669   1393807   1393891   1393900   1393801  
  7740.000000   1393565   1393144   1392496   1391578   1390385  
  7730.000000   1388944   1387344   1385720   1384231   1383030  
  7720.000000   1382217   1381831   1381827   1382121   1382600  
  7710.000000   1383177   1383790   1384403   1384985   1385475  
  7700.000000   1385794   1385833   1385515   1384801   1383746  
  7690.000000   1382462   1381113   1379855   1378805   1378024  
  7680.000000   1377519   1377278   1377279   1377513   1377955  
  7670.000000   1378555   1379215   1379806   1380199   1380309  
  7660.000000   1380143   1379787   1379394   1379104   1379006  
  7650.000000   1379087   1379258   1379389   1379380   1379199  
  7640.000000   1378893   1378567   1378321   1378213   1378230  
  7630.000000   1378303   1378351   1378314   1378189   1378008  
  7620.000000   1377828   1377674   1377547   1377406   1377223  
  7610.000000   1376992   1376769   1376643   1376718   1377059  
  7600.000000   1377676   1378519   1379511   1380572   1381655  
  7590.000000   1382741   1383830   1384902   1385916   1386796  
  7580.000000   1387478   1387925   1388172   1388310   1388474  
  7570.000000   1388775   1389279   1389964   1390749   1391523  
  7560.000000   1392205   1392766   1393252   1393751   1394368  
  7550.000000   1395182   1396227   1397481   1398891   1400383  
  7540.000000   1401896   1403377   1404807   1406168   1407470  
  7530.000000   1408722   1409950   1411180   1412444   1413765  
  7520.000000   1415164   1416649   1418228   1419903   1421675  
  7510.000000   1423532   1425451   1427381   1429263   1431025  
  7500.000000   1432624   1434049   1435350   1436615   1437962  
  7490.000000   1439487   1441254   1443265   1445474   1447796  
  7480.000000   1450146   1452455   1454693   1456857   1458973  
  7470.000000   1461068   1463179   1465322   1467519   1469775  
  7460.000000   1472099   1474478   1476902   1479337   1481760  
  7450.000000   1484146   1486494   1488825   1491184   1493630  
  7440.000000   1496222   1499000   1501976   1505131   1508414  
  7430.000000   1511752   1515059   1518251   1521262   1524052  
  7420.000000   1526620   1528997   1531245   1533442   1535659  
  7410.000000   1537952   1540347   1542845   1545429   1548082  
  7400.000000   1550794   1553572   1556423   1559356   1562349  
  7390.000000   1565361   1568317   1571139   1573761   1576158  
  7380.000000   1578360   1580442   1582513   1584673   1586978  
  7370.000000   1589420   1591929   1594394   1596706   1598802  
  7360.000000   1600690   1602459   1604252   1606225   1608492  
  7350.000000   1611100   1614012   1617129   1620322   1623472  
  7340.000000   1626504   1629384   1632105   1634668   1637070  
  7330.000000   1639305   1641384   1643346   1645264   1647231  
  7320.000000   1649315   1651543   1653870   1656212   1658458  
  7310.000000   1660546   1662468   1664298   1666136   1668073  
  7300.000000   1670125   1672230   1674249   1676040   1677498  
  7290.000000   1678620   1679486   1680242   1681033   1681956  
  7280.000000   1683027   1684199   1685382   1686501   1687512  
  7270.000000   1688419   1689257   1690070   1690896   1691748  
  7260.000000   1692634   1693546   1694492   1695470   1696495  
  7250.000000   1697567   1698708   1699938   1701311   1702888  
  7240.000000   1704745   1706919   1709411   1712138   1714995  
  7230.000000   1717842   1720593   1723198   1725694   1728137  
  7220.000000   1730614   1733167   1735830   1738595   1741481  
  7210.000000   1744504   1747721   1751165   1754852   1758728  
  7200.000000   1762703   1766655   1770512   1774251   1777953  
  7190.000000   1781722   1785688   1789900   1794346   1798917  
  7180.000000   1803501   1807997   1812411   1816811   1821341  
  7170.000000   1826117   1831214   1836595   1842171   1847793  
  7160.000000   1853363   1858815   1864176   1869495   1874860  
  7150.000000   1880333   1885977   1891817   1897895   1904213  
  7140.000000   1910781   1917544   1924437   1931339   1938168  
  7130.000000   1944851   1951410   1957906   1964469   1971207  
  7120.000000   1978221   1985529   1993127   2000960   2008997  
  7110.000000   2017203   2025568   2034054   2042608   2051130  
  7100.000000   2059528   2067717   2075688   2083485   2091222  
  7090.000000   2099004   2106923   2115001   2123222   2131530  
  7080.000000   2139889   2148281   2156725   2165245   2173853  
  7070.000000   2182521   2191200   2199826   2208366   2216816  
  7060.000000   2225209   2233583   2241963   2250334   2258662  
  7050.000000   2266907   2275055   2283135   2291203   2299324  
  7040.000000   2307523   2315784   2324039   2332210   2340231  
  7030.000000   2348093   2355827   2363502   2371170   2378861  
  7020.000000   2386547   2394184   2401712   2409106   2416356  
  7010.000000   2423486   2430502   2437413   2444189   2450814  
  7000.000000   2457270   2463588   2469801   2475970   2482106  
  6990.000000   2488203   2494191   2500005   2505572   2510886  
  6980.000000   2515965   2520888   2525709   2530489   2535222  
  6970.000000   2539894   2544453   2548875   2553131   2557234  
  6960.000000   2561184   2564998   2568668   2572206   2575608  
  6950.000000   2578906   2582114   2585270   2588371   2591417  
  6940.000000   2594374   2597231   2599969   2602613   2605183  
  6930.000000   2607717   2610217   2612676   2615056   2617328  
  6920.000000   2619469   2621490   2623408   2625251   2627022  
  6910.000000   2628714   2630301   2631780   2633160   2634497  
  6900.000000   2635851   2637283   2638816   2640436   2642085  
  6890.000000   2643709   2645261   2646734   2648145   2649527  
  6880.000000   2650896   2652252   2653572   2654841   2656059  
  6870.000000   2657251   2658455   2659696   2660962   2662200  
  6860.000000   2663333   2664294   2665060   2665676   2666234  
  6850.000000   2666857   2667634   2668608   2669753   2670999  
  6840.000000   2672262   2673476   2674600   2675622   2676530  
  6830.000000   2677316   2677958   2678451   2678814   2679110  
  6820.000000   2679429   2679870   2680495   2681315   2682272  
  6810.000000   2683273   2684208   2684997   2685597   2686008  
  6800.000000   2686250   2686356   2686347   2686249   2686091  
  6790.000000   2685921   2685789   2685748   2685811   2685961  
  6780.000000   2686133   2686257   2686261   2686118   2685827  
  6770.000000   2685423   2684933   2684374   2683731   2682981  
  6760.000000   2682108   2681126   2680082   2679050   2678096  
  6750.000000   2677267   2676560   2675947   2675374   2674799  
  6740.000000   2674195   2673558   2672894   2672208   2671495  
  6730.000000   2670745   2669948   2669107   2668240   2667372  
  6720.000000   2666524   2665692   2664852   2663962   2662979  
  6710.000000   2661882   2660675   2659397   2658100   2656843  
  6700.000000   2655670   2654611   2653669   2652835   2652074  
  6690.000000   2651346   2650592   2649757   2648789   2647661  
  6680.000000   2646370   2644949   2643442   2641899   2640350  
  6670.000000   2638802   2637238   2635637   2633981   2632276  
  6660.000000   2630540   2628804   2627088   2625406   2623750  
  6650.000000   2622117   2620505   2618932   2617414   2615967  
  6640.000000   2614579   2613215   2611816   2610325   2608703  
  6630.000000   2606945   2605082   2603165   2601245   2599358  
  6620.000000   2597516   2595712   2593935   2592180   2590452  
  6610.000000   2588762   2587110   2585485   2583856   2582192  
  6600.000000   2580468   2578683   2576861   2575039   2573253  
  6590.000000   2571524   2569848   2568201   2566552   2564870  
  6580.000000   2563135   2561339   2559480   2557559   2555584  
  6570.000000   2553566   2551530   2549516   2547570   2545732  
  6560.000000   2544026   2542449   2540970   2539547   2538135  
  6550.000000   2536703   2535243   2533758   2532265   2530771  
  6540.000000   2529280   2527786   2526284   2524773   2523265  
  6530.000000   2521772   2520315   2518909   2517565   2516288  
  6520.000000   2515083   2513950   2512890   2511893   2510946  
  6510.000000   2510025   2509111   2508189   2507261   2506338  
  6500.000000   2505443   2504594   2503799   2503049   2502326  
  6490.000000   2501612   2500890   2500157   2499411   2498654  
  6480.000000   2497877   2497068   2496208   2495288   2494307  
  6470.000000   2493275   2492205   2491097   2489939   2488709  
  6460.000000   2487386   2485972   2484501   2483041   2481675  
  6450.000000   2480476   2479483   2478685   2478025   2477426  
  6440.000000   2476811   2476132   2475380   2474572   2473748  
  6430.000000   2472937   2472161   2471419   2470704   2470001  
  6420.000000   2469304   2468608   2467915   2467223   2466534  
  6410.000000   2465849   2465176   2464529   2463922   2463361  
  6400.000000   2462838   2462330   2461806   2461240   2460625  
  6390.000000   2459978   2459334   2458738   2458223   2457801  
  6380.000000   2457460   2457167   2456884   2456579   2456231  
  6370.000000   2455838   2455400   2454924   2454414   2453873  
  6360.000000   2453305   2452719   2452125   2451531   2450940  
  6350.000000   2450346   2449735   2449094   2448411   2447687  
  6340.000000   2446925   2446139   2445335   2444523   2443707  
  6330.000000   2442898   2442105   2441343   2440618   2439929  
  6320.000000   2439249   2438546   2437775   2436908   2435927  
  6310.000000   2434848   2433694   2432505   2431299   2430091  
  6300.000000   2428869   2427625   2426340   2425013   2423638  
  6290.000000   2422219   2420743   2419202   2417573   2415854  
  6280.000000   2414044   2412175   2410278   2408397   2406547  
  6270.000000   2404731   2402921   2401079   2399162   2397147  
  6260.000000   2395023   2392806   2390518   2388195   2385867  
  6250.000000   2383569   2381324   2379152   2377054   2375019  
  6240.000000   2373009   2370980   2368880   2366674   2364346  
  6230.000000   2361910   2359399   2356862   2354340   2351864  
  6220.000000   2349450   2347103   2344823   2342610   2340461  
  6210.000000   2338372   2336329   2334311   2332292   2330247  
  6200.000000   2328163   2326035   2323875   2321694   2319505  
  6190.000000   2317313   2315119   2312922   2310729   2308551  
  6180.000000   2306405   2304310   2302281   2300328   2298451  
  6170.000000   2296647   2294906   2293209   2291529   2289827  
  6160.000000   2288063   2286195   2284206   2282099   2279912  
  6150.000000   2277703   2275540   2273474   2271531   2269708  
  6140.000000   2267978   2266308   2264673   2263060   2261470  
  6130.000000   2259905   2258360   2256820   2255263   2253670  
  6120.000000   2252040   2250390   2248755   2247172   2245670  
  6110.000000   2244254   2242913   2241617   2240341   2239065  
  6100.000000   2237793   2236533   2235311   2234143   2233049  
  6090.000000   2232032   2231105   2230267   2229530   2228891  
  6080.000000   2228348   2227882   2227474   2227092   2226720  
  6070.000000   2226340   2225964   2225598   2225270   2224988  
  6060.000000   2224773   2224620   2224536   2224508   2224543  
  6050.000000   2224634   2224792   2225018   2225331   2225733  
  6040.000000   2226245   2226869   2227618   2228483   2229467  
  6030.000000   2230550   2231725   2232975   2234294   2235669  
  6020.000000   2237097   2238565   2240069   2241593   2243140  
  6010.000000   2244704   2246296   2247916   2249572   2251254  
  6000.000000   2252950   2254633   2256291   2257907   2259491  
  5990.000000   2261054   2262629   2264236   2265906   2267647  
  5980.000000   2269473   2271386   2273397   2275512   2277744  
  5970.000000   2280097   2282580   2285188   2287922   2290773  
  5960.000000   2293738   2296793   2299921   2303074   2306208  
  5950.000000   2309269   2312227   2315065   2317810   2320505  
  5940.000000   2323214   2325991   2328878   2331887   2335007  
  5930.000000   2338214   2341476   2344765   2348056   2351324  
  5920.000000   2354542   2357681   2360716   2363630   2366425  
  5910.000000   2369119   2371744   2374330   2376902   2379471  
  5900.000000   2382041   2384614   2387198   2389818   2392498  
  5890.000000   2395267   2398131   2401078   2404069   2407057  
  5880.000000   2409990   2412830   2415557   2418172   2420688  
  5870.000000   2423122   2425497   2427826   2430129   2432419  
  5860.000000   2434716   2437036   2439393   2441795   2444251  
  5850.000000   2446763   2449340   2451989   2454717   2457525  
  5840.000000   2460407   2463351   2466341   2469366   2472418  
  5830.000000   2475495   2478594   2481703   2484793   2487829  
  5820.000000   2490760   2493554   2496183   2498653   2500976  
  5810.000000   2503184   2505287   2507304   2509215   2511021  
  5800.000000   2512697   2514257   2515693   2517036   2518275  
  5790.000000   2519421   2520435   2521300   2521962   2522396  
  5780.000000   2522554   2522422   2521972   2521207   2520133  
  5770.000000   2518795   2517248   2515579   2513865   2512187  
  5760.000000   2510590   2509104   2507731   2506475   2505337  
  5750.000000   2504334   2503483   2502797   2502270   2501871  
  5740.000000   2501559   2501282   2501012   2500730   2500454  
  5730.000000   2500201   2500001   2499861   2499784   2499753  
  5720.000000   2499761   2499797   2499871   2499992   2500173  
  5710.000000   2500417   2500723   2501082   2501492   2501953  
  5700.000000   2502472   2503056   2503701   2504391   2505098  
  5690.000000   2505791   2506439   2507031   2507558   2508029  
  5680.000000   2508444   2508805   2509094   2509298   2509395  
  5670.000000   2509377   2509231   2508959   2508553   2508015  
  5660.000000   2507341   2506543   2505639   2504669   2503671  
  5650.000000   2502688   2501743   2500845   2499981   2499138  
  5640.000000   2498297   2497458   2496622   2495802   2495001  
  5630.000000   2494220   2493449   2492679   2491908   2491144  
  5620.000000   2490402   2489698   2489038   2488417   2487816  
  5610.000000   2487214   2486593   2485948   2485284   2484612  
  5600.000000   2483935   2483251   2482543   2481794   2480985  
  5590.000000   2480114   2479179   2478194   2477163   2476092  
  5580.000000   2474978   2473821   2472625   2471405   2470178  
  5570.000000   2468967   2467782   2466625   2465487   2464355  
  5560.000000   2463216   2462066   2460905   2459735   2458560  
  5550.000000   2457376   2456182   2454981   2453782   2452604  
  5540.000000   2451463   2450370   2449318   2448291   2447265  
  5530.000000   2446223   2445163   2444102   2443064   2442076  
  5520.000000   2441143   2440253   2439374   2438465   2437493  
  5510.000000   2436443   2435312   2434118   2432877   2431608  
  5500.000000   2430325   2429045   2427782   2426559   2425383  
  5490.000000   2424258   2423155   2422037   2420850   2419558  
  5480.000000   2418137   2416597   2414966   2413283   2411574  
  5470.000000   2409853   2408111   2406336   2404513   2402644  
  5460.000000   2400736   2398803   2396847   2394863   2392831  
  5450.000000   2390736   2388572   2386351   2384103   2381862  
  5440.000000   2379659   2377514   2375436   2373430   2371506  
  5430.000000   2369673   2367946   2366317   2364776   2363286  
  5420.000000   2361824   2360369   2358945   2357585   2356359  
  5410.000000   2355308   2354466   2353806   2353299   2352883  
  5400.000000   2352535   2352231   2351995   2351837   2351795  
  5390.000000   2351864   2352064   2352384   2352858   2353501  
  5380.000000   2354370   2355477   2356849   2358440   2360227  
  5370.000000   2362136   2364159   2366266   2368511   2370907  
  5360.000000   2373532   2376389   2379541   2382969   2386737  
  5350.000000   2390831   2395324   2400196   2405501   2411187  
  5340.000000   2417290   2423755   2430655   2437975   2445822  
  5330.000000   2454179   2463126   2472590   2482605   2493080  
  5320.000000   2504082   2515578   2527710   2540486   2554067  
  5310.000000   2568428   2583672   2599717   2616627   2634314  
  5300.000000   2652865   2672232   2692535   2713753   2735998  
  5290.000000   2759217   2783456   2808585   2834562   2861209  
  5280.000000   2888476   2916255   2944596   2973511   3003119  
  5270.000000   3033436   3064464   3096053   3127995   3160032  
  5260.000000   3191943   3223610   3255000   3286190   3317220  
  5250.000000   3348135   3378811   3409122   3438789   3467677  
  5240.000000   3495591   3522579   3548620   3573892   3598402  
  5230.000000   3622281   3645425   3667844   3689341   3709904  
  5220.000000   3729383   3747871   3765338   3781983   3797831  
  5210.000000   3813068   3827639   3841606   3854794   3867190  
  5200.000000   3878624   3889163   3898753   3907557   3915572  
  5190.000000   3922934   3929570   3935530   3940694   3945112  
  5180.000000   3948721   3951641   3953864   3955521   3956583  
  5170.000000   3957128   3957092   3956542   3955442   3953892  
  5160.000000   3951884   3949508   3946727   3943580   3940001  
  5150.000000   3936023   3931610   3926830   3921684   3916248  
  5140.000000   3910515   3904537   3898300   3891858   3885223  
  5130.000000   3878468   3871609   3864696   3857709   3850650  
  5120.000000   3843472   3836178   3828755   3821240   3813658  
  5110.000000   3806052   3798432   3790810   3783171   3775511  
  5100.000000   3767822   3760117   3752405   3744707   3737032  
  5090.000000   3729391   3721789   3714241   3706756   3699356  
  5080.000000   3692041   3684809   3677633   3670483   3663319  
  5070.000000   3656124   3648885   3641614   3634319   3627011  
  5060.000000   3619679   3612305   3604859   3597321   3589681  
  5050.000000   3581952   3574154   3566320   3558468   3550616  
  5040.000000   3542766   3534920   3527076   3519239   3511417  
  5030.000000   3503617   3495848   3488109   3480406   3472739  
  5020.000000   3465127   3457580   3450131   3442791   3435590  
  5010.000000   3428529   3421625   3414869   3408283   3401863  
  5000.000000   3395638   3389606   3383798   3378200   3372839  
  4990.000000   3367691   3362786   3358104   3353682   3349503  
  4980.000000   3345604   3341961   3338612   3335528   3332754  
  4970.000000   3330267   3328119   3326291   3324831   3323712  
  4960.000000   3322978   3322595   3322607   3322986   3323775  
  4950.000000   3324941   3326515   3328445   3330752   3333378  
  4940.000000   3336351   3339632   3343265   3347221   3351544  
  4930.000000   3356190   3361180   3366460   3372043   3377884  
  4920.000000   3384013   3390405   3397100   3404077   3411368  
  4910.000000   3418942   3426815   3434950   3443350   3451973  
  4900.000000   3460811   3469817   3478974   3488244   3497618  
  4890.000000   3507074   3516608   3526204   3535839   3545480  
  4880.000000   3555077   3564587   3573956   3583153   3592138  
  4870.000000   3600899   3609400   3617637   3625581   3633242  
  4860.000000   3640606   3647708   3654552   3661178   3667578  
  4850.000000   3673778   3679751   3685512   3691042   3696374  
  4840.000000   3701508   3706495   3711342   3716088   3720725  
  4830.000000   3725276   3729721   3734076   3738320   3742460  
  4820.000000   3746468   3750344   3754060   3757621   3761020  
  4810.000000   3764284   3767425   3770476   3773442   3776333  
  4800.000000   3779131   3781835   3784424   3786910   3789292  
  4790.000000   3791599   3793833   3796015   3798136   3800201  
  4780.000000   3802198   3804135   3806008   3807832   3809600  
  4770.000000   3811322   3812973   3814549   3816021   3817383  
  4760.000000   3818612   3819713   3820667   3821480   3822132  
  4750.000000   3822632   3822962   3823140   3823159   3823041  
  4740.000000   3822777   3822381   3821833   3821137   3820271  
  4730.000000   3819242   3818035   3816668   3815138   3813468  
  4720.000000   3811665   3809757   3807760   3805709   3803625  
  4710.000000   3801538   3799457   3797397   3795354   3793328  
  4700.000000   3791317   3789327   3787367   3785452   3783595  
  4690.000000   3781807   3780093   3778448   3776863   3775321  
  4680.000000   3773801   3772276   3770720   3769101   3767403  
  4670.000000   3765615   3763750   3761828   3759896   3757986  
  4660.000000   3756140   3754374   3752705   3751130   3749659  
  4650.000000   3748297   3747071   3746001   3745116   3744426  
  4640.000000   3743930   3743601   3743409   3743310   3743273  
  4630.000000   3743266   3743273   3743276   3743269   3743236  
  4620.000000   3743171   3743066   3742921   3742737   3742521  
  4610.000000   3742275   3741999   3741687   3741334   3740938  
  4600.000000   3740505   3740054   3739604   3739182   3738801  
  4590.000000   3738469   3738176   3737907   3737634   3737339  
  4580.000000   3736998   3736599   3736130   3735588   3734968  
  4570.000000   3734273   3733502   3732661   3731753   3730784  
  4560.000000   3729759   3728685   3727567   3726416   3725238  
  4550.000000   3724044   3722838   3721621   3720392   3719146  
  4540.000000   3717888   3716623   3715373   3714155   3713001  
  4530.000000   3711920   3710935   3710035   3709240   3708537  
  4520.000000   3707967   3707536   3707312   3707307   3707594  
  4510.000000   3708168   3709088   3710332   3711962   3713956  
  4500.000000   3716395   3719264   3722654   3726547   3731032  
  4490.000000   3736088   3741804   3748161   3755249   3763044  
  4480.000000   3771618   3780928   3791014   3801810   3813325  
  4470.000000   3825472   3838229   3851481   3865175   3879178  
  4460.000000   3893424   3907795   3922243   3936688   3951108  
  4450.000000   3965450   3979691   3993788   4007711   4021436  
  4440.000000   4034950   4048274   4061418   4074440   4087350  
  4430.000000   4100200   4112960   4125649   4138188   4150571  
  4420.000000   4162697   4174555   4186037   4197132   4207720  
  4410.000000   4217773   4227148   4235800   4243586   4250481  
  4400.000000   4256397   4261382   4265440   4268697   4271225  
  4390.000000   4273182   4274652   4275768   4276593   4277229  
  4380.000000   4277723   4278166   4278616   4279172   4279911  
  4370.000000   4280930   4282307   4284115   4286406   4289201  
  4360.000000   4292503   4296279   4300480   4305031   4309852  
  4350.000000   4314860   4319976   4325150   4330341   4335545  
  4340.000000   4340758   4345987   4351191   4356299   4361154  
  4330.000000   4365557   4369256   4372029   4373702   4374239  
  4320.000000   4373724   4372407   4370600   4368681   4366951  
  4310.000000   4365657   4364888   4364660   4364871   4365417  
  4300.000000   4366155   4366999   4367861   4368698   4369468  
  4290.000000   4370143   4370705   4371148   4371485   4371745  
  4280.000000   4371964   4372187   4372436   4372742   4373098  
  4270.000000   4373519   4373973   4374440   4374841   4375088  
  4260.000000   4375035   4374541   4373462   4371722   4369306  
  4250.000000   4366305   4362869   4359212   4355531   4352012  
  4240.000000   4348754   4345815   4343168   4340770   4338540  
  4230.000000   4336418   4334335   4332244   4330104   4327878  
  4220.000000   4325548   4323094   4320533   4317875   4315175  
  4210.000000   4312470   4309828   4307292   4304924   4302755  
  4200.000000   4300831   4299163   4297779   4296660   4295811  
  4190.000000   4295184   4294768   4294504   4294396   4294398  
  4180.000000   4294543   4294810   4295262   4295904   4296829  
  4170.000000   4298065   4299730   4301860   4304563   4307844  
  4160.000000   4311768   4316284   4321411   4327066   4333262  
  4150.000000   4339924   4347086   4354690   4362782   4371307  
  4140.000000   4380314   4389754   4399685   4410068   4420962  
  4130.000000   4432326   4444198   4456518   4469303   4482491  
  4120.000000   4496104   4510104   4524531   4539363   4554638  
  4110.000000   4570324   4586431   4602905   4619734   4636851  
  4100.000000   4654233   4671821   4689596   4707520   4725589  
  4090.000000   4743786   4762114   4780562   4799120   4817772  
  4080.000000   4836492   4855271   4874081   4892933   4911793  
  4070.000000   4930667   4949495   4968260   4986868   5005297  
  4060.000000   5023448   5041312   5058789   5075875   5092459  
  4050.000000   5108548   5124038   5138975   5153281   5167028  
  4040.000000   5180129   5192632   5204404   5215471   5225692  
  4030.000000   5235121   5243654   5251368   5258168   5264098  
  4020.000000   5269004   5272918   5275759   5277598   5278366  
  4010.000000   5278233   5277298   5275635   5273047   5269666  
  4000.000000   5265892  
##END= 
