##TITLE= Sample 001 By ssteindl date Montag, November 26 2018
##JCAMP-DX= 4.24
##DATA TYPE= INFRARED SPECTRUM
##ORIGIN= Exported PE Spectrum Data File
##OWNER= Sandra Steindl
##DATE= 18/11/26
##TIME= 14:03:22.00
##SPECTROMETER/DATA SYSTEM= PERKIN-ELMER Frontier FT-IR/NIR IR
##INSTRUMENT PARAMETERS=
  APODIZATION=stark
  DETECTOR=INGAAS
##RESOLUTION= 16.000000
##DELTAX= -2.000000
##XUNITS= 1/CM
##YUNITS= A
##XFACTOR= 1.00
##YFACTOR= 0.00000011920928955078
##FIRSTX= 10000.00
##LASTX= 4000.00
##NPOINTS= 3001
##FIRSTY= 0.224305
##MAXY= 0.610361
##MINY= 0.194937
##XYDATA= (X++(Y..Y))
 10000.000000   1881606   1875530   1868163   1858363   1847320  
  9990.000000   1837331   1829913   1825469   1824214   1825996  
  9980.000000   1829758   1833680   1836058   1835779   1832655  
  9970.000000   1827443   1821777   1817466   1815857   1817318  
  9960.000000   1821143   1825819   1829651   1831368   1830578  
  9950.000000   1827795   1824131   1820744   1818379   1817062  
  9940.000000   1816262   1815100   1812903   1809335   1804630  
  9930.000000   1799363   1794268   1790056   1787202   1786070  
  9920.000000   1786827   1789633   1794528   1801428   1809960  
  9910.000000   1819398   1828681   1836553   1841865   1843798  
  9900.000000   1842158   1837302   1830156   1821864   1813653  
  9890.000000   1806516   1801105   1797638   1795902   1795437  
  9880.000000   1795624   1796006   1796290   1796528   1796906  
  9870.000000   1797745   1799265   1801553   1804517   1807895  
  9860.000000   1811372   1814563   1817155   1818833   1819382  
  9850.000000   1818627   1816505   1813088   1808618   1803548  
  9840.000000   1798437   1793915   1790456   1788353   1787589  
  9830.000000   1787958   1789093   1790603   1792103   1793216  
  9820.000000   1793598   1792917   1790985   1787790   1783610  
  9810.000000   1778964   1774536   1771016   1768913   1768471  
  9800.000000   1769578   1771896   1774915   1778146   1781156  
  9790.000000   1783594   1785162   1785538   1784471   1781761  
  9780.000000   1777478   1771917   1765714   1759625   1754439  
  9770.000000   1750732   1748774   1748521   1749673   1751845  
  9760.000000   1754641   1757773   1761041   1764329   1767562  
  9750.000000   1770664   1773563   1776162   1778398   1780211  
  9740.000000   1781619   1782656   1783425   1784009   1784499  
  9730.000000   1784920   1785242   1785366   1785137   1784440  
  9720.000000   1783197   1781530   1779665   1778029   1777038  
  9710.000000   1777092   1778394   1780940   1784466   1788488  
  9700.000000   1792321   1795185   1796285   1795034   1791200  
  9690.000000   1785100   1777615   1770056   1763859   1760158  
  9680.000000   1759411   1761180   1764235   1766914   1767697  
  9670.000000   1765697   1760948   1754357   1747345   1741380  
  9660.000000   1737524   1736209   1737258   1740086   1743994  
  9650.000000   1748381   1752816   1756994   1760577   1763176  
  9640.000000   1764385   1763956   1762005   1758994   1755680  
  9630.000000   1752743   1750588   1749141   1747949   1746433  
  9620.000000   1744172   1741173   1737862   1734952   1733118  
  9610.000000   1732719   1733645   1735377   1737209   1738527  
  9600.000000   1739006   1738688   1737901   1737122   1736813  
  9590.000000   1737322   1738825   1741302   1744510   1747974  
  9580.000000   1751005   1752830   1752788   1750558   1746361  
  9570.000000   1740931   1735384   1730804   1727923   1726810  
  9560.000000   1726881   1727136   1726554   1724572   1721298  
  9550.000000   1717571   1714619   1713642   1715355   1719727  
  9540.000000   1726013   1732947   1739176   1743548   1745443  
  9530.000000   1744804   1742132   1738307   1734362   1731286  
  9520.000000   1729785   1730183   1732328   1735671   1739370  
  9510.000000   1742545   1744448   1744693   1743271   1740544  
  9500.000000   1737066   1733397   1729959   1726935   1724335  
  9490.000000   1722059   1720035   1718283   1716913   1716100  
  9480.000000   1715976   1716583   1717816   1719434   1721121  
  9470.000000   1722534   1723430   1723677   1723328   1722578  
  9460.000000   1721722   1721093   1720960   1721492   1722707  
  9450.000000   1724493   1726654   1728929   1731041   1732672  
  9440.000000   1733486   1733150   1731430   1728295   1724022  
  9430.000000   1719202   1714645   1711209   1709521   1709836  
  9420.000000   1711878   1714994   1718321   1721128   1722995  
  9410.000000   1723911   1724118   1723939   1723552   1722907  
  9400.000000   1721787   1719947   1717357   1714257   1711156  
  9390.000000   1708599   1706907   1706040   1705537   1704780  
  9380.000000   1703210   1700643   1697361   1694057   1691570  
  9370.000000   1690517   1691027   1692655   1694562   1695806  
  9360.000000   1695699   1694004   1691051   1687558   1684422  
  9350.000000   1682360   1681715   1682361   1683826   1685462  
  9340.000000   1686693   1687143   1686757   1685767   1684598  
  9330.000000   1683732   1683506   1684072   1685329   1687024  
  9320.000000   1688832   1690472   1691788   1692762   1693471  
  9310.000000   1693977   1694249   1694110   1693302   1691553  
  9300.000000   1688737   1684953   1680599   1676298   1672729  
  9290.000000   1670488   1669847   1670777   1672883   1675623  
  9280.000000   1678421   1680875   1682829   1684323   1685509  
  9270.000000   1686468   1687132   1687212   1686317   1684111  
  9260.000000   1680571   1676060   1671334   1667319   1664838  
  9250.000000   1664344   1665708   1668250   1670919   1672693  
  9240.000000   1672928   1671555   1669058   1666285   1664134  
  9230.000000   1663245   1663797   1665503   1667813   1670139  
  9220.000000   1672079   1673458   1674291   1674661   1674617  
  9210.000000   1674143   1673206   1671822   1670152   1668464  
  9200.000000   1667076   1666195   1665832   1665812   1665859  
  9190.000000   1665755   1665441   1665073   1664942   1665335  
  9180.000000   1666358   1667877   1669544   1670961   1671840  
  9170.000000   1672129   1672029   1671880   1672016   1672594  
  9160.000000   1673528   1674499   1675067   1674853   1673655  
  9150.000000   1671524   1668721   1665681   1662904   1660847  
  9140.000000   1659794   1659807   1660692   1662020   1663195  
  9130.000000   1663636   1662951   1661075   1658287   1655162  
  9120.000000   1652416   1650657   1650204   1650948   1652470  
  9110.000000   1654125   1655323   1655639   1654963   1653464  
  9100.000000   1651491   1649471   1647782   1646745   1646586  
  9090.000000   1647444   1649336   1652158   1655661   1659424  
  9080.000000   1662889   1665470   1666713   1666378   1664528  
  9070.000000   1661470   1657766   1653995   1650678   1648125  
  9060.000000   1646440   1645555   1645251   1645315   1645560  
  9050.000000   1645991   1646732   1648032   1650100   1653012  
  9040.000000   1656614   1660451   1663872   1666144   1666753  
  9030.000000   1665510   1662700   1658990   1655280   1652417  
  9020.000000   1650922   1650911   1652079   1653894   1655745  
  9010.000000   1657190   1658024   1658311   1658229   1657979  
  9000.000000   1657651   1657232   1656634   1655779   1654684  
  8990.000000   1653457   1652300   1651409   1650907   1650779  
  8980.000000   1650850   1650859   1650516   1649623   1648121  
  8970.000000   1646152   1644026   1642151   1640915   1640563  
  8960.000000   1641111   1642317   1643748   1644884   1645308  
  8950.000000   1644800   1643432   1641501   1639422   1637589  
  8940.000000   1636256   1635496   1635248   1635396   1635880  
  8930.000000   1636693   1637860   1639349   1641005   1642537  
  8920.000000   1643573   1643794   1643085   1641609   1639803  
  8910.000000   1638228   1637416   1637672   1638998   1641086  
  8900.000000   1643422   1645460   1646763   1647123   1646572  
  8890.000000   1645367   1643912   1642655   1641978   1642104  
  8880.000000   1643051   1644614   1646416   1647999   1648968  
  8870.000000   1649114   1648485   1647372   1646191   1645346  
  8860.000000   1645069   1645363   1646025   1646765   1647350  
  8850.000000   1647717   1647986   1648384   1649110   1650218  
  8840.000000   1651564   1652842   1653711   1653923   1653450  
  8830.000000   1652463   1651294   1650280   1649685   1649614  
  8820.000000   1650038   1650834   1651860   1652998   1654170  
  8810.000000   1655329   1656419   1657405   1658270   1659072  
  8800.000000   1659933   1661024   1662481   1664328   1666427  
  8790.000000   1668488   1670159   1671121   1671211   1670453  
  8780.000000   1669070   1667375   1665683   1664201   1663008  
  8770.000000   1662091   1661408   1660962   1660808   1661065  
  8760.000000   1661829   1663151   1664957   1667083   1669306  
  8750.000000   1671407   1673241   1674725   1675868   1676687  
  8740.000000   1677232   1677517   1677566   1677403   1677090  
  8730.000000   1676724   1676427   1676327   1676519   1677067  
  8720.000000   1677973   1679209   1680699   1682339   1683994  
  8710.000000   1685508   1686732   1687550   1687929   1687922  
  8700.000000   1687701   1687481   1687490   1687875   1688671  
  8690.000000   1689789   1691059   1692309   1693423   1694404  
  8680.000000   1695344   1696395   1697680   1699238   1701011  
  8670.000000   1702848   1704587   1706078   1707256   1708103  
  8660.000000   1708660   1708974   1709100   1709102   1709068  
  8650.000000   1709144   1709517   1710393   1711906   1714074  
  8640.000000   1716741   1719634   1722419   1724807   1726634  
  8630.000000   1727884   1728685   1729203   1729584   1729881  
  8620.000000   1730082   1730149   1730096   1730031   1730146  
  8610.000000   1730670   1731756   1733430   1735537   1737812  
  8600.000000   1739935   1741660   1742885   1743671   1744220  
  8590.000000   1744756   1745469   1746422   1747561   1748735  
  8580.000000   1749764   1750513   1750932   1751099   1751185  
  8570.000000   1751443   1752116   1753407   1755386   1757976  
  8560.000000   1760939   1763919   1766521   1768403   1769369  
  8550.000000   1769414   1768733   1767652   1766556   1765774  
  8540.000000   1765512   1765822   1766618   1767736   1768966  
  8530.000000   1770133   1771105   1771846   1772383   1772822  
  8520.000000   1773299   1773949   1774866   1776035   1777338  
  8510.000000   1778546   1779422   1779759   1779496   1778731  
  8500.000000   1777728   1776816   1776281   1776287   1776836  
  8490.000000   1777813   1779046   1780427   1781956   1783734  
  8480.000000   1785877   1788415   1791225   1794005   1796371  
  8470.000000   1797948   1798557   1798240   1797304   1796186  
  8460.000000   1795336   1795082   1795543   1796653   1798194  
  8450.000000   1799941   1801719   1803466   1805187   1806925  
  8440.000000   1808680   1810380   1811879   1812991   1813582  
  8430.000000   1813591   1813105   1812303   1811447   1810802  
  8420.000000   1810567   1810855   1811640   1812834   1814281  
  8410.000000   1815858   1817478   1819128   1820837   1822644  
  8400.000000   1824540   1826430   1828126   1829391   1830011  
  8390.000000   1829870   1829006   1827633   1826094   1824777  
  8380.000000   1823980   1823857   1824335   1825174   1826004  
  8370.000000   1826458   1826271   1825368   1823868   1822040  
  8360.000000   1820213   1818677   1817604   1817005   1816765  
  8350.000000   1816700   1816657   1816566   1816456   1816442  
  8340.000000   1816637   1817104   1817791   1818545   1819178  
  8330.000000   1819524   1819538   1819268   1818858   1818439  
  8320.000000   1818077   1817719   1817212   1816409   1815258  
  8310.000000   1813898   1812627   1811835   1811836   1812756  
  8300.000000   1814424   1816423   1818197   1819243   1819285  
  8290.000000   1818331   1816669   1814720   1812900   1811474  
  8280.000000   1810501   1809868   1809385   1808913   1808406  
  8270.000000   1807956   1807694   1807753   1808154   1808822  
  8260.000000   1809579   1810215   1810566   1810526   1810088  
  8250.000000   1809274   1808132   1806680   1804935   1802934  
  8240.000000   1800767   1798607   1796673   1795217   1794429  
  8230.000000   1794413   1795114   1796355   1797835   1799234  
  8220.000000   1800256   1800703   1800498   1799682   1798390  
  8210.000000   1796798   1795088   1793391   1791784   1790285  
  8200.000000   1788871   1787510   1786167   1784840   1783531  
  8190.000000   1782267   1781054   1779891   1778742   1777574  
  8180.000000   1776356   1775088   1773806   1772571   1771458  
  8170.000000   1770520   1769768   1769149   1768556   1767853  
  8160.000000   1766910   1765653   1764086   1762303   1760456  
  8150.000000   1758732   1757280   1756183   1755410   1754839  
  8140.000000   1754285   1753559   1752523   1751127   1749415  
  8130.000000   1747495   1745507   1743559   1741719   1739982  
  8120.000000   1738318   1736680   1735055   1733477   1732023  
  8110.000000   1730809   1729942   1729508   1729536   1729988  
  8100.000000   1730761   1731685   1732551   1733125   1733207  
  8090.000000   1732648   1731421   1729611   1727436   1725174  
  8080.000000   1723118   1721488   1720377   1719742   1719412  
  8070.000000   1719177   1718836   1718286   1717518   1716628  
  8060.000000   1715749   1715000   1714437   1714024   1713659  
  8050.000000   1713197   1712518   1711554   1710329   1708944  
  8040.000000   1707553   1706331   1705414   1704882   1704721  
  8030.000000   1704832   1705054   1705204   1705128   1704736  
  8020.000000   1704031   1703090   1702042   1701008   1700066  
  8010.000000   1699228   1698457   1697700   1696942   1696235  
  8000.000000   1695689   1695444   1695593   1696135   1696939  
  7990.000000   1697775   1698375   1698513   1698097   1697173  
  7980.000000   1695924   1694582   1693354   1692354   1691581  
  7970.000000   1690967   1690423   1689917   1689492   1689251  
  7960.000000   1689291   1689642   1690212   1690790   1691110  
  7950.000000   1690917   1690084   1688635   1686769   1684790  
  7940.000000   1683032   1681769   1681153   1681206   1681822  
  7930.000000   1682833   1684034   1685242   1686306   1687126  
  7920.000000   1687649   1687867   1687809   1687526   1687083  
  7910.000000   1686531   1685911   1685242   1684546   1683849  
  7900.000000   1683193   1682634   1682205   1681914   1681702  
  7890.000000   1681476   1681124   1680578   1679849   1679047  
  7880.000000   1678354   1677961   1677994   1678457   1679219  
  7870.000000   1680047   1680691   1680959   1680790   1680255  
  7860.000000   1679527   1678809   1678261   1677962   1677904  
  7850.000000   1678028   1678261   1678554   1678883   1679239  
  7840.000000   1679594   1679894   1680061   1680023   1679750  
  7830.000000   1679268   1678662   1678039   1677491   1677063  
  7820.000000   1676743   1676482   1676226   1675952   1675671  
  7810.000000   1675427   1675258   1675178   1675153   1675124  
  7800.000000   1675026   1674826   1674532   1674197   1673879  
  7790.000000   1673620   1673409   1673193   1672894   1672451  
  7780.000000   1671850   1671130   1670372   1669655   1669024  
  7770.000000   1668465   1667912   1667282   1666510   1665598  
  7760.000000   1664611   1663669   1662903   1662412   1662226  
  7750.000000   1662298   1662519   1662754   1662874   1662791  
  7740.000000   1662465   1661899   1661130   1660209   1659195  
  7730.000000   1658149   1657138   1656224   1655463   1654887  
  7720.000000   1654490   1654230   1654030   1653807   1653491  
  7710.000000   1653048   1652493   1651876   1651270   1650738  
  7700.000000   1650326   1650041   1649871   1649787   1649764  
  7690.000000   1649779   1649818   1649858   1649868   1649803  
  7680.000000   1649623   1649308   1648872   1648370   1647883  
  7670.000000   1647492   1647255   1647184   1647242   1647357  
  7660.000000   1647449   1647450   1647329   1647083   1646737  
  7650.000000   1646323   1645872   1645407   1644948   1644518  
  7640.000000   1644146   1643865   1643695   1643641   1643684  
  7630.000000   1643785   1643895   1643969   1643979   1643904  
  7620.000000   1643739   1643474   1643103   1642620   1642038  
  7610.000000   1641390   1640740   1640173   1639773   1639600  
  7600.000000   1639676   1639975   1640435   1640977   1641521  
  7590.000000   1642000   1642373   1642619   1642744   1642765  
  7580.000000   1642718   1642647   1642608   1642645   1642789  
  7570.000000   1643037   1643358   1643693   1643986   1644196  
  7560.000000   1644320   1644395   1644486   1644661   1644976  
  7550.000000   1645448   1646061   1646770   1647523   1648271  
  7540.000000   1648990   1649668   1650312   1650931   1651536  
  7530.000000   1652131   1652723   1653309   1653897   1654484  
  7520.000000   1655074   1655662   1656249   1656834   1657432  
  7510.000000   1658062   1658760   1659561   1660502   1661603  
  7500.000000   1662868   1664274   1665776   1667314   1668827  
  7490.000000   1670267   1671617   1672892   1674142   1675430  
  7480.000000   1676820   1678336   1679961   1681626   1683237  
  7470.000000   1684690   1685922   1686913   1687713   1688413  
  7460.000000   1689127   1689955   1690967   1692187   1693599  
  7450.000000   1695163   1696835   1698578   1700371   1702204  
  7440.000000   1704082   1706006   1707984   1710006   1712063  
  7430.000000   1714119   1716140   1718073   1719883   1721548  
  7420.000000   1723080   1724519   1725931   1727388   1728947  
  7410.000000   1730643   1732483   1734452   1736523   1738668  
  7400.000000   1740853   1743046   1745200   1747266   1749197  
  7390.000000   1750967   1752586   1754101   1755584   1757110  
  7380.000000   1758726   1760433   1762189   1763921   1765568  
  7370.000000   1767098   1768528   1769909   1771302   1772760  
  7360.000000   1774303   1775930   1777620   1779362   1781162  
  7350.000000   1783031   1784978   1786977   1788968   1790860  
  7340.000000   1792567   1794034   1795265   1796315   1797279  
  7330.000000   1798264   1799353   1800604   1802033   1803639  
  7320.000000   1805401   1807291   1809264   1811261   1813200  
  7310.000000   1814995   1816578   1817927   1819076   1820108  
  7300.000000   1821124   1822209   1823400   1824679   1825983  
  7290.000000   1827241   1828399   1829451   1830427   1831386  
  7280.000000   1832379   1833433   1834540   1835663   1836754  
  7270.000000   1837768   1838680   1839482   1840194   1840843  
  7260.000000   1841472   1842126   1842855   1843701   1844695  
  7250.000000   1845843   1847135   1848541   1850032   1851576  
  7240.000000   1853160   1854766   1856383   1857973   1859502  
  7230.000000   1860919   1862222   1863433   1864638   1865936  
  7220.000000   1867437   1869196   1871222   1873455   1875820  
  7210.000000   1878243   1880707   1883241   1885927   1888832  
  7200.000000   1891996   1895380   1898899   1902423   1905856  
  7190.000000   1909125   1912238   1915230   1918173   1921112  
  7180.000000   1924080   1927068   1930077   1933111   1936213  
  7170.000000   1939441   1942864   1946519   1950408   1954472  
  7160.000000   1958633   1962788   1966868   1970826   1974673  
  7150.000000   1978443   1982213   1986054   1990054   1994258  
  7140.000000   1998698   2003339   2008133   2012985   2017832  
  7130.000000   2022609   2027322   2031995   2036708   2041527  
  7120.000000   2046532   2051754   2057213   2062895   2068793  
  7110.000000   2074886   2081167   2087603   2094159   2100759  
  7100.000000   2107338   2113811   2120149   2126338   2132422  
  7090.000000   2138450   2144492   2150590   2156785   2163094  
  7080.000000   2169541   2176140   2182910   2189846   2196920  
  7070.000000   2204074   2211232   2218326   2225321   2232219  
  7060.000000   2239067   2245915   2252810   2259749   2266699  
  7050.000000   2273585   2280339   2286911   2293294   2299533  
  7040.000000   2305694   2311871   2318138   2324561   2331170  
  7030.000000   2337968   2344915   2351936   2358916   2365721  
  7020.000000   2372220   2378327   2384007   2389314   2394357  
  7010.000000   2399291   2404260   2409380   2414694   2420199  
  7000.000000   2425823   2431488   2437089   2442561   2447839  
  6990.000000   2452912   2457774   2462458   2466990   2471415  
  6980.000000   2475747   2479998   2484144   2488167   2492035  
  6970.000000   2495754   2499330   2502808   2506211   2509568  
  6960.000000   2512862   2516074   2519159   2522104   2524898  
  6950.000000   2527571   2530138   2532628   2535027   2537324  
  6940.000000   2539494   2541552   2543527   2545490   2547495  
  6930.000000   2549581   2551715   2553826   2555803   2557560  
  6920.000000   2559044   2560287   2561367   2562399   2563477  
  6910.000000   2564658   2565936   2567270   2568591   2569841  
  6900.000000   2570975   2571979   2572855   2573630   2574339  
  6890.000000   2575036   2575778   2576620   2577590   2578680  
  6880.000000   2579839   2580989   2582053   2582986   2583793  
  6870.000000   2584532   2585281   2586112   2587049   2588064  
  6860.000000   2589088   2590048   2590894   2591622   2592267  
  6850.000000   2592881   2593501   2594133   2594748   2595311  
  6840.000000   2595795   2596211   2596591   2596987   2597428  
  6830.000000   2597918   2598421   2598889   2599277   2599571  
  6820.000000   2599785   2599955   2600111   2600274   2600435  
  6810.000000   2600580   2600693   2600785   2600876   2601002  
  6800.000000   2601179   2601408   2601656   2601882   2602042  
  6790.000000   2602117   2602103   2602019   2601880   2601694  
  6780.000000   2601457   2601160   2600797   2600382   2599934  
  6770.000000   2599483   2599045   2598624   2598206   2597774  
  6760.000000   2597315   2596837   2596359   2595906   2595496  
  6750.000000   2595132   2594801   2594482   2594158   2593816  
  6740.000000   2593455   2593073   2592667   2592229   2591757  
  6730.000000   2591263   2590776   2590339   2589992   2589754  
  6720.000000   2589604   2589489   2589338   2589091   2588723  
  6710.000000   2588257   2587746   2587254   2586822   2586452  
  6700.000000   2586105   2585721   2585242   2584639   2583913  
  6690.000000   2583098   2582231   2581355   2580489   2579648  
  6680.000000   2578830   2578037   2577255   2576465   2575626  
  6670.000000   2574689   2573600   2572332   2570889   2569324  
  6660.000000   2567715   2566152   2564700   2563388   2562198  
  6650.000000   2561088   2560002   2558899   2557748   2556544  
  6640.000000   2555282   2553966   2552595   2551178   2549734  
  6630.000000   2548297   2546900   2545569   2544300   2543065  
  6620.000000   2541807   2540470   2539013   2537428   2535736  
  6610.000000   2533984   2532214   2530462   2528741   2527057  
  6600.000000   2525407   2523804   2522261   2520794   2519402  
  6590.000000   2518063   2516734   2515363   2513902   2512324  
  6580.000000   2510627   2508829   2506966   2505076   2503196  
  6570.000000   2501363   2499608   2497961   2496441   2495047  
  6560.000000   2493759   2492532   2491314   2490054   2488726  
  6550.000000   2487327   2485885   2484441   2483037   2481705  
  6540.000000   2480462   2479311   2478249   2477268   2476355  
  6530.000000   2475484   2474621   2473717   2472730   2471629  
  6520.000000   2470414   2469117   2467799   2466529   2465372  
  6510.000000   2464368   2463528   2462836   2462252   2461726  
  6500.000000   2461203   2460632   2459972   2459198   2458308  
  6490.000000   2457322   2456281   2455229   2454201   2453209  
  6480.000000   2452239   2451259   2450237   2449164   2448057  
  6470.000000   2446955   2445903   2444923   2444009   2443119  
  6460.000000   2442197   2441198   2440112   2438967   2437822  
  6450.000000   2436738   2435760   2434900   2434138   2433437  
  6440.000000   2432766   2432109   2431468   2430849   2430254  
  6430.000000   2429668   2429063   2428413   2427706   2426956  
  6420.000000   2426199   2425477   2424827   2424256   2423752  
  6410.000000   2423284   2422824   2422357   2421886   2421427  
  6400.000000   2420999   2420611   2420261   2419937   2419629  
  6390.000000   2419333   2419053   2418796   2418566   2418357  
  6380.000000   2418154   2417940   2417701   2417430   2417127  
  6370.000000   2416796   2416431   2416022   2415557   2415029  
  6360.000000   2414444   2413830   2413216   2412636   2412100  
  6350.000000   2411604   2411121   2410624   2410086   2409503  
  6340.000000   2408884   2408246   2407602   2406958   2406302  
  6330.000000   2405625   2404914   2404174   2403411   2402643  
  6320.000000   2401876   2401113   2400342   2399553   2398738  
  6310.000000   2397899   2397041   2396169   2395272   2394329  
  6300.000000   2393303   2392165   2390894   2389499   2388009  
  6290.000000   2386473   2384933   2383429   2381974   2380570  
  6280.000000   2379203   2377859   2376521   2375182   2373826  
  6270.000000   2372450   2371038   2369587   2368091   2366552  
  6260.000000   2364975   2363368   2361733   2360077   2358397  
  6250.000000   2356698   2354981   2353249   2351500   2349732  
  6240.000000   2347936   2346109   2344251   2342381   2340521  
  6230.000000   2338703   2336939   2335227   2333538   2331832  
  6220.000000   2330064   2328211   2326271   2324273   2322259  
  6210.000000   2320274   2318347   2316488   2314694   2312953  
  6200.000000   2311258   2309609   2308012   2306469   2304974  
  6190.000000   2303508   2302047   2300569   2299064   2297534  
  6180.000000   2295993   2294457   2292941   2291450   2289987  
  6170.000000   2288553   2287152   2285788   2284461   2283163  
  6160.000000   2281877   2280578   2279249   2277881   2276488  
  6150.000000   2275094   2273730   2272416   2271154   2269930  
  6140.000000   2268719   2267497   2266252   2264986   2263711  
  6130.000000   2262436   2261168   2259903   2258638   2257372  
  6120.000000   2256119   2254897   2253728   2252616   2251554  
  6110.000000   2250513   2249469   2248401   2247319   2246250  
  6100.000000   2245239   2244327   2243541   2242877   2242320  
  6090.000000   2241831   2241389   2240970   2240576   2240204  
  6080.000000   2239862   2239540   2239237   2238939   2238651  
  6070.000000   2238378   2238146   2237965   2237859   2237826  
  6060.000000   2237876   2238001   2238215   2238524   2238951  
  6050.000000   2239499   2240174   2240956   2241835   2242781  
  6040.000000   2243788   2244845   2245965   2247147   2248405  
  6030.000000   2249734   2251143   2252633   2254226   2255935  
  6020.000000   2257778   2259750   2261835   2263985   2266154  
  6010.000000   2268283   2270345   2272320   2274220   2276055  
  6000.000000   2277851   2279619   2281380   2283152   2284974  
  5990.000000   2286882   2288931   2291149   2293560   2296146  
  5980.000000   2298879   2301709   2304603   2307531   2310495  
  5970.000000   2313500   2316566   2319696   2322896   2326147  
  5960.000000   2329444   2332763   2336101   2339441   2342784  
  5950.000000   2346118   2349452   2352791   2356160   2359586  
  5940.000000   2363106   2366741   2370499   2374366   2378311  
  5930.000000   2382295   2386283   2390252   2394188   2398082  
  5920.000000   2401924   2405695   2409367   2412911   2416301  
  5910.000000   2419530   2422598   2425526   2428334   2431053  
  5900.000000   2433708   2436337   2438969   2441645   2444388  
  5890.000000   2447218   2450122   2453078   2456036   2458956  
  5880.000000   2461797   2464544   2467188   2469734   2472186  
  5870.000000   2474540   2476792   2478938   2480987   2482964  
  5860.000000   2484906   2486859   2488861   2490938   2493103  
  5850.000000   2495359   2497699   2500116   2502603   2505143  
  5840.000000   2507717   2510298   2512864   2515400   2517908  
  5830.000000   2520406   2522917   2525460   2528037   2530634  
  5820.000000   2533221   2535769   2538258   2540684   2543051  
  5810.000000   2545372   2547635   2549835   2551934   2553924  
  5800.000000   2555786   2557554   2559248   2560924   2562584  
  5790.000000   2564238   2565825   2567291   2568532   2569477  
  5780.000000   2570030   2570139   2569742   2568827   2567394  
  5770.000000   2565506   2563249   2560767   2558197   2555682  
  5760.000000   2553311   2551140   2549162   2547361   2545698  
  5750.000000   2544161   2542735   2541427   2540230   2539129  
  5740.000000   2538099   2537111   2536153   2535221   2534341  
  5730.000000   2533526   2532794   2532130   2531513   2530903  
  5720.000000   2530280   2529631   2528975   2528337   2527748  
  5710.000000   2527224   2526772   2526384   2526054   2525780  
  5700.000000   2525566   2525416   2525323   2525263   2525202  
  5690.000000   2525105   2524943   2524717   2524437   2524136  
  5680.000000   2523831   2523532   2523220   2522870   2522439  
  5670.000000   2521897   2521213   2520367   2519332   2518090  
  5660.000000   2516619   2514921   2513014   2510955   2508818  
  5650.000000   2506689   2504635   2502702   2500897   2499206  
  5640.000000   2497598   2496048   2494539   2493065   2491624  
  5630.000000   2490211   2488821   2487443   2486080   2484739  
  5620.000000   2483443   2482212   2481065   2479999   2479001  
  5610.000000   2478044   2477101   2476153   2475196   2474234  
  5600.000000   2473279   2472339   2471419   2470517   2469630  
  5590.000000   2468754   2467886   2467019   2466143   2465241  
  5580.000000   2464295   2463296   2462243   2461152   2460044  
  5570.000000   2458944   2457864   2456804   2455748   2454676  
  5560.000000   2453570   2452421   2451229   2450002   2448748  
  5550.000000   2447474   2446181   2444876   2443564   2442262  
  5540.000000   2440987   2439752   2438563   2437420   2436313  
  5530.000000   2435236   2434187   2433168   2432179   2431213  
  5520.000000   2430250   2429264   2428226   2427120   2425946  
  5510.000000   2424726   2423486   2422252   2421030   2419812  
  5500.000000   2418580   2417321   2416033   2414737   2413458  
  5490.000000   2412223   2411031   2409865   2408683   2407445  
  5480.000000   2406121   2404706   2403212   2401663   2400076  
  5470.000000   2398459   2396803   2395101   2393345   2391547  
  5460.000000   2389720   2387881   2386033   2384166   2382260  
  5450.000000   2380296   2378268   2376191   2374091   2372002  
  5440.000000   2369949   2367944   2365991   2364086   2362239  
  5430.000000   2360457   2358753   2357118   2355535   2353963  
  5420.000000   2352378   2350766   2349162   2347619   2346221  
  5410.000000   2345019   2344040   2343246   2342589   2341999  
  5400.000000   2341452   2340941   2340509   2340187   2340015  
  5390.000000   2339982   2340074   2340246   2340490   2340799  
  5380.000000   2341221   2341782   2342525   2343431   2344491  
  5370.000000   2345643   2346876   2348156   2349522   2350984  
  5360.000000   2352609   2354400   2356413   2358636   2361135  
  5350.000000   2363919   2367077   2370625   2374633   2379065  
  5340.000000   2383942   2389190   2394833   2400818   2407205  
  5330.000000   2413956   2421131   2428673   2436627   2444935  
  5320.000000   2453681   2462859   2472611   2482955   2494029  
  5310.000000   2505798   2518331   2531529   2545428   2559939  
  5300.000000   2575139   2591000   2607661   2625136   2643572  
  5290.000000   2662953   2683352   2704656   2726818   2749639  
  5280.000000   2773040   2796875   2821172   2845930   2871288  
  5270.000000   2897292   2923999   2951303   2979044   3006980  
  5260.000000   3034903   3062685   3090305   3117838   3145358  
  5250.000000   3172918   3200423   3227726   3254542   3280682  
  5240.000000   3305935   3330315   3353818   3376632   3398823  
  5230.000000   3420546   3441747   3462432   3482410   3501628  
  5220.000000   3519915   3537319   3553804   3569546   3584583  
  5210.000000   3599097   3613056   3626515   3639309   3651405  
  5200.000000   3662625   3673003   3682476   3691188   3699145  
  5190.000000   3706490   3713183   3719296   3724739   3729568  
  5180.000000   3733719   3737292   3740262   3742729   3744649  
  5170.000000   3746079   3746949   3747312   3747125   3746476  
  5160.000000   3745353   3743845   3741924   3739644   3736961  
  5150.000000   3733923   3730512   3726796   3722770   3718489  
  5140.000000   3713923   3709093   3703960   3698560   3692900  
  5130.000000   3687061   3681083   3675044   3668958   3662853  
  5120.000000   3656704   3650508   3644243   3637919   3631533  
  5110.000000   3625105   3618635   3612134   3605608   3599078  
  5100.000000   3592572   3586132   3579791   3573574   3567482  
  5090.000000   3561500   3555597   3549749   3543934   3538148  
  5080.000000   3532389   3526652   3520923   3515180   3509392  
  5070.000000   3503543   3497626   3491657   3485659   3479662  
  5060.000000   3473677   3467708   3461733   3455731   3449676  
  5050.000000   3443558   3437370   3431124   3424822   3418472  
  5040.000000   3412068   3405609   3399093   3392530   3385937  
  5030.000000   3379339   3372761   3366224   3359744   3353325  
  5020.000000   3346973   3340688   3334479   3328346   3322308  
  5010.000000   3316362   3310525   3304790   3299177   3293683  
  5000.000000   3288340   3283151   3278159   3273367   3268816  
  4990.000000   3264497   3260445   3256643   3253123   3249863  
  4980.000000   3246899   3244209   3241829   3239736   3237972  
  4970.000000   3236513   3235403   3234617   3234196   3234108  
  4960.000000   3234388   3234999   3235976   3237282   3238956  
  4950.000000   3240961   3243332   3246026   3249074   3252431  
  4940.000000   3256136   3260154   3264533   3269245   3274329  
  4930.000000   3279746   3285520   3291601   3298008   3304701  
  4920.000000   3311712   3319011   3326629   3334530   3342727  
  4910.000000   3351176   3359879   3368800   3377947   3387296  
  4900.000000   3396850   3406581   3416470   3426477   3436569  
  4890.000000   3446711   3456866   3467010   3477100   3487107  
  4880.000000   3496971   3506655   3516088   3525242   3534054  
  4870.000000   3542510   3550555   3558188   3565362   3572091  
  4860.000000   3578346   3584168   3589551   3594553   3599174  
  4850.000000   3603469   3607428   3611100   3614481   3617630  
  4840.000000   3620563   3623352   3626022   3628632   3631187  
  4830.000000   3633715   3636198   3638640   3641016   3643331  
  4820.000000   3645571   3647749   3649866   3651940   3653979  
  4810.000000   3656000   3658008   3660014   3662016   3664020  
  4800.000000   3666020   3668021   3670022   3672028   3674040  
  4790.000000   3676058   3678074   3680080   3682061   3684010  
  4780.000000   3685921   3687801   3689653   3691490   3693311  
  4770.000000   3695118   3696890   3698614   3700258   3701811  
  4760.000000   3703250   3704575   3705779   3706872   3707851  
  4750.000000   3708727   3709491   3710147   3710681   3711097  
  4740.000000   3711384   3711555   3711613   3711584   3711479  
  4730.000000   3711323   3711120   3710877   3710578   3710214  
  4720.000000   3709767   3709233   3708617   3707936   3707218  
  4710.000000   3706489   3705782   3705114   3704506   3703969  
  4700.000000   3703518   3703167   3702939   3702849   3702917  
  4690.000000   3703152   3703557   3704120   3704825   3705641  
  4680.000000   3706538   3707470   3708406   3709298   3710126  
  4670.000000   3710862   3711511   3712075   3712586   3713064  
  4660.000000   3713552   3714071   3714659   3715336   3716133  
  4650.000000   3717068   3718167   3719442   3720906   3722553  
  4640.000000   3724372   3726341   3728438   3730636   3732909  
  4630.000000   3735233   3737581   3739925   3742234   3744473  
  4620.000000   3746605   3748597   3750415   3752036   3753436  
  4610.000000   3754612   3755563   3756314   3756891   3757349  
  4600.000000   3757723   3758071   3758411   3758771   3759136  
  4590.000000   3759503   3759833   3760108   3760282   3760338  
  4580.000000   3760233   3759950   3759457   3758752   3757829  
  4570.000000   3756715   3755434   3754036   3752550   3751013  
  4560.000000   3749432   3747818   3746156   3744445   3742679  
  4550.000000   3740869   3739027   3737176   3735330   3733504  
  4540.000000   3731709   3729947   3728232   3726569   3724983  
  4530.000000   3723479   3722085   3720793   3719627   3718569  
  4520.000000   3717644   3716835   3716185   3715684   3715390  
  4510.000000   3715299   3715481   3715935   3716743   3717909  
  4500.000000   3719526   3721593   3724202   3727340   3731090  
  4490.000000   3735431   3740444   3746104   3752489   3759564  
  4480.000000   3767390   3775910   3785159   3795058   3805625  
  4470.000000   3816778   3828524   3840778   3853540   3866720  
  4460.000000   3880304   3894202   3908394   3922796   3937383  
  4450.000000   3952082   3966868   3981688   3996525   4011354  
  4440.000000   4026168   4040965   4055727   4070454   4085102  
  4430.000000   4099661   4114064   4128304   4142304   4156062  
  4420.000000   4169488   4182573   4195205   4207355   4218893  
  4410.000000   4229783   4239900   4249227   4257675   4265273  
  4400.000000   4271990   4277909   4283054   4287550   4291449  
  4390.000000   4294889   4297934   4300713   4303292   4305786  
  4380.000000   4308250   4310775   4313393   4316162   4319095  
  4370.000000   4322223   4325553   4329106   4332892   4336925  
  4360.000000   4341206   4345737   4350493   4355458   4360574  
  4350.000000   4365807   4371066   4376316   4381464   4386502  
  4340.000000   4391365   4396063   4400517   4404655   4408267  
  4330.000000   4411102   4412799   4413031   4411521   4408192  
  4320.000000   4403165   4396827   4389709   4382449   4375606  
  4310.000000   4369629   4364726   4360943   4358137   4356117  
  4300.000000   4354657   4353595   4352820   4352271   4351931  
  4290.000000   4351769   4351782   4351931   4352217   4352620  
  4280.000000   4353158   4353836   4354663   4355638   4356732  
  4270.000000   4357923   4359147   4360347   4361403   4362182  
  4260.000000   4362488   4362124   4360887   4358649   4355363  
  4250.000000   4351118   4346099   4340592   4334890   4329294  
  4240.000000   4324009   4319188   4314864   4311030   4307608  
  4230.000000   4304515   4301652   4298927   4296259   4293573  
  4220.000000   4290832   4288003   4285120   4282212   4279378  
  4210.000000   4276687   4274244   4272098   4270303   4268847  
  4200.000000   4267723   4266871   4266255   4265803   4265484  
  4190.000000   4265239   4265065   4264924   4264844   4264807  
  4180.000000   4264862   4265001   4265284   4265712   4266360  
  4170.000000   4267247   4268470   4270063   4272125   4274673  
  4160.000000   4277771   4281387   4285544   4290177   4295301  
  4150.000000   4300856   4306881   4313334   4320268   4327642  
  4140.000000   4335501   4343794   4352555   4361725   4371339  
  4130.000000   4381338   4391752   4402528   4413699   4425224  
  4120.000000   4437149   4449454   4462192   4475352   4488977  
  4110.000000   4503038   4517551   4532463   4547764   4563387  
  4100.000000   4579305   4595454   4611812   4628334   4645010  
  4090.000000   4661816   4678746   4695783   4712907   4730103  
  4080.000000   4747342   4764623   4781921   4799247   4816553  
  4070.000000   4833824   4850960   4867907   4884536   4900807  
  4060.000000   4916621   4931992   4946857   4961259   4975127  
  4050.000000   4988498   5001289   5013550   5025209   5036338  
  4040.000000   5046864   5056844   5066171   5074877   5082841  
  4030.000000   5090106   5096573   5102305   5107223   5111378  
  4020.000000   5114669   5117164   5118853   5119837   5120080  
  4010.000000   5119735   5118879   5117516   5115391   5112553  
  4000.000000   5109352  
##END= 
