##TITLE= Sample 031 By ssteindl date Dienstag, November 20 2018
##JCAMP-DX= 4.24
##DATA TYPE= INFRARED SPECTRUM
##ORIGIN= Exported PE Spectrum Data File
##OWNER= Sandra Steindl
##DATE= 18/11/20
##TIME= 11:50:00.00
##SPECTROMETER/DATA SYSTEM= PERKIN-ELMER Frontier FT-IR/NIR IR
##INSTRUMENT PARAMETERS=
  APODIZATION=stark
  DETECTOR=INGAAS
##RESOLUTION= 16.000000
##DELTAX= -2.000000
##XUNITS= 1/CM
##YUNITS= A
##XFACTOR= 1.00
##YFACTOR= 0.00000011920928955078
##FIRSTX= 10000.00
##LASTX= 4000.00
##NPOINTS= 3001
##FIRSTY= 0.280660
##MAXY= 0.624033
##MINY= 0.250784
##XYDATA= (X++(Y..Y))
 10000.000000   2354347   2359266   2364586   2370448   2376006  
  9990.000000   2380070   2381995   2381821   2379719   2376009  
  9980.000000   2371259   2366342   2362123   2359410   2358799  
  9970.000000   2360535   2364256   2369064   2373649   2376681  
  9960.000000   2377189   2374926   2370508   2365237   2360724  
  9950.000000   2358320   2358701   2361668   2366262   2371174  
  9940.000000   2375168   2377569   2378343   2378134   2377799  
  9930.000000   2378131   2379421   2381450   2383553   2384898  
  9920.000000   2384798   2382841   2379040   2373664   2367196  
  9910.000000   2360100   2352804   2345608   2338762   2332469  
  9900.000000   2326972   2322532   2319455   2318055   2318587  
  9890.000000   2321217   2325875   2332268   2339804   2347748  
  9880.000000   2355327   2361949   2367327   2371500   2374786  
  9870.000000   2377524   2379966   2382011   2383327   2383328  
  9860.000000   2381502   2377523   2371434   2363683   2354986  
  9850.000000   2346300   2338535   2332594   2329112   2328537  
  9840.000000   2330913   2335922   2342771   2350322   2357265  
  9830.000000   2362375   2364875   2364519   2361763   2357438  
  9820.000000   2352641   2348271   2344962   2342929   2342094  
  9810.000000   2342263   2343216   2344899   2347262   2350336  
  9800.000000   2353987   2358017   2362054   2365698   2368524  
  9790.000000   2370159   2370347   2368936   2365985   2361696  
  9780.000000   2356464   2350786   2345174   2340076   2335718  
  9770.000000   2332130   2329106   2326423   2323912   2321658  
  9760.000000   2319896   2318955   2318989   2319869   2321151  
  9750.000000   2322192   2322439   2321549   2319615   2316978  
  9740.000000   2314195   2311686   2309691   2308129   2306757  
  9730.000000   2305298   2303656   2301999   2300741   2300411  
  9720.000000   2301424   2303968   2307871   2312697   2317818  
  9710.000000   2322573   2326425   2329008   2330253   2330299  
  9700.000000   2329479   2328158   2326614   2324975   2323201  
  9690.000000   2321216   2319015   2316802   2314966   2314015  
  9680.000000   2314290   2315824   2318113   2320281   2321298  
  9670.000000   2320407   2317484   2313109   2308453   2304783  
  9660.000000   2303003   2303280   2304961   2306864   2307743  
  9650.000000   2306841   2304227   2300799   2297927   2296879  
  9640.000000   2298263   2301760   2306204   2310031   2311862  
  9630.000000   2310978   2307587   2302664   2297613   2293743  
  9620.000000   2291873   2292105   2293877   2296199   2298031  
  9610.000000   2298593   2297610   2295335   2292433   2289752  
  9600.000000   2288057   2287822   2289115   2291602   2294679  
  9590.000000   2297654   2299942   2301246   2301570   2301259  
  9580.000000   2300791   2300681   2301265   2302613   2304510  
  9570.000000   2306466   2307892   2308162   2306836   2303711  
  9560.000000   2298923   2292915   2286357   2280038   2274727  
  9550.000000   2271039   2269354   2269734   2271947   2275518  
  9540.000000   2279807   2284168   2287981   2290819   2292462  
  9530.000000   2292995   2292820   2292572   2292987   2294614  
  9520.000000   2297589   2301475   2305317   2307924   2308264  
  9510.000000   2305857   2300974   2294575   2288002   2282517  
  9500.000000   2278873   2277077   2276453   2275982   2274768  
  9490.000000   2272449   2269323   2266228   2264128   2263768  
  9480.000000   2265381   2268668   2272969   2277482   2281554  
  9470.000000   2284753   2286938   2288113   2288386   2287881  
  9460.000000   2286795   2285413   2284121   2283312   2283254  
  9450.000000   2283955   2285119   2286251   2286815   2286485  
  9440.000000   2285249   2283447   2281589   2280161   2279394  
  9430.000000   2279235   2279369   2279437   2279164   2278501  
  9420.000000   2277615   2276805   2276355   2276392   2276804  
  9410.000000   2277265   2277329   2276596   2274822   2272012  
  9400.000000   2268417   2264514   2260895   2258158   2256720  
  9390.000000   2256683   2257762   2259327   2260602   2260862  
  9380.000000   2259707   2257128   2253556   2249663   2246175  
  9370.000000   2243604   2242173   2241794   2242244   2243284  
  9360.000000   2244797   2246780   2249276   2252259   2255525  
  9350.000000   2258710   2261384   2263218   2264121   2264266  
  9340.000000   2264015   2263772   2263803   2264173   2264709  
  9330.000000   2265156   2265260   2264906   2264109   2262970  
  9320.000000   2261594   2260006   2258120   2255776   2252809  
  9310.000000   2249199   2245114   2240955   2237232   2234511  
  9300.000000   2233244   2233709   2235873   2239381   2243560  
  9290.000000   2247543   2250465   2251627   2250724   2247862  
  9280.000000   2243620   2238817   2234348   2230875   2228720  
  9270.000000   2227810   2227802   2228238   2228720   2229042  
  9260.000000   2229215   2229411   2229816   2230548   2231572  
  9250.000000   2232737   2233833   2234685   2235260   2235637  
  9240.000000   2236040   2236704   2237844   2239499   2241488  
  9230.000000   2243403   2244698   2244908   2243778   2241433  
  9220.000000   2238360   2235400   2233506   2233445   2235464  
  9210.000000   2239188   2243675   2247692   2250023   2249872  
  9200.000000   2247097   2242273   2236499   2231031   2226939  
  9190.000000   2224806   2224647   2225922   2227747   2229193  
  9180.000000   2229564   2228575   2226352   2223420   2220538  
  9170.000000   2218500   2217894   2218923   2221375   2224643  
  9160.000000   2227927   2230431   2231614   2231348   2229921  
  9150.000000   2227936   2226064   2224846   2224532   2225021  
  9140.000000   2225961   2226864   2227311   2227013   2225865  
  9130.000000   2223949   2221462   2218709   2215986   2213657  
  9120.000000   2212074   2211560   2212272   2214142   2216847  
  9110.000000   2219849   2222494   2224156   2224386   2223023  
  9100.000000   2220213   2216338   2211925   2207519   2203639  
  9090.000000   2200657   2198796   2198066   2198276   2199013  
  9080.000000   2199702   2199778   2198850   2196843   2194029  
  9070.000000   2191024   2188634   2187600   2188330   2190793  
  9060.000000   2194541   2198826   2202812   2205797   2207432  
  9050.000000   2207678   2206766   2205010   2202752   2200214  
  9040.000000   2197528   2194759   2192031   2189562   2187646  
  9030.000000   2186621   2186733   2188093   2190556   2193789  
  9020.000000   2197301   2200574   2203171   2204805   2205403  
  9010.000000   2205073   2204068   2202712   2201325   2200190  
  9000.000000   2199514   2199421   2199927   2200931   2202207  
  8990.000000   2203422   2204167   2204039   2202729   2200139  
  8980.000000   2196431   2192033   2187566   2183709   2181054  
  8970.000000   2179946   2180425   2182218   2184839   2187698  
  8960.000000   2190219   2191964   2192698   2192419   2191344  
  8950.000000   2189877   2188552   2187892   2188290   2189880  
  8940.000000   2192485   2195635   2198638   2200816   2201670  
  8930.000000   2201079   2199289   2196843   2194385   2192437  
  8920.000000   2191229   2190639   2190258   2189572   2188143  
  8910.000000   2185814   2182755   2179422   2176394   2174202  
  8900.000000   2173172   2173319   2174346   2175714   2176819  
  8890.000000   2177152   2176463   2174833   2172676   2170621  
  8880.000000   2169342   2169334   2170762   2173362   2176542  
  8870.000000   2179510   2181561   2182241   2181501   2179670  
  8860.000000   2177339   2175157   2173649   2173071   2173412  
  8850.000000   2174437   2175825   2177266   2178531   2179511  
  8840.000000   2180181   2180607   2180882   2181149   2181556  
  8830.000000   2182244   2183305   2184718   2186352   2187946  
  8820.000000   2189193   2189813   2189644   2188692   2187124  
  8810.000000   2185228   2183328   2181719   2180609   2180105  
  8800.000000   2180213   2180864   2181918   2183179   2184413  
  8790.000000   2185382   2185921   2185963   2185606   2185047  
  8780.000000   2184553   2184344   2184544   2185137   2186019  
  8770.000000   2187074   2188254   2189627   2191326   2193469  
  8760.000000   2196031   2198805   2201395   2203346   2204292  
  8750.000000   2204103   2202962   2201295   2199638   2198428  
  8740.000000   2197860   2197829   2197994   2197949   2197376  
  8730.000000   2196202   2194587   2192905   2191560   2190906  
  8720.000000   2191102   2192128   2193798   2195822   2197910  
  8710.000000   2199762   2201151   2201865   2201775   2200827  
  8700.000000   2199117   2196887   2194533   2192531   2191334  
  8690.000000   2191269   2192432   2194690   2197698   2201004  
  8680.000000   2204147   2206750   2208594   2209611   2209862  
  8670.000000   2209467   2208575   2207345   2205968   2204679  
  8660.000000   2203747   2203438   2203939   2205306   2207381  
  8650.000000   2209818   2212111   2213732   2214274   2213559  
  8640.000000   2211725   2209154   2206422   2204095   2202637  
  8630.000000   2202257   2202911   2204338   2206183   2208110  
  8620.000000   2209885   2211446   2212876   2214360   2216106  
  8610.000000   2218255   2220846   2223758   2226762   2229536  
  8600.000000   2231780   2233272   2233953   2233955   2233568  
  8590.000000   2233192   2233185   2233797   2235046   2236756  
  8580.000000   2238584   2240159   2241185   2241547   2241325  
  8570.000000   2240736   2240029   2239377   2238832   2238324  
  8560.000000   2237734   2236990   2236135   2235356   2234916  
  8550.000000   2235089   2236039   2237770   2240095   2242702  
  8540.000000   2245245   2247412   2248992   2249877   2250090  
  8530.000000   2249729   2248973   2248047   2247231   2246808  
  8520.000000   2247001   2247929   2249533   2251609   2253791  
  8510.000000   2255722   2257106   2257854   2258063   2257984  
  8500.000000   2257892   2257956   2258173   2258332   2258120  
  8490.000000   2257224   2255501   2253019   2250077   2247111  
  8480.000000   2244571   2242799   2241934   2241935   2242633  
  8470.000000   2243823   2245330   2247044   2248915   2250909  
  8460.000000   2252967   2254982   2256824   2258368   2259556  
  8450.000000   2260397   2260998   2261483   2261981   2262548  
  8440.000000   2263174   2263776   2264232   2264432   2264302  
  8430.000000   2263844   2263112   2262237   2261381   2260738  
  8420.000000   2260484   2260755   2261594   2262936   2264586  
  8410.000000   2266260   2267636   2268456   2268608   2268157  
  8400.000000   2267338   2266476   2265893   2265793   2266202  
  8390.000000   2266972   2267850   2268583   2268994   2269058  
  8380.000000   2268872   2268629   2268499   2268597   2268928  
  8370.000000   2269427   2269983   2270487   2270865   2271068  
  8360.000000   2271065   2270814   2270266   2269387   2268194  
  8350.000000   2266778   2265298   2263948   2262904   2262272  
  8340.000000   2262055   2262164   2262458   2262804   2263107  
  8330.000000   2263333   2263481   2263559   2263557   2263447  
  8320.000000   2263203   2262831   2262390   2261990   2261754  
  8310.000000   2261765   2262023   2262439   2262848   2263076  
  8300.000000   2262973   2262476   2261598   2260443   2259155  
  8290.000000   2257894   2256807   2256012   2255587   2255534  
  8280.000000   2255760   2256066   2256185   2255846   2254864  
  8270.000000   2253219   2251106   2248910   2247111   2246136  
  8260.000000   2246203   2247263   2248996   2250940   2252616  
  8250.000000   2253692   2254049   2253807   2253216   2252553  
  8240.000000   2251999   2251590   2251238   2250778   2250062  
  8230.000000   2248994   2247573   2245872   2243994   2242066  
  8220.000000   2240177   2238422   2236857   2235549   2234537  
  8210.000000   2233842   2233444   2233277   2233243   2233214  
  8200.000000   2233064   2232676   2231968   2230890   2229452  
  8190.000000   2227728   2225867   2224071   2222563   2221528  
  8180.000000   2221046   2221076   2221438   2221878   2222127  
  8170.000000   2221986   2221376   2220345   2219042   2217638  
  8160.000000   2216283   2215045   2213931   2212899   2211903  
  8150.000000   2210926   2209980   2209117   2208381   2207810  
  8140.000000   2207403   2207135   2206949   2206778   2206545  
  8130.000000   2206169   2205576   2204710   2203565   2202179  
  8120.000000   2200659   2199132   2197724   2196509   2195487  
  8110.000000   2194592   2193725   2192822   2191871   2190956  
  8100.000000   2190205   2189756   2189681   2189954   2190439  
  8090.000000   2190923   2191185   2191046   2190425   2189329  
  8080.000000   2187845   2186096   2184215   2182328   2180550  
  8070.000000   2178989   2177735   2176860   2176384   2176279  
  8060.000000   2176448   2176761   2177068   2177251   2177240  
  8050.000000   2177015   2176608   2176053   2175396   2174647  
  8040.000000   2173820   2172918   2171969   2171023   2170149  
  8030.000000   2169425   2168900   2168605   2168522   2168610  
  8020.000000   2168806   2169035   2169224   2169286   2169149  
  8010.000000   2168730   2167983   2166890   2165502   2163935  
  8000.000000   2162358   2160977   2159970   2159479   2159542  
  7990.000000   2160123   2161096   2162288   2163513   2164593  
  7980.000000   2165385   2165769   2165666   2165020   2163828  
  7970.000000   2162149   2160130   2157999   2156041   2154537  
  7960.000000   2153693   2153582   2154098   2155000   2155948  
  7950.000000   2156627   2156817   2156457   2155647   2154593  
  7940.000000   2153539   2152675   2152107   2151827   2151760  
  7930.000000   2151790   2151819   2151775   2151624   2151355  
  7920.000000   2150968   2150473   2149893   2149272   2148671  
  7910.000000   2148156   2147780   2147559   2147477   2147491  
  7900.000000   2147559   2147656   2147784   2147956   2148176  
  7890.000000   2148414   2148608   2148680   2148574   2148293  
  7880.000000   2147915   2147574   2147416   2147544   2147972  
  7870.000000   2148617   2149318   2149900   2150225   2150233  
  7860.000000   2149950   2149463   2148879   2148288   2147740  
  7850.000000   2147244   2146785   2146345   2145912   2145489  
  7840.000000   2145081   2144697   2144344   2144030   2143767  
  7830.000000   2143565   2143426   2143331   2143238   2143092  
  7820.000000   2142844   2142485   2142055   2141653   2141404  
  7810.000000   2141414   2141726   2142289   2142962   2143538  
  7800.000000   2143814   2143633   2142935   2141769   2140284  
  7790.000000   2138687   2137204   2136029   2135282   2135001  
  7780.000000   2135122   2135515   2136001   2136410   2136611  
  7770.000000   2136559   2136289   2135904   2135528   2135265  
  7760.000000   2135155   2135165   2135206   2135176   2135000  
  7750.000000   2134662   2134202   2133696   2133211   2132773  
  7740.000000   2132346   2131853   2131201   2130325   2129214  
  7730.000000   2127920   2126548   2125220   2124052   2123127  
  7720.000000   2122479   2122098   2121931   2121907   2121942  
  7710.000000   2121966   2121933   2121835   2121697   2121563  
  7700.000000   2121475   2121438   2121408   2121283   2120936  
  7690.000000   2120246   2119161   2117723   2116081   2114466  
  7680.000000   2113125   2112253   2111936   2112123   2112648  
  7670.000000   2113273   2113763   2113941   2113735   2113173  
  7660.000000   2112378   2111513   2110743   2110196   2109943  
  7650.000000   2109994   2110312   2110832   2111472   2112153  
  7640.000000   2112793   2113325   2113684   2113825   2113724  
  7630.000000   2113380   2112827   2112114   2111307   2110470  
  7620.000000   2109654   2108900   2108231   2107678   2107261  
  7610.000000   2107016   2106965   2107115   2107437   2107860  
  7600.000000   2108285   2108594   2108694   2108518   2108069  
  7590.000000   2107387   2106565   2105704   2104914   2104281  
  7580.000000   2103870   2103726   2103867   2104291   2104961  
  7570.000000   2105812   2106746   2107652   2108428   2109004  
  7560.000000   2109362   2109531   2109586   2109609   2109681  
  7550.000000   2109844   2110113   2110457   2110838   2111207  
  7540.000000   2111537   2111813   2112033   2112212   2112362  
  7530.000000   2112513   2112693   2112945   2113317   2113858  
  7520.000000   2114609   2115576   2116723   2117951   2119122  
  7510.000000   2120064   2120631   2120728   2120358   2119625  
  7500.000000   2118736   2117946   2117506   2117589   2118255  
  7490.000000   2119437   2120973   2122646   2124244   2125602  
  7480.000000   2126640   2127354   2127804   2128080   2128293  
  7470.000000   2128543   2128934   2129537   2130404   2131532  
  7460.000000   2132874   2134332   2135784   2137115   2138257  
  7450.000000   2139208   2140030   2140820   2141686   2142700  
  7440.000000   2143891   2145234   2146686   2148196   2149729  
  7430.000000   2151261   2152776   2154248   2155641   2156917  
  7420.000000   2158052   2159056   2159972   2160867   2161805  
  7410.000000   2162831   2163948   2165136   2166358   2167590  
  7400.000000   2168823   2170067   2171321   2172556   2173710  
  7390.000000   2174703   2175471   2175998   2176342   2176622  
  7380.000000   2176994   2177594   2178491   2179672   2181051  
  7370.000000   2182507   2183929   2185246   2186449   2187566  
  7360.000000   2188654   2189758   2190912   2192121   2193383  
  7350.000000   2194687   2196025   2197392   2198782   2200192  
  7340.000000   2201620   2203072   2204555   2206076   2207621  
  7330.000000   2209152   2210604   2211893   2212947   2213728  
  7320.000000   2214253   2214592   2214850   2215134   2215528  
  7310.000000   2216067   2216737   2217486   2218249   2218970  
  7300.000000   2219621   2220203   2220749   2221309   2221943  
  7290.000000   2222705   2223637   2224746   2226004   2227339  
  7280.000000   2228664   2229881   2230920   2231759   2232433  
  7270.000000   2233024   2233631   2234334   2235170   2236127  
  7260.000000   2237151   2238176   2239147   2240041   2240871  
  7250.000000   2241667   2242474   2243320   2244233   2245213  
  7240.000000   2246267   2247379   2248540   2249716   2250885  
  7230.000000   2252015   2253110   2254193   2255334   2256611  
  7220.000000   2258109   2259871   2261908   2264168   2266584  
  7210.000000   2269065   2271554   2274005   2276413   2278775  
  7200.000000   2281107   2283409   2285710   2288028   2290426  
  7190.000000   2292954   2295679   2298615   2301748   2305004  
  7180.000000   2308303   2311560   2314748   2317882   2321041  
  7170.000000   2324308   2327772   2331465   2335388   2339481  
  7160.000000   2343682   2347905   2352095   2356198   2360198  
  7150.000000   2364085   2367895   2371677   2375523   2379519  
  7140.000000   2383751   2388239   2392968   2397853   2402805  
  7130.000000   2407732   2412601   2417412   2422223   2427085  
  7120.000000   2432060   2437159   2442388   2447713   2453126  
  7110.000000   2458601   2464142   2469724   2475330   2480919  
  7100.000000   2486480   2492017   2497593   2503291   2509204  
  7090.000000   2515377   2521794   2528362   2534952   2541438  
  7080.000000   2547744   2553862   2559846   2565765   2571664  
  7070.000000   2577527   2583285   2588848   2594159   2599228  
  7060.000000   2604146   2609062   2614133   2619478   2625136  
  7050.000000   2631065   2637154   2643271   2649289   2655123  
  7040.000000   2660737   2666148   2671415   2676626   2681882  
  7030.000000   2687275   2692859   2698634   2704538   2710465  
  7020.000000   2716288   2721917   2727313   2732513   2737598  
  7010.000000   2742664   2747764   2752900   2758004   2762987  
  7000.000000   2767764   2772308   2776643   2780851   2785019  
  6990.000000   2789232   2793522   2797897   2802323   2806768  
  6980.000000   2811184   2815543   2819798   2823916   2827852  
  6970.000000   2831592   2835138   2838538   2841848   2845138  
  6960.000000   2848435   2851737   2854990   2858133   2861099  
  6950.000000   2863872   2866457   2868911   2871284   2873634  
  6940.000000   2875983   2878349   2880721   2883095   2885450  
  6930.000000   2887773   2890029   2892192   2894229   2896142  
  6920.000000   2897948   2899700   2901445   2903221   2905020  
  6910.000000   2906800   2908492   2910039   2911414   2912642  
  6900.000000   2913772   2914866   2915959   2917050   2918107  
  6890.000000   2919102   2920027   2920925   2921868   2922937  
  6880.000000   2924176   2925578   2927076   2928579   2930001  
  6870.000000   2931299   2932480   2933592   2934684   2935790  
  6860.000000   2936902   2937993   2939021   2939968   2940834  
  6850.000000   2941643   2942416   2943160   2943857   2944483  
  6840.000000   2945014   2945457   2945839   2946209   2946603  
  6830.000000   2947043   2947513   2947990   2948444   2948872  
  6820.000000   2949289   2949731   2950217   2950744   2951271  
  6810.000000   2951733   2952062   2952213   2952175   2951978  
  6800.000000   2951673   2951324   2950983   2950694   2950478  
  6790.000000   2950350   2950302   2950313   2950334   2950303  
  6780.000000   2950147   2949818   2949296   2948612   2947833  
  6770.000000   2947051   2946344   2945762   2945312   2944968  
  6760.000000   2944679   2944396   2944070   2943668   2943164  
  6750.000000   2942546   2941815   2940995   2940132   2939288  
  6740.000000   2938524   2937875   2937337   2936869   2936402  
  6730.000000   2935881   2935278   2934624   2933982   2933428  
  6720.000000   2933009   2932725   2932516   2932291   2931957  
  6710.000000   2931453   2930765   2929921   2928972   2927965  
  6700.000000   2926931   2925883   2924819   2923743   2922660  
  6690.000000   2921581   2920509   2919438   2918349   2917231  
  6680.000000   2916080   2914922   2913796   2912747   2911802  
  6670.000000   2910958   2910181   2909418   2908618   2907754  
  6660.000000   2906819   2905823   2904776   2903675   2902497  
  6650.000000   2901222   2899837   2898364   2896849   2895361  
  6640.000000   2893954   2892659   2891457   2890305   2889134  
  6630.000000   2887893   2886546   2885094   2883557   2881966  
  6620.000000   2880347   2878721   2877100   2875494   2873908  
  6610.000000   2872346   2870801   2869257   2867694   2866097  
  6600.000000   2864465   2862818   2861187   2859603   2858083  
  6590.000000   2856616   2855169   2853699   2852172   2850572  
  6580.000000   2848909   2847204   2845483   2843753   2842012  
  6570.000000   2840248   2838461   2836665   2834899   2833213  
  6560.000000   2831653   2830246   2828990   2827865   2826834  
  6550.000000   2825863   2824921   2823981   2823014   2821982  
  6540.000000   2820851   2819589   2818195   2816698   2815160  
  6530.000000   2813654   2812248   2810981   2809852   2808830  
  6520.000000   2807865   2806911   2805939   2804940   2803920  
  6510.000000   2802885   2801840   2800779   2799700   2798606  
  6500.000000   2797511   2796441   2795425   2794482   2793622  
  6490.000000   2792836   2792104   2791400   2790697   2789969  
  6480.000000   2789195   2788356   2787446   2786466   2785441  
  6470.000000   2784404   2783397   2782453   2781587   2780793  
  6460.000000   2780046   2779320   2778598   2777885   2777202  
  6450.000000   2776574   2776012   2775502   2775002   2774452  
  6440.000000   2773799   2773005   2772072   2771029   2769929  
  6430.000000   2768828   2767773   2766805   2765949   2765231  
  6420.000000   2764666   2764265   2764017   2763880   2763788  
  6410.000000   2763651   2763385   2762925   2762256   2761405  
  6400.000000   2760448   2759480   2758596   2757862   2757308  
  6390.000000   2756919   2756647   2756429   2756200   2755913  
  6380.000000   2755548   2755118   2754656   2754210   2753818  
  6370.000000   2753498   2753240   2753008   2752754   2752431  
  6360.000000   2752016   2751512   2750944   2750354   2749779  
  6350.000000   2749242   2748746   2748280   2747823   2747360  
  6340.000000   2746879   2746378   2745856   2745310   2744732  
  6330.000000   2744111   2743435   2742698   2741896   2741037  
  6320.000000   2740128   2739183   2738213   2737236   2736264  
  6310.000000   2735316   2734396   2733506   2732627   2731734  
  6300.000000   2730792   2729777   2728670   2727475   2726203  
  6290.000000   2724877   2723515   2722128   2720718   2719282  
  6280.000000   2717815   2716319   2714795   2713255   2711704  
  6270.000000   2710149   2708590   2707033   2705477   2703932  
  6260.000000   2702401   2700892   2699404   2697939   2696490  
  6250.000000   2695051   2693610   2692157   2690667   2689115  
  6240.000000   2687469   2685706   2683820   2681831   2679783  
  6230.000000   2677737   2675755   2673881   2672128   2670480  
  6220.000000   2668898   2667339   2665764   2664158   2662520  
  6210.000000   2660862   2659197   2657534   2655878   2654227  
  6200.000000   2652582   2650947   2649328   2647729   2646146  
  6190.000000   2644575   2643007   2641442   2639888   2638362  
  6180.000000   2636881   2635456   2634079   2632730   2631380  
  6170.000000   2629998   2628569   2627092   2625582   2624061  
  6160.000000   2622547   2621050   2619570   2618103   2616643  
  6150.000000   2615188   2613742   2612306   2610880   2609460  
  6140.000000   2608038   2606609   2605176   2603745   2602329  
  6130.000000   2600936   2599568   2598216   2596872   2595525  
  6120.000000   2594176   2592833   2591513   2590232   2589002  
  6110.000000   2587821   2586685   2585582   2584506   2583453  
  6100.000000   2582427   2581430   2580466   2579533   2578635  
  6090.000000   2577771   2576951   2576182   2575475   2574825  
  6080.000000   2574226   2573656   2573096   2572525   2571945  
  6070.000000   2571358   2570788   2570251   2569769   2569342  
  6060.000000   2568974   2568651   2568372   2568124   2567914  
  6050.000000   2567736   2567601   2567513   2567492   2567554  
  6040.000000   2567733   2568052   2568542   2569204   2570034  
  6030.000000   2571002   2572077   2573213   2574383   2575556  
  6020.000000   2576721   2577860   2578969   2580036   2581067  
  6010.000000   2582064   2583052   2584049   2585083   2586160  
  6000.000000   2587286   2588441   2589613   2590785   2591962  
  5990.000000   2593153   2594389   2595690   2597081   2598563  
  5980.000000   2600139   2601796   2603535   2605348   2607249  
  5970.000000   2609236   2611324   2613506   2615786   2618150  
  5960.000000   2620602   2623127   2625726   2628381   2631082  
  5950.000000   2633807   2636549   2639297   2642061   2644844  
  5940.000000   2647661   2650511   2653394   2656297   2659210  
  5930.000000   2662132   2665073   2668049   2671073   2674148  
  5920.000000   2677251   2680345   2683379   2686307   2689096  
  5910.000000   2691734   2694223   2696577   2698807   2700922  
  5900.000000   2702929   2704844   2706687   2708497   2710311  
  5890.000000   2712168   2714084   2716065   2718095   2720155  
  5880.000000   2722222   2724279   2726312   2728308   2730250  
  5870.000000   2732114   2733885   2735556   2737144   2738683  
  5860.000000   2740223   2741809   2743478   2745246   2747117  
  5850.000000   2749082   2751135   2753272   2755491   2757783  
  5840.000000   2760130   2762502   2764872   2767217   2769538  
  5830.000000   2771852   2774187   2776567   2778996   2781455  
  5820.000000   2783901   2786292   2788593   2790797   2792909  
  5810.000000   2794954   2796941   2798875   2800730   2802491  
  5800.000000   2804129   2805658   2807087   2808461   2809794  
  5790.000000   2811106   2812365   2813544   2814572   2815407  
  5780.000000   2815986   2816283   2816260   2815909   2815218  
  5770.000000   2814213   2812930   2811445   2809842   2808222  
  5760.000000   2806664   2805234   2803959   2802852   2801902  
  5750.000000   2801100   2800427   2799871   2799406   2799005  
  5740.000000   2798634   2798257   2797857   2797418   2796954  
  5730.000000   2796472   2795996   2795530   2795085   2794661  
  5720.000000   2794268   2793914   2793616   2793386   2793233  
  5710.000000   2793152   2793136   2793173   2793258   2793391  
  5700.000000   2793576   2793810   2794083   2794367   2794632  
  5690.000000   2794851   2795010   2795122   2795209   2795305  
  5680.000000   2795429   2795586   2795755   2795906   2795993  
  5670.000000   2795983   2795843   2795552   2795090   2794450  
  5660.000000   2793628   2792644   2791530   2790345   2789146  
  5650.000000   2787992   2786912   2785916   2784982   2784086  
  5640.000000   2783198   2782308   2781414   2780525   2779648  
  5630.000000   2778786   2777937   2777100   2776283   2775502  
  5620.000000   2774781   2774131   2773548   2773005   2772460  
  5610.000000   2771874   2771223   2770511   2769767   2769031  
  5600.000000   2768338   2767705   2767121   2766561   2765991  
  5590.000000   2765391   2764749   2764068   2763350   2762596  
  5580.000000   2761795   2760940   2760024   2759057   2758057  
  5570.000000   2757047   2756039   2755032   2754003   2752925  
  5560.000000   2751773   2750542   2749244   2747911   2746580  
  5550.000000   2745278   2744020   2742805   2741622   2740463  
  5540.000000   2739325   2738209   2737123   2736070   2735049  
  5530.000000   2734058   2733091   2732148   2731229   2730333  
  5520.000000   2729455   2728581   2727691   2726766   2725791  
  5510.000000   2724764   2723692   2722586   2721455   2720308  
  5500.000000   2719146   2717975   2716806   2715660   2714553  
  5490.000000   2713497   2712481   2711478   2710442   2709334  
  5480.000000   2708123   2706809   2705409   2703964   2702507  
  5470.000000   2701065   2699642   2698228   2696801   2695342  
  5460.000000   2693835   2692274   2690656   2688984   2687261  
  5450.000000   2685501   2683724   2681958   2680231   2678560  
  5440.000000   2676949   2675383   2673847   2672319   2670799  
  5430.000000   2669293   2667818   2666380   2664981   2663600  
  5420.000000   2662229   2660858   2659517   2658244   2657107  
  5410.000000   2656142   2655373   2654768   2654288   2653872  
  5400.000000   2653502   2653168   2652912   2652769   2652791  
  5390.000000   2652982   2653347   2653852   2654491   2655244  
  5380.000000   2656141   2657185   2658410   2659793   2661331  
  5370.000000   2662972   2664706   2666498   2668381   2670355  
  5360.000000   2672481   2674763   2677261   2679966   2682939  
  5350.000000   2686179   2689756   2693669   2697979   2702657  
  5340.000000   2707745   2713195   2719059   2725304   2731997  
  5330.000000   2739104   2746677   2754652   2763064   2771843  
  5320.000000   2781059   2790690   2800861   2811581   2822985  
  5310.000000   2835045   2847846   2861305   2875470   2890256  
  5300.000000   2905740   2921888   2938827   2956566   2975240  
  5290.000000   2994826   3015381   3036781   3058968   3081747  
  5280.000000   3105049   3128753   3152912   3177550   3202817  
  5270.000000   3228763   3255434   3282714   3310433   3338343  
  5260.000000   3366230   3393955   3421477   3448842   3476095  
  5250.000000   3503277   3530300   3557056   3583320   3608969  
  5240.000000   3633846   3657991   3681398   3704224   3726485  
  5230.000000   3748283   3769524   3790189   3810093   3829197  
  5220.000000   3847364   3864666   3881084   3896793   3911825  
  5210.000000   3926342   3940301   3953754   3966552   3978687  
  5200.000000   3990019   4000607   4010407   4019555   4028039  
  5190.000000   4035965   4043261   4049964   4055971   4061330  
  5180.000000   4065985   4070038   4073469   4076373   4078700  
  5170.000000   4080498   4081702   4082376   4082503   4082196  
  5160.000000   4081473   4080436   4079061   4077390   4075357  
  5150.000000   4072988   4070242   4067175   4063779   4060112  
  5140.000000   4056153   4051933   4047424   4042665   4037662  
  5130.000000   4032483   4027158   4021744   4016245   4010681  
  5120.000000   4005034   3999321   3993547   3987755   3981968  
  5110.000000   3976219   3970505   3964819   3959131   3953430  
  5100.000000   3947704   3941975   3936260   3930585   3924952  
  5090.000000   3919360   3913783   3908204   3902603   3896977  
  5080.000000   3891321   3885637   3879909   3874126   3868261  
  5070.000000   3862305   3856243   3850091   3843852   3837548  
  5060.000000   3831177   3824744   3818232   3811647   3804982  
  5050.000000   3798261   3791494   3784710   3777915   3771115  
  5040.000000   3764294   3757440   3750530   3743553   3736499  
  5030.000000   3729372   3722175   3714923   3707635   3700336  
  5020.000000   3693057   3685825   3678668   3671598   3664624  
  5010.000000   3657737   3650940   3644226   3637615   3631117  
  5000.000000   3624769   3618580   3612581   3606761   3601133  
  4990.000000   3595678   3590416   3585340   3580492   3575873  
  4980.000000   3571528   3567446   3563656   3560130   3556890  
  4970.000000   3553909   3551219   3548796   3546676   3544829  
  4960.000000   3543282   3541997   3541002   3540266   3539834  
  4950.000000   3539686   3539876   3540383   3541249   3542442  
  4940.000000   3543991   3545856   3548068   3550590   3553456  
  4930.000000   3556633   3560153   3563980   3568145   3572611  
  4920.000000   3577402   3582479   3587860   3593500   3599413  
  4910.000000   3605565   3611978   3618633   3625557   3632731  
  4900.000000   3640159   3647797   3655616   3663556   3671583  
  4890.000000   3679653   3687752   3695863   3703977   3712078  
  4880.000000   3720137   3728125   3735993   3743713   3751242  
  4870.000000   3758564   3765648   3772491   3779066   3785379  
  4860.000000   3791411   3797185   3802696   3807985   3813056  
  4850.000000   3817951   3822670   3827244   3831663   3835950  
  4840.000000   3840089   3844102   3847973   3851726   3855352  
  4830.000000   3858877   3862301   3865649   3868917   3872119  
  4820.000000   3875238   3878273   3881202   3884024   3886729  
  4810.000000   3889329   3891829   3894250   3896598   3898893  
  4800.000000   3901136   3903346   3905527   3907696   3909856  
  4790.000000   3912018   3914171   3916311   3918418   3920485  
  4780.000000   3922495   3924453   3926350   3928191   3929963  
  4770.000000   3931665   3933278   3934805   3936237   3937591  
  4760.000000   3938871   3940096   3941260   3942363   3943377  
  4750.000000   3944287   3945056   3945677   3946125   3946408  
  4740.000000   3946515   3946462   3946249   3945899   3945421  
  4730.000000   3944845   3944184   3943461   3942675   3941828  
  4720.000000   3940897   3939875   3938741   3937502   3936163  
  4710.000000   3934755   3933306   3931856   3930431   3929062  
  4700.000000   3927763   3926547   3925414   3924362   3923379  
  4690.000000   3922453   3921568   3920710   3919871   3919044  
  4680.000000   3918228   3917416   3916602   3915770   3914909  
  4670.000000   3914000   3913046   3912050   3911044   3910054  
  4660.000000   3909129   3908299   3907606   3907065   3906700  
  4650.000000   3906516   3906527   3906732   3907143   3907749  
  4640.000000   3908551   3909528   3910669   3911946   3913343  
  4630.000000   3914829   3916381   3917961   3919540   3921081  
  4620.000000   3922556   3923940   3925223   3926400   3927475  
  4610.000000   3928453   3929341   3930145   3930871   3931530  
  4600.000000   3932131   3932693   3933232   3933771   3934326  
  4590.000000   3934917   3935552   3936240   3936975   3937751  
  4580.000000   3938540   3939321   3940059   3940735   3941331  
  4570.000000   3941853   3942307   3942714   3943080   3943406  
  4560.000000   3943668   3943840   3943879   3943764   3943481  
  4550.000000   3943047   3942492   3941866   3941209   3940561  
  4540.000000   3939933   3939326   3938720   3938086   3937393  
  4530.000000   3936613   3935734   3934749   3933681   3932553  
  4520.000000   3931422   3930322   3929324   3928447   3927750  
  4510.000000   3927233   3926950   3926899   3927155   3927738  
  4500.000000   3928750   3930223   3932263   3934891   3938189  
  4490.000000   3942150   3946828   3952182   3958234   3964904  
  4480.000000   3972175   3979933   3988137   3996670   4005502  
  4470.000000   4014547   4023804   4033216   4042798   4052503  
  4460.000000   4062338   4072261   4082270   4092330   4102439  
  4450.000000   4112571   4122722   4132871   4143014   4153143  
  4440.000000   4163261   4173381   4183514   4193686   4203901  
  4430.000000   4214177   4224496   4234859   4245223   4255576  
  4420.000000   4265857   4276047   4286067   4295891   4305423  
  4410.000000   4314629   4323404   4331713   4339460   4346628  
  4400.000000   4353152   4359052   4364307   4368976   4373072  
  4390.000000   4376677   4379821   4382586   4385005   4387157  
  4380.000000   4389078   4390850   4392524   4394190   4395915  
  4370.000000   4397790   4399875   4402230   4404881   4407835  
  4360.000000   4411072   4414561   4418257   4422122   4426110  
  4350.000000   4430194   4434331   4438516   4442721   4446974  
  4340.000000   4451275   4455665   4460122   4464605   4468955  
  4330.000000   4472952   4476273   4478597   4479627   4479218  
  4320.000000   4477382   4474349   4470480   4466250   4462087  
  4310.000000   4458364   4455272   4452893   4451148   4449925  
  4300.000000   4449062   4448440   4447958   4447556   4447197  
  4290.000000   4446855   4446528   4446216   4445958   4445795  
  4280.000000   4445792   4446002   4446459   4447176   4448121  
  4270.000000   4449254   4450494   4451765   4452945   4453906  
  4260.000000   4454481   4454500   4453800   4452276   4449895  
  4250.000000   4446733   4442953   4438799   4434523   4430379  
  4240.000000   4426536   4423109   4420107   4417494   4415180  
  4230.000000   4413071   4411073   4409108   4407124   4405081  
  4220.000000   4402978   4400816   4398647   4396511   4394495  
  4210.000000   4392655   4391064   4389746   4388725   4387967  
  4200.000000   4387446   4387095   4386871   4386711   4386598  
  4190.000000   4386497   4386431   4386396   4386449   4386599  
  4180.000000   4386910   4387387   4388083   4388993   4390172  
  4170.000000   4391621   4393410   4395553   4398124   4401121  
  4160.000000   4404594   4408499   4412853   4417587   4422717  
  4150.000000   4428189   4434045   4440255   4446883   4453908  
  4140.000000   4461391   4469301   4477685   4486496   4495769  
  4130.000000   4505443   4515539   4526000   4536851   4548055  
  4120.000000   4559659   4571650   4584081   4596938   4610252  
  4110.000000   4623983   4638126   4652619   4667437   4682510  
  4100.000000   4697810   4713274   4728879   4744583   4760381  
  4090.000000   4776261   4792236   4808314   4824501   4840804  
  4080.000000   4857208   4873709   4890273   4906890   4923505  
  4070.000000   4940092   4956569   4972897   4988977   5004785  
  4060.000000   5020241   5035356   5050069   5064414   5078327  
  4050.000000   5091845   5104900   5117537   5129683   5141380  
  4040.000000   5152528   5163142   5173087   5182374   5190884  
  4030.000000   5198670   5205664   5211951   5217476   5222299  
  4020.000000   5226313   5229564   5232005   5233699   5234579  
  4010.000000   5234771   5234342   5233314   5231462   5228877  
  4000.000000   5225927  
##END= 
