##TITLE= Sample 056 By ssteindl date Dienstag, November 20 2018
##JCAMP-DX= 4.24
##DATA TYPE= INFRARED SPECTRUM
##ORIGIN= Exported PE Spectrum Data File
##OWNER= Sandra Steindl
##DATE= 18/11/20
##TIME= 13:06:17.00
##SPECTROMETER/DATA SYSTEM= PERKIN-ELMER Frontier FT-IR/NIR IR
##INSTRUMENT PARAMETERS=
  APODIZATION=stark
  DETECTOR=INGAAS
##RESOLUTION= 16.000000
##DELTAX= -2.000000
##XUNITS= 1/CM
##YUNITS= A
##XFACTOR= 1.00
##YFACTOR= 0.00000011920928955078
##FIRSTX= 10000.00
##LASTX= 4000.00
##NPOINTS= 3001
##FIRSTY= 0.205596
##MAXY= 0.611672
##MINY= 0.179581
##XYDATA= (X++(Y..Y))
 10000.000000   1724664   1725203   1724540   1721195   1715308  
  9990.000000   1708162   1700947   1694572   1690069   1688420  
  9980.000000   1689827   1693748   1699127   1704801   1709671  
  9970.000000   1713038   1714781   1715207   1714835   1714053  
  9960.000000   1712958   1711275   1708559   1704432   1698914  
  9950.000000   1692509   1686211   1681171   1678349   1678146  
  9940.000000   1680189   1683453   1686484   1687946   1686986  
  9930.000000   1683626   1678742   1673888   1670788   1670802  
  9920.000000   1674454   1681167   1689432   1697140   1702282  
  9910.000000   1703422   1700146   1693074   1683637   1673660  
  9900.000000   1664830   1658363   1654778   1653958   1655338  
  9890.000000   1658129   1661541   1664859   1667491   1668975  
  9880.000000   1668977   1667362   1664229   1659947   1655190  
  9870.000000   1650803   1647763   1646887   1648709   1653228  
  9860.000000   1659839   1667396   1674391   1679358   1681237  
  9850.000000   1679728   1675417   1669641   1664113   1660384  
  9840.000000   1659378   1661108   1664740   1668930   1672302  
  9830.000000   1673933   1673538   1671501   1668534   1665404  
  9820.000000   1662620   1660391   1658717   1657526   1656813  
  9810.000000   1656595   1656828   1657299   1657605   1657284  
  9800.000000   1656038   1653923   1651434   1649298   1648204  
  9790.000000   1648409   1649612   1651042   1651811   1651375  
  9780.000000   1649793   1647816   1646530   1646967   1649609  
  9770.000000   1654209   1659838   1665218   1669144   1670803  
  9760.000000   1669959   1666844   1662025   1656150   1649872  
  9750.000000   1643812   1638563   1634691   1632554   1632221  
  9740.000000   1633289   1635059   1636699   1637623   1637691  
  9730.000000   1637233   1636851   1637014   1637791   1638661  
  9720.000000   1638763   1637227   1633704   1628590   1623056  
  9710.000000   1618618   1616612   1617649   1621379   1626623  
  9700.000000   1631817   1635567   1637101   1636429   1634221  
  9690.000000   1631476   1629175   1628015   1628334   1630109  
  9680.000000   1633076   1636782   1640658   1644091   1646473  
  9670.000000   1647398   1646715   1644714   1642021   1639497  
  9660.000000   1637936   1637797   1639021   1641031   1642894  
  9650.000000   1643644   1642557   1639427   1634580   1628836  
  9640.000000   1623204   1618651   1615777   1614716   1615095  
  9630.000000   1616188   1617166   1617326   1616310   1614136  
  9620.000000   1611136   1607777   1604464   1601415   1598660  
  9610.000000   1596120   1593801   1591850   1590596   1590384  
  9600.000000   1591381   1593408   1595892   1598019   1599040  
  9590.000000   1598546   1596694   1594097   1591631   1589997  
  9580.000000   1589509   1589938   1590748   1591325   1591350  
  9570.000000   1590881   1590338   1590236   1590916   1592407  
  9560.000000   1594389   1596451   1598263   1599834   1601461  
  9550.000000   1603612   1606623   1610505   1614852   1618961  
  9540.000000   1622053   1623522   1623064   1620717   1616743  
  9530.000000   1611539   1605546   1599261   1593257   1588163  
  9520.000000   1584542   1582695   1582473   1583236   1583975  
  9510.000000   1583675   1581656   1577916   1573150   1568589  
  9500.000000   1565554   1565033   1567333   1572003   1578016  
  9490.000000   1584083   1589071   1592207   1593245   1592303  
  9480.000000   1589774   1586083   1581652   1576817   1571905  
  9470.000000   1567234   1563154   1560016   1558082   1557509  
  9460.000000   1558212   1559962   1562338   1564886   1567177  
  9450.000000   1568882   1569862   1570084   1569679   1568764  
  9440.000000   1567483   1565900   1564104   1562213   1560466  
  9430.000000   1559194   1558767   1559492   1561457   1564491  
  9420.000000   1568124   1571736   1574719   1576692   1577598  
  9410.000000   1577695   1577417   1577199   1577322   1577853  
  9400.000000   1578662   1579532   1580246   1580683   1580792  
  9390.000000   1580575   1579998   1579006   1577528   1575584  
  9380.000000   1573286   1570871   1568557   1566507   1564724  
  9370.000000   1563146   1561703   1560440   1559518   1559154  
  9360.000000   1559471   1560353   1561369   1561831   1561024  
  9350.000000   1558485   1554272   1548985   1543628   1539251  
  9340.000000   1536633   1536026   1537127   1539206   1541399  
  9330.000000   1542984   1543592   1543220   1542131   1540697  
  9320.000000   1539279   1538169   1537595   1537700   1538562  
  9310.000000   1540110   1542145   1544317   1546216   1547470  
  9300.000000   1547839   1547308   1546057   1544406   1542686  
  9290.000000   1541136   1539893   1539003   1538521   1538506  
  9280.000000   1538986   1539877   1540920   1541746   1541953  
  9270.000000   1541289   1539766   1537732   1535818   1534714  
  9260.000000   1534920   1536511   1539108   1542004   1544397  
  9250.000000   1545658   1545505   1544090   1541923   1539680  
  9240.000000   1537979   1537206   1537452   1538512   1539958  
  9230.000000   1541248   1541887   1541573   1540280   1538274  
  9220.000000   1536008   1534036   1532803   1532542   1533152  
  9210.000000   1534275   1535447   1536280   1536603   1536490  
  9200.000000   1536160   1535832   1535560   1535195   1534448  
  9190.000000   1533040   1530897   1528215   1525452   1523125  
  9180.000000   1521618   1521019   1521100   1521415   1521481  
  9170.000000   1521000   1519970   1518660   1517464   1516745  
  9160.000000   1516721   1517398   1518608   1520067   1521516  
  9150.000000   1522726   1523567   1523949   1523850   1523308  
  9140.000000   1522419   1521356   1520311   1519519   1519175  
  9130.000000   1519423   1520309   1521798   1523772   1526034  
  9120.000000   1528261   1530030   1530863   1530358   1528338  
  9110.000000   1524943   1520682   1516323   1512699   1510430  
  9100.000000   1509701   1510224   1511353   1512350   1512638  
  9090.000000   1512017   1510713   1509222   1508091   1507667  
  9080.000000   1508008   1508866   1509856   1510598   1510907  
  9070.000000   1510824   1510585   1510503   1510842   1511764  
  9060.000000   1513283   1515290   1517558   1519797   1521699  
  9050.000000   1522982   1523444   1523036   1521890   1520310  
  9040.000000   1518653   1517232   1516207   1515532   1515015  
  9030.000000   1514409   1513550   1512428   1511165   1509962  
  9020.000000   1508958   1508198   1507602   1507085   1506649  
  9010.000000   1506438   1506700   1507663   1509394   1511673  
  9000.000000   1514027   1515856   1516697   1516354   1515016  
  8990.000000   1513138   1511313   1510006   1509413   1509460  
  8980.000000   1509910   1510548   1511279   1512203   1513525  
  8970.000000   1515425   1517892   1520692   1523404   1525555  
  8960.000000   1526757   1526835   1525880   1524189   1522182  
  8950.000000   1520280   1518847   1518110   1518120   1518742  
  8940.000000   1519675   1520520   1520868   1520422   1519108  
  8930.000000   1517148   1515014   1513307   1512540   1512981  
  8920.000000   1514549   1516861   1519374   1521583   1523188  
  8910.000000   1524152   1524641   1524900   1525098   1525249  
  8900.000000   1525218   1524822   1523968   1522721   1521323  
  8890.000000   1520088   1519286   1519021   1519179   1519483  
  8880.000000   1519587   1519226   1518311   1516965   1515488  
  8870.000000   1514242   1513553   1513604   1514405   1515794  
  8860.000000   1517498   1519202   1520645   1521673   1522279  
  8850.000000   1522583   1522799   1523146   1523796   1524789  
  8840.000000   1526047   1527359   1528483   1529193   1529371  
  8830.000000   1529041   1528357   1527584   1527007   1526890  
  8820.000000   1527393   1528552   1530283   1532384   1534611  
  8810.000000   1536686   1538374   1539491   1539949   1539761  
  8800.000000   1539060   1538074   1537122   1536547   1536686  
  8790.000000   1537774   1539878   1542860   1546352   1549863  
  8780.000000   1552867   1554977   1556055   1556276   1556084  
  8770.000000   1556022   1556542   1557813   1559665   1561631  
  8760.000000   1563155   1563793   1563428   1562309   1560968  
  8750.000000   1560019   1559901   1560749   1562341   1564248  
  8740.000000   1566018   1567390   1568383   1569267   1570411  
  8730.000000   1572099   1574380   1577032   1579631   1581715  
  8720.000000   1582950   1583243   1582756   1581838   1580903  
  8710.000000   1580313   1580292   1580890   1581994   1583360  
  8700.000000   1584685   1585650   1586005   1585616   1584535  
  8690.000000   1582995   1581385   1580160   1579726   1580331  
  8680.000000   1581996   1584535   1587622   1590905   1594091  
  8670.000000   1597002   1599588   1601864   1603868   1605572  
  8660.000000   1606917   1607798   1608179   1608074   1607605  
  8650.000000   1606958   1606358   1606032   1606149   1606837  
  8640.000000   1608135   1610033   1612427   1615161   1618023  
  8630.000000   1620793   1623278   1625355   1626990   1628228  
  8620.000000   1629165   1629899   1630508   1631031   1631498  
  8610.000000   1631941   1632425   1633035   1633840   1634867  
  8600.000000   1636051   1637265   1638339   1639151   1639667  
  8590.000000   1639984   1640290   1640810   1641724   1643094  
  8580.000000   1644859   1646833   1648794   1650529   1651911  
  8570.000000   1652902   1653556   1653983   1654322   1654717  
  8560.000000   1655295   1656164   1657396   1659010   1660955  
  8550.000000   1663105   1665274   1667254   1668853   1669957  
  8540.000000   1670560   1670768   1670768   1670774   1670979  
  8530.000000   1671504   1672381   1673565   1674951   1676419  
  8520.000000   1677851   1679176   1680366   1681436   1682434  
  8510.000000   1683403   1684406   1685456   1686554   1687642  
  8500.000000   1688663   1689545   1690248   1690790   1691272  
  8490.000000   1691896   1692904   1694561   1697053   1700431  
  8480.000000   1704535   1709016   1713394   1717169   1719948  
  8470.000000   1721537   1722013   1721668   1720923   1720186  
  8460.000000   1719735   1719681   1719960   1720436   1720964  
  8450.000000   1721504   1722111   1722923   1724050   1725526  
  8440.000000   1727249   1728999   1730495   1731490   1731865  
  8430.000000   1731662   1731067   1730364   1729851   1729782  
  8420.000000   1730288   1731383   1732949   1734781   1736615  
  8410.000000   1738174   1739218   1739594   1739280   1738387  
  8400.000000   1737127   1735770   1734581   1733758   1733385  
  8390.000000   1733448   1733867   1734544   1735374   1736281  
  8380.000000   1737181   1737991   1738602   1738905   1738823  
  8370.000000   1738350   1737587   1736702   1735895   1735320  
  8360.000000   1735038   1735000   1735063   1735077   1734935  
  8350.000000   1734641   1734280   1734003   1733936   1734134  
  8340.000000   1734540   1735008   1735353   1735412   1735104  
  8330.000000   1734433   1733490   1732402   1731296   1730266  
  8320.000000   1729358   1728584   1727930   1727380   1726921  
  8310.000000   1726556   1726289   1726134   1726093   1726163  
  8300.000000   1726321   1726533   1726750   1726921   1727006  
  8290.000000   1726985   1726860   1726650   1726367   1726007  
  8280.000000   1725537   1724907   1724076   1723035   1721829  
  8270.000000   1720548   1719299   1718166   1717174   1716292  
  8260.000000   1715446   1714588   1713720   1712932   1712365  
  8250.000000   1712175   1712432   1713090   1713951   1714748  
  8240.000000   1715206   1715159   1714582   1713601   1712430  
  8230.000000   1711271   1710226   1709246   1708153   1706715  
  8220.000000   1704750   1702214   1699217   1696032   1692994  
  8210.000000   1690451   1688645   1687691   1687521   1687939  
  8200.000000   1688640   1689291   1689568   1689229   1688152  
  8190.000000   1686367   1684060   1681522   1679092   1677043  
  8180.000000   1675511   1674448   1673642   1672781   1671565  
  8170.000000   1669806   1667500   1664824   1662079   1659571  
  8160.000000   1657514   1655952   1654779   1653790   1652784  
  8150.000000   1651645   1650398   1649196   1648254   1647758  
  8140.000000   1647771   1648207   1648843   1649393   1649600  
  8130.000000   1649298   1648469   1647206   1645689   1644102  
  8120.000000   1642584   1641192   1639902   1638642   1637323  
  8110.000000   1635900   1634378   1632827   1631351   1630058  
  8100.000000   1629019   1628237   1627643   1627091   1626418  
  8090.000000   1625469   1624170   1622545   1620729   1618938  
  8080.000000   1617407   1616345   1615864   1615970   1616559  
  8070.000000   1617449   1618429   1619292   1619870   1620037  
  8060.000000   1619721   1618891   1617583   1615883   1613953  
  8050.000000   1611999   1610246   1608886   1608026   1607673  
  8040.000000   1607713   1607978   1608268   1608436   1608397  
  8030.000000   1608138   1607693   1607090   1606337   1605398  
  8020.000000   1604242   1602852   1601282   1599646   1598113  
  8010.000000   1596850   1595977   1595537   1595478   1595690  
  8000.000000   1596029   1596369   1596621   1596737   1596713  
  7990.000000   1596555   1596283   1595902   1595423   1594841  
  7980.000000   1594165   1593399   1592565   1591700   1590867  
  7970.000000   1590154   1589655   1589462   1589614   1590099  
  7960.000000   1590824   1591646   1592407   1592971   1593264  
  7950.000000   1593268   1593020   1592562   1591938   1591163  
  7940.000000   1590257   1589259   1588255   1587370   1586737  
  7930.000000   1586452   1586521   1586862   1587316   1587720  
  7920.000000   1587963   1588035   1588015   1588024   1588161  
  7910.000000   1588427   1588731   1588901   1588781   1588276  
  7900.000000   1587418   1586341   1585243   1584308   1583652  
  7890.000000   1583305   1583228   1583359   1583650   1584084  
  7880.000000   1584658   1585354   1586113   1586829   1587392  
  7870.000000   1587718   1587801   1587708   1587564   1587493  
  7860.000000   1587572   1587801   1588116   1588432   1588682  
  7850.000000   1588857   1588990   1589135   1589320   1589522  
  7840.000000   1589669   1589678   1589496   1589134   1588672  
  7830.000000   1588231   1587918   1587795   1587849   1588013  
  7820.000000   1588196   1588330   1588380   1588357   1588282  
  7810.000000   1588175   1588028   1587828   1587564   1587256  
  7800.000000   1586949   1586707   1586568   1586533   1586537  
  7790.000000   1586487   1586284   1585877   1585276   1584557  
  7780.000000   1583821   1583149   1582566   1582024   1581428  
  7770.000000   1580680   1579724   1578582   1577352   1576185  
  7760.000000   1575232   1574607   1574351   1574427   1574737  
  7750.000000   1575150   1575537   1575790   1575850   1575695  
  7740.000000   1575351   1574870   1574322   1573780   1573306  
  7730.000000   1572943   1572705   1572586   1572556   1572580  
  7720.000000   1572620   1572645   1572628   1572549   1572389  
  7710.000000   1572128   1571754   1571256   1570639   1569918  
  7700.000000   1569122   1568285   1567444   1566634   1565886  
  7690.000000   1565230   1564690   1564289   1564045   1563964  
  7680.000000   1564032   1564214   1564452   1564677   1564820  
  7670.000000   1564827   1564684   1564416   1564089   1563785  
  7660.000000   1563587   1563535   1563623   1563783   1563914  
  7650.000000   1563905   1563685   1563235   1562602   1561886  
  7640.000000   1561209   1560685   1560392   1560366   1560600  
  7630.000000   1561055   1561674   1562388   1563119   1563782  
  7620.000000   1564300   1564606   1564677   1564532   1564251  
  7610.000000   1563936   1563704   1563631   1563746   1564014  
  7600.000000   1564365   1564718   1565019   1565252   1565445  
  7590.000000   1565648   1565916   1566283   1566758   1567319  
  7580.000000   1567935   1568568   1569193   1569792   1570364  
  7570.000000   1570918   1571472   1572044   1572651   1573283  
  7560.000000   1573908   1574461   1574864   1575046   1574984  
  7550.000000   1574714   1574349   1574044   1573954   1574181  
  7540.000000   1574741   1575563   1576519   1577473   1578330  
  7530.000000   1579073   1579756   1580474   1581317   1582319  
  7520.000000   1583460   1584653   1585798   1586802   1587630  
  7510.000000   1588293   1588857   1589402   1590010   1590735  
  7500.000000   1591603   1592605   1593708   1594870   1596053  
  7490.000000   1597235   1598420   1599632   1600907   1602269  
  7480.000000   1603717   1605204   1606658   1607989   1609145  
  7470.000000   1610119   1610987   1611864   1612883   1614136  
  7460.000000   1615650   1617378   1619225   1621093   1622929  
  7450.000000   1624731   1626547   1628428   1630396   1632414  
  7440.000000   1634402   1636263   1637940   1639432   1640808  
  7430.000000   1642170   1643618   1645204   1646921   1648712  
  7420.000000   1650504   1652245   1653916   1655531   1657122  
  7410.000000   1658705   1660280   1661832   1663351   1664853  
  7400.000000   1666387   1668015   1669794   1671739   1673821  
  7390.000000   1675965   1678083   1680102   1681986   1683746  
  7380.000000   1685423   1687074   1688748   1690475   1692268  
  7370.000000   1694123   1696025   1697940   1699822   1701611  
  7360.000000   1703246   1704688   1705940   1707050   1708108  
  7350.000000   1709218   1710462   1711873   1713427   1715064  
  7340.000000   1716716   1718351   1719976   1721641   1723401  
  7330.000000   1725294   1727314   1729411   1731505   1733515  
  7320.000000   1735380   1737065   1738563   1739878   1741027  
  7310.000000   1742043   1742976   1743903   1744913   1746097  
  7300.000000   1747509   1749157   1750988   1752909   1754811  
  7290.000000   1756603   1758233   1759692   1761000   1762186  
  7280.000000   1763277   1764288   1765244   1766174   1767127  
  7270.000000   1768153   1769291   1770550   1771901   1773291  
  7260.000000   1774662   1775980   1777249   1778504   1779804  
  7250.000000   1781191   1782687   1784269   1785901   1787526  
  7240.000000   1789113   1790641   1792128   1793595   1795090  
  7230.000000   1796659   1798370   1800286   1802480   1804987  
  7220.000000   1807810   1810883   1814108   1817346   1820493  
  7210.000000   1823477   1826315   1829066   1831833   1834691  
  7200.000000   1837682   1840784   1843954   1847136   1850321  
  7190.000000   1853531   1856833   1860287   1863929   1867729  
  7180.000000   1871611   1875458   1879169   1882668   1885951  
  7170.000000   1889057   1892083   1895130   1898310   1901689  
  7160.000000   1905306   1909139   1913143   1917238   1921361  
  7150.000000   1925454   1929517   1933577   1937716   1942004  
  7140.000000   1946514   1951245   1956168   1961186   1966221  
  7130.000000   1971199   1976121   1981022   1985997   1991134  
  7120.000000   1996522   2002193   2008151   2014343   2020705  
  7110.000000   2027142   2033573   2039900   2046056   2051985  
  7100.000000   2057693   2063222   2068677   2074172   2079819  
  7090.000000   2085673   2091735   2097942   2104207   2110451  
  7080.000000   2116630   2122751   2128854   2134985   2141174  
  7070.000000   2147408   2153648   2159836   2165930   2171902  
  7060.000000   2177761   2183526   2189223   2194873   2200491  
  7050.000000   2206099   2211718   2217384   2223123   2228946  
  7040.000000   2234835   2240747   2246621   2252402   2258056  
  7030.000000   2263574   2268971   2274273   2279504   2284685  
  7020.000000   2289831   2294970   2300132   2305361   2310683  
  7010.000000   2316108   2321598   2327086   2332480   2337694  
  7000.000000   2342658   2347345   2351752   2355908   2359843  
  6990.000000   2363611   2367262   2370878   2374530   2378305  
  6980.000000   2382243   2386358   2390586   2394839   2398988  
  6970.000000   2402941   2406629   2410051   2413231   2416230  
  6960.000000   2419089   2421844   2424500   2427065   2429533  
  6950.000000   2431914   2434210   2436430   2438565   2440618  
  6940.000000   2442588   2444511   2446431   2448412   2450497  
  6930.000000   2452701   2454989   2457297   2459544   2461669  
  6920.000000   2463644   2465485   2467220   2468887   2470494  
  6910.000000   2472041   2473514   2474923   2476300   2477707  
  6900.000000   2479197   2480799   2482480   2484161   2485723  
  6890.000000   2487062   2488115   2488895   2489476   2489973  
  6880.000000   2490500   2491145   2491946   2492898   2493959  
  6870.000000   2495074   2496179   2497229   2498190   2499062  
  6860.000000   2499865   2500652   2501484   2502415   2503465  
  6850.000000   2504603   2505760   2506846   2507791   2508573  
  6840.000000   2509229   2509848   2510522   2511318   2512245  
  6830.000000   2513255   2514271   2515220   2516065   2516811  
  6820.000000   2517486   2518120   2518711   2519237   2519661  
  6810.000000   2519977   2520211   2520444   2520758   2521218  
  6800.000000   2521817   2522480   2523074   2523466   2523564  
  6790.000000   2523357   2522903   2522311   2521690   2521123  
  6780.000000   2520644   2520256   2519950   2519722   2519582  
  6770.000000   2519540   2519590   2519698   2519808   2519860  
  6760.000000   2519819   2519685   2519498   2519317   2519196  
  6750.000000   2519155   2519186   2519251   2519316   2519362  
  6740.000000   2519394   2519434   2519508   2519623   2519770  
  6730.000000   2519924   2520056   2520151   2520208   2520236  
  6720.000000   2520248   2520250   2520244   2520231   2520217  
  6710.000000   2520221   2520259   2520341   2520455   2520569  
  6700.000000   2520638   2520631   2520534   2520378   2520212  
  6690.000000   2520094   2520053   2520084   2520134   2520131  
  6680.000000   2519994   2519676   2519161   2518475   2517662  
  6670.000000   2516781   2515874   2514980   2514116   2513300  
  6660.000000   2512533   2511808   2511098   2510369   2509570  
  6650.000000   2508667   2507641   2506511   2505319   2504130  
  6640.000000   2502995   2501953   2501004   2500125   2499270  
  6630.000000   2498395   2497464   2496457   2495369   2494206  
  6620.000000   2492977   2491690   2490348   2488959   2487525  
  6610.000000   2486062   2484585   2483126   2481713   2480382  
  6600.000000   2479149   2478018   2476956   2475912   2474816  
  6590.000000   2473609   2472253   2470748   2469130   2467456  
  6580.000000   2465783   2464148   2462559   2460995   2459423  
  6570.000000   2457813   2456151   2454442   2452701   2450947  
  6560.000000   2449194   2447457   2445754   2444113   2442573  
  6550.000000   2441173   2439933   2438845   2437866   2436934  
  6540.000000   2435985   2434974   2433890   2432746   2431568  
  6530.000000   2430373   2429159   2427904   2426586   2425196  
  6520.000000   2423756   2422309   2420905   2419580   2418338  
  6510.000000   2417155   2415992   2414821   2413638   2412474  
  6500.000000   2411373   2410374   2409483   2408675   2407888  
  6490.000000   2407058   2406135   2405096   2403953   2402726  
  6480.000000   2401440   2400105   2398718   2397280   2395800  
  6470.000000   2394312   2392860   2391492   2390239   2389106  
  6460.000000   2388072   2387098   2386146   2385186   2384204  
  6450.000000   2383190   2382143   2381053   2379914   2378725  
  6440.000000   2377505   2376283   2375108   2374019   2373046  
  6430.000000   2372189   2371432   2370738   2370076   2369422  
  6420.000000   2368773   2368131   2367515   2366934   2366404  
  6410.000000   2365926   2365507   2365145   2364840   2364576  
  6400.000000   2364342   2364112   2363875   2363619   2363353  
  6390.000000   2363090   2362850   2362643   2362468   2362315  
  6380.000000   2362168   2362016   2361860   2361711   2361583  
  6370.000000   2361487   2361419   2361369   2361314   2361238  
  6360.000000   2361130   2360988   2360807   2360578   2360276  
  6350.000000   2359876   2359353   2358704   2357947   2357126  
  6340.000000   2356289   2355483   2354728   2354024   2353345  
  6330.000000   2352670   2351976   2351261   2350534   2349812  
  6320.000000   2349101   2348402   2347698   2346973   2346205  
  6310.000000   2345389   2344521   2343612   2342671   2341714  
  6300.000000   2340751   2339797   2338855   2337923   2336983  
  6290.000000   2336012   2334977   2333863   2332666   2331416  
  6280.000000   2330154   2328930   2327770   2326670   2325587  
  6270.000000   2324460   2323229   2321861   2320362   2318779  
  6260.000000   2317175   2315610   2314117   2312702   2311341  
  6250.000000   2310004   2308665   2307314   2305948   2304568  
  6240.000000   2303167   2301732   2300250   2298715   2297139  
  6230.000000   2295546   2293966   2292420   2290914   2289435  
  6220.000000   2287964   2286485   2284997   2283515   2282061  
  6210.000000   2280654   2279303   2278002   2276743   2275519  
  6200.000000   2274336   2273204   2272136   2271127   2270159  
  6190.000000   2269194   2268198   2267151   2266063   2264967  
  6180.000000   2263910   2262931   2262043   2261234   2260467  
  6170.000000   2259703   2258912   2258084   2257227   2256350  
  6160.000000   2255459   2254547   2253597   2252595   2251537  
  6150.000000   2250438   2249322   2248219   2247145   2246106  
  6140.000000   2245093   2244094   2243102   2242118   2241149  
  6130.000000   2240198   2239263   2238328   2237376   2236395  
  6120.000000   2235389   2234377   2233391   2232460   2231600  
  6110.000000   2230811   2230079   2229384   2228716   2228074  
  6100.000000   2227468   2226908   2226402   2225940   2225510  
  6090.000000   2225091   2224675   2224257   2223849   2223456  
  6080.000000   2223092   2222753   2222444   2222161   2221923  
  6070.000000   2221745   2221660   2221686   2221843   2222118  
  6060.000000   2222501   2222958   2223472   2224020   2224604  
  6050.000000   2225220   2225892   2226632   2227476   2228446  
  6040.000000   2229578   2230881   2232363   2233987   2235714  
  6030.000000   2237474   2239223   2240922   2242583   2244231  
  6020.000000   2245930   2247723   2249656   2251727   2253930  
  6010.000000   2256223   2258582   2260972   2263390   2265824  
  6000.000000   2268286   2270772   2273299   2275869   2278513  
  5990.000000   2281245   2284105   2287105   2290268   2293582  
  5980.000000   2297047   2300640   2304358   2308184   2312121  
  5970.000000   2316152   2320267   2324436   2328641   2332854  
  5960.000000   2337074   2341294   2345530   2349783   2354063  
  5950.000000   2358361   2362682   2367026   2371415   2375875  
  5940.000000   2380435   2385114   2389907   2394790   2399718  
  5930.000000   2404650   2409542   2414377   2419141   2423831  
  5920.000000   2428430   2432914   2437239   2441365   2445254  
  5910.000000   2448893   2452283   2455451   2458422   2461241  
  5900.000000   2463938   2466565   2469157   2471778   2474463  
  5890.000000   2477261   2480174   2483198   2486287   2489394  
  5880.000000   2492451   2495409   2498219   2500853   2503295  
  5870.000000   2505548   2507632   2509585   2511464   2513328  
  5860.000000   2515235   2517222   2519302   2521462   2523679  
  5850.000000   2525930   2528206   2530516   2532884   2535331  
  5840.000000   2537874   2540506   2543214   2545974   2548769  
  5830.000000   2551585   2554423   2557272   2560124   2562957  
  5820.000000   2565751   2568489   2571173   2573817   2576446  
  5810.000000   2579083   2581728   2584377   2586993   2589566  
  5800.000000   2592066   2594524   2596944   2599379   2601821  
  5790.000000   2604284   2606700   2609016   2611110   2612884  
  5780.000000   2614198   2614949   2615020   2614360   2612949  
  5770.000000   2610860   2608212   2605203   2602022   2598866  
  5760.000000   2595852   2593061   2590487   2588118   2585909  
  5750.000000   2583852   2581937   2580178   2578574   2577112  
  5740.000000   2575765   2574491   2573261   2572046   2570839  
  5730.000000   2569628   2568410   2567168   2565898   2564597  
  5720.000000   2563290   2562010   2560805   2559703   2558711  
  5710.000000   2557801   2556925   2556033   2555097   2554118  
  5700.000000   2553126   2552167   2551272   2550460   2549715  
  5690.000000   2549020   2548350   2547707   2547099   2546552  
  5680.000000   2546064   2545622   2545165   2544620   2543894  
  5670.000000   2542910   2541605   2539952   2537939   2535593  
  5660.000000   2532951   2530086   2527078   2524032   2521039  
  5650.000000   2518181   2515492   2512980   2510611   2508347  
  5640.000000   2506145   2503987   2501872   2499809   2497811  
  5630.000000   2495876   2494000   2492166   2490378   2488637  
  5620.000000   2486970   2485393   2483926   2482561   2481284  
  5610.000000   2480064   2478879   2477712   2476565   2475440  
  5600.000000   2474344   2473272   2472214   2471156   2470090  
  5590.000000   2469018   2467957   2466924   2465939   2465009  
  5580.000000   2464132   2463302   2462505   2461730   2460962  
  5570.000000   2460184   2459372   2458499   2457545   2456502  
  5560.000000   2455384   2454222   2453056   2451919   2450823  
  5550.000000   2449757   2448692   2447601   2446465   2445291  
  5540.000000   2444101   2442928   2441792   2440700   2439639  
  5530.000000   2438587   2437526   2436451   2435370   2434300  
  5520.000000   2433259   2432257   2431290   2430353   2429433  
  5510.000000   2428522   2427608   2426680   2425714   2424686  
  5500.000000   2423571   2422362   2421068   2419727   2418379  
  5490.000000   2417063   2415791   2414551   2413303   2412012  
  5480.000000   2410644   2409199   2407686   2406139   2404576  
  5470.000000   2403010   2401431   2399827   2398184   2396499  
  5460.000000   2394777   2393024   2391238   2389410   2387522  
  5450.000000   2385566   2383551   2381511   2379498   2377564  
  5440.000000   2375749   2374063   2372493   2371009   2369582  
  5430.000000   2368185   2366810   2365440   2364071   2362683  
  5420.000000   2361276   2359848   2358443   2357111   2355930  
  5410.000000   2354948   2354195   2353642   2353249   2352947  
  5400.000000   2352703   2352492   2352340   2352269   2352327  
  5390.000000   2352525   2352884   2353382   2354030   2354812  
  5380.000000   2355752   2356839   2358093   2359486   2361021  
  5370.000000   2362664   2364436   2366329   2368394   2370632  
  5360.000000   2373094   2375757   2378658   2381773   2385162  
  5350.000000   2388828   2392860   2397263   2402107   2407349  
  5340.000000   2413024   2419069   2425532   2432377   2439681  
  5330.000000   2447409   2455623   2464254   2473344   2482828  
  5320.000000   2492791   2503228   2514288   2525989   2538475  
  5310.000000   2551714   2565781   2580584   2596166   2612440  
  5300.000000   2629479   2647239   2665828   2685221   2705517  
  5290.000000   2726660   2748686   2771470   2794970   2819017  
  5280.000000   2843565   2868512   2893910   2919778   2946249  
  5270.000000   2973362   3001151   3029506   3058264   3087200  
  5260.000000   3116119   3144908   3173542   3202083   3230581  
  5250.000000   3259071   3287452   3315593   3343248   3370271  
  5240.000000   3396497   3421966   3446688   3470841   3494470  
  5230.000000   3517704   3540474   3562771   3584413   3605350  
  5220.000000   3625429   3644697   3663122   3680867   3697966  
  5210.000000   3714587   3730702   3746362   3761412   3775812  
  5200.000000   3789382   3802139   3814005   3825109   3835449  
  5190.000000   3845169   3854239   3862740   3870591   3877846  
  5180.000000   3884436   3890443   3895828   3900681   3904949  
  5170.000000   3908690   3911834   3914438   3916458   3917982  
  5160.000000   3918996   3919589   3919733   3919484   3918794  
  5150.000000   3917710   3916203   3914337   3912097   3909542  
  5140.000000   3906646   3903449   3899926   3896134   3892085  
  5130.000000   3887862   3883491   3879036   3874485   3869847  
  5120.000000   3865076   3860164   3855083   3849855   3844490  
  5110.000000   3839028   3833490   3827911   3822307   3816711  
  5100.000000   3811144   3805641   3800214   3794875   3789609  
  5090.000000   3784399   3779217   3774054   3768902   3763774  
  5080.000000   3758675   3753610   3748562   3743508   3738406  
  5070.000000   3733235   3727969   3722616   3717176   3711672  
  5060.000000   3706102   3700473   3694765   3688974   3683075  
  5050.000000   3677070   3670945   3664707   3658346   3651873  
  5040.000000   3645282   3638591   3631809   3624965   3618076  
  5030.000000   3611167   3604243   3597312   3590369   3583418  
  5020.000000   3576461   3569510   3562582   3555693   3548862  
  5010.000000   3542100   3535422   3528833   3522353   3515987  
  5000.000000   3509758   3503669   3497740   3491963   3486355  
  4990.000000   3480901   3475620   3470499   3465564   3460801  
  4980.000000   3456244   3451880   3447752   3443855   3440236  
  4970.000000   3436887   3433849   3431096   3428650   3426465  
  4960.000000   3424562   3422903   3421529   3420428   3419662  
  4950.000000   3419225   3419172   3419473   3420161   3421186  
  4940.000000   3422577   3424288   3426363   3428772   3431564  
  4930.000000   3434708   3438248   3442142   3446426   3451062  
  4920.000000   3456088   3461471   3467249   3473391   3479927  
  4910.000000   3486825   3494109   3501746   3509748   3518075  
  4900.000000   3526717   3535616   3544737   3554019   3563416  
  4890.000000   3572881   3582365   3591828   3601207   3610457  
  4880.000000   3619495   3628279   3636726   3644808   3652452  
  4870.000000   3659641   3666297   3672408   3677899   3682778  
  4860.000000   3687001   3690620   3693633   3696123   3698100  
  4850.000000   3699646   3700763   3701518   3701913   3702019  
  4840.000000   3701853   3701494   3700972   3700359   3699684  
  4830.000000   3699003   3698342   3697740   3697216   3696790  
  4820.000000   3696466   3696244   3696120   3696087   3696151  
  4810.000000   3696318   3696613   3697048   3697644   3698397  
  4800.000000   3699304   3700339   3701484   3702709   3704005  
  4790.000000   3705354   3706755   3708200   3709690   3711217  
  4780.000000   3712781   3714375   3715999   3717646   3719314  
  4770.000000   3720992   3722671   3724338   3725986   3727606  
  4760.000000   3729193   3730743   3732248   3733703   3735097  
  4750.000000   3736430   3737702   3738926   3740114   3741283  
  4740.000000   3742436   3743571   3744671   3745720   3746697  
  4730.000000   3747594   3748413   3749165   3749869   3750538  
  4720.000000   3751187   3751818   3752439   3753052   3753675  
  4710.000000   3754322   3755028   3755817   3756725   3757772  
  4700.000000   3758989   3760390   3761999   3763824   3765882  
  4690.000000   3768165   3770672   3773375   3776256   3779276  
  4680.000000   3782411   3785614   3788863   3792105   3795315  
  4670.000000   3798445   3801483   3804406   3807243   3810017  
  4660.000000   3812796   3815633   3818603   3821752   3825124  
  4650.000000   3828733   3832583   3836655   3840923   3845352  
  4640.000000   3849905   3854546   3859238   3863957   3868678  
  4630.000000   3873385   3878056   3882675   3887207   3891619  
  4620.000000   3895855   3899871   3903608   3907035   3910113  
  4610.000000   3912850   3915243   3917338   3919157   3920765  
  4600.000000   3922184   3923472   3924632   3925702   3926663  
  4590.000000   3927532   3928272   3928881   3929309   3929548  
  4580.000000   3929551   3929318   3928830   3928113   3927180  
  4570.000000   3926081   3924845   3923521   3922128   3920693  
  4560.000000   3919211   3917691   3916114   3914483   3912784  
  4550.000000   3911024   3909197   3907314   3905379   3903405  
  4540.000000   3901402   3899388   3897383   3895403   3893466  
  4530.000000   3891578   3889745   3887954   3886202   3884470  
  4520.000000   3882767   3881083   3879457   3877893   3876452  
  4510.000000   3875142   3874033   3873130   3872514   3872193  
  4500.000000   3872269   3872762   3873787   3875365   3877601  
  4490.000000   3880489   3884105   3888407   3893441   3899139  
  4480.000000   3905529   3912531   3920173   3928377   3937175  
  4470.000000   3946496   3956374   3966741   3977624   3988952  
  4460.000000   4000741   4012912   4025461   4038304   4051420  
  4450.000000   4064727   4078200   4091780   4105459   4119214  
  4440.000000   4133055   4146983   4160999   4175100   4189248  
  4430.000000   4203414   4217519   4231513   4245296   4258821  
  4420.000000   4271992   4284785   4297121   4308996   4320345  
  4410.000000   4331167   4341394   4351026   4360004   4368354  
  4400.000000   4376064   4383212   4389842   4396070   4401962  
  4390.000000   4407633   4413133   4418555   4423935   4429350  
  4380.000000   4434832   4440445   4446203   4452142   4458249  
  4370.000000   4464526   4470936   4477462   4484058   4490700  
  4360.000000   4497337   4503946   4510468   4516891   4523138  
  4350.000000   4529207   4535004   4540546   4545749   4550684  
  4340.000000   4555323   4559775   4563997   4567983   4571479  
  4330.000000   4574172   4575526   4575033   4572198   4566801  
  4320.000000   4558894   4548918   4537559   4525687   4514110  
  4310.000000   4503506   4494258   4486519   4480198   4475113  
  4300.000000   4471037   4467788   4465249   4463333   4462011  
  4290.000000   4461208   4460900   4460999   4461500   4462350  
  4280.000000   4463577   4465161   4467110   4469390   4471961  
  4270.000000   4474773   4477752   4480816   4483814   4486545  
  4260.000000   4488708   4489963   4489955   4488423   4485244  
  4250.000000   4480517   4474517   4467699   4460547   4453553  
  4240.000000   4447054   4441282   4436262   4431940   4428147  
  4230.000000   4424723   4421498   4418350   4415195   4411981  
  4220.000000   4408709   4405383   4402078   4398846   4395808  
  4210.000000   4393036   4390641   4388653   4387112   4385977  
  4200.000000   4385210   4384714   4384428   4384259   4384178  
  4190.000000   4384141   4384176   4384281   4384515   4384881  
  4180.000000   4385428   4386135   4387033   4388094   4389359  
  4170.000000   4390828   4392576   4394624   4397054   4399870  
  4160.000000   4403119   4406764   4410823   4415242   4420046  
  4150.000000   4425198   4430747   4436670   4443023   4449778  
  4140.000000   4456981   4464592   4472644   4481079   4489915  
  4130.000000   4499076   4508566   4518310   4528329   4538589  
  4120.000000   4549158   4560059   4571398   4583222   4595627  
  4110.000000   4608627   4622259   4636471   4651220   4666388  
  4100.000000   4681875   4697541   4713287   4729018   4744701  
  4090.000000   4760324   4775911   4791497   4807107   4822765  
  4080.000000   4838457   4854186   4869904   4885607   4901220  
  4070.000000   4916716   4931970   4946916   4961401   4975367  
  4060.000000   4988694   5001390   5013396   5024782   5035514  
  4050.000000   5045677   5055235   5064273   5072747   5080733  
  4040.000000   5088163   5095083   5101393   5107119   5112167  
  4030.000000   5116593   5120343   5123508   5126065   5128096  
  4020.000000   5129556   5130524   5131003   5131073   5130702  
  4010.000000   5129987   5128963   5127609   5125715   5123301  
  4000.000000   5120618  
##END= 
