##TITLE= Sample 009 By ssteindl date Dienstag, November 20 2018
##JCAMP-DX= 4.24
##DATA TYPE= INFRARED SPECTRUM
##ORIGIN= Exported PE Spectrum Data File
##OWNER= Sandra Steindl
##DATE= 18/11/20
##TIME= 10:01:13.00
##SPECTROMETER/DATA SYSTEM= PERKIN-ELMER Frontier FT-IR/NIR IR
##INSTRUMENT PARAMETERS=
  APODIZATION=stark
  DETECTOR=INGAAS
##RESOLUTION= 16.000000
##DELTAX= -2.000000
##XUNITS= 1/CM
##YUNITS= A
##XFACTOR= 1.00
##YFACTOR= 0.00000011920928955078
##FIRSTX= 10000.00
##LASTX= 4000.00
##NPOINTS= 3001
##FIRSTY= 0.201698
##MAXY= 0.596076
##MINY= 0.174209
##XYDATA= (X++(Y..Y))
 10000.000000   1691966   1687975   1683830   1679766   1676637  
  9990.000000   1675033   1674605   1674293   1673295   1671364  
  9980.000000   1668741   1665925   1663542   1662015   1661368  
  9970.000000   1661294   1661455   1661700   1662147   1663091  
  9960.000000   1664772   1667123   1669706   1671799   1672704  
  9950.000000   1671987   1669702   1666296   1662448   1658752  
  9940.000000   1655531   1652808   1650414   1648234   1646338  
  9930.000000   1645030   1644679   1645519   1647430   1649915  
  9920.000000   1652182   1653441   1653149   1651249   1648170  
  9910.000000   1644689   1641649   1639663   1638973   1639384  
  9900.000000   1640431   1641491   1641956   1641304   1639154  
  9890.000000   1635344   1630004   1623614   1617024   1611262  
  9880.000000   1607379   1606040   1607386   1610808   1615144  
  9870.000000   1618939   1620938   1620531   1617986   1614430  
  9860.000000   1611451   1610608   1612905   1618487   1626636  
  9850.000000   1636004   1645038   1652358   1657042   1658722  
  9840.000000   1657544   1654050   1649040   1643417   1638067  
  9830.000000   1633695   1630729   1629217   1628822   1628962  
  9820.000000   1628963   1628407   1627178   1625645   1624370  
  9810.000000   1623970   1624765   1626675   1629245   1631806  
  9800.000000   1633784   1634831   1634933   1634244   1632954  
  9790.000000   1631109   1628634   1625432   1621570   1617397  
  9780.000000   1613461   1610389   1608546   1607982   1608323  
  9770.000000   1609051   1609695   1610074   1610325   1610683  
  9760.000000   1611292   1611845   1611742   1610118   1606437  
  9750.000000   1600658   1593522   1586297   1580424   1577065  
  9740.000000   1576724   1579297   1584172   1590710   1598371  
  9730.000000   1606906   1616065   1625435   1634197   1641217  
  9720.000000   1645379   1645951   1643017   1637389   1630430  
  9710.000000   1623432   1617202   1611831   1606832   1601619  
  9700.000000   1595882   1589971   1584669   1580978   1579459  
  9690.000000   1580062   1581996   1584172   1585648   1586018  
  9680.000000   1585542   1584835   1584541   1584852   1585491  
  9670.000000   1585764   1585059   1583068   1580106   1576847  
  9660.000000   1574119   1572425   1571791   1571774   1571752  
  9650.000000   1571326   1570569   1570072   1570675   1573090  
  9640.000000   1577515   1583546   1590257   1596603   1601715  
  9630.000000   1605189   1607084   1607779   1607738   1607306  
  9620.000000   1606612   1605607   1604135   1602048   1599229  
  9610.000000   1595619   1591210   1586090   1580469   1574746  
  9600.000000   1569422   1565031   1561910   1560110   1559318  
  9590.000000   1559016   1558694   1558111   1557424   1557113  
  9580.000000   1557754   1559672   1562740   1566303   1569435  
  9570.000000   1571218   1571191   1569437   1566645   1563743  
  9560.000000   1561584   1560583   1560608   1561088   1561332  
  9550.000000   1560859   1559652   1558138   1556988   1556814  
  9540.000000   1557853   1559930   1562479   1564845   1566502  
  9530.000000   1567289   1567429   1567425   1567824   1568977  
  9520.000000   1570861   1573065   1574910   1575677   1574873  
  9510.000000   1572362   1568436   1563680   1558818   1554505  
  9500.000000   1551171   1548968   1547759   1547267   1547153  
  9490.000000   1547213   1547351   1547661   1548269   1549335  
  9480.000000   1550921   1552970   1555300   1557586   1559462  
  9470.000000   1560499   1560348   1558745   1555633   1551190  
  9460.000000   1545847   1540261   1535163   1531240   1528923  
  9450.000000   1528318   1529156   1530887   1532831   1534338  
  9440.000000   1534970   1534523   1533083   1530879   1528254  
  9430.000000   1525536   1523045   1521064   1519855   1519656  
  9420.000000   1520644   1522915   1526404   1530872   1535869  
  9410.000000   1540786   1544952   1547746   1548763   1547862  
  9400.000000   1545243   1541363   1536881   1532509   1528900  
  9390.000000   1526526   1525573   1525961   1527325   1529189  
  9380.000000   1530986   1532278   1532737   1532309   1531151  
  9370.000000   1529626   1528181   1527187   1526858   1527126  
  9360.000000   1527709   1528126   1527861   1526493   1523843  
  9350.000000   1520084   1515686   1511351   1507770   1505489  
  9340.000000   1504725   1505360   1506970   1508945   1510676  
  9330.000000   1511651   1511605   1510459   1508348   1505469  
  9320.000000   1502096   1498482   1494917   1491710   1489216  
  9310.000000   1487802   1487750   1489199   1492043   1495953  
  9300.000000   1500413   1504816   1508616   1511359   1512829  
  9290.000000   1512960   1511898   1509869   1507212   1504317  
  9280.000000   1501652   1499746   1499091   1500076   1502765  
  9270.000000   1506930   1511939   1516985   1521203   1523970  
  9260.000000   1525049   1524612   1523129   1521124   1519002  
  9250.000000   1516872   1514591   1511896   1508631   1504953  
  9240.000000   1501312   1498389   1496720   1496596   1497812  
  9230.000000   1499822   1501877   1503307   1503777   1503274  
  9220.000000   1502087   1500493   1498658   1496478   1493750  
  9210.000000   1490322   1486347   1482339   1479096   1477481  
  9200.000000   1478064   1480938   1485567   1491022   1496235  
  9190.000000   1500326   1502835   1503723   1503345   1502137  
  9180.000000   1500490   1498557   1496352   1493809   1490957  
  9170.000000   1487995   1485289   1483304   1482419   1482882  
  9160.000000   1484635   1487404   1490656   1493808   1496297  
  9150.000000   1497724   1497935   1497033   1495402   1493512  
  9140.000000   1491806   1490505   1489599   1488817   1487778  
  9130.000000   1486161   1483895   1481222   1478629   1476694  
  9120.000000   1475868   1476313   1477843   1480010   1482301  
  9110.000000   1484284   1485735   1486655   1487207   1487621  
  9100.000000   1488067   1488673   1489523   1490702   1492264  
  9090.000000   1494191   1496338   1498377   1499861   1500289  
  9080.000000   1499317   1496865   1493204   1488850   1484414  
  9070.000000   1480427   1477225   1474938   1473534   1472980  
  9060.000000   1473290   1474558   1476805   1479921   1483547  
  9050.000000   1487151   1490132   1492037   1492736   1492431  
  9040.000000   1491610   1490776   1490300   1490232   1490322  
  9030.000000   1490149   1489301   1487600   1485137   1482302  
  9020.000000   1479596   1477528   1476416   1476347   1477124  
  9010.000000   1478358   1479544   1480177   1479856   1478381  
  9000.000000   1475829   1472546   1469096   1466110   1464152  
  8990.000000   1463500   1464091   1465496   1467098   1468248  
  8980.000000   1468493   1467697   1466078   1464117   1462383  
  8970.000000   1461369   1461374   1462449   1464438   1467012  
  8960.000000   1469786   1472362   1474407   1475677   1476055  
  8950.000000   1475584   1474471   1473040   1471659   1470642  
  8940.000000   1470184   1470305   1470863   1471639   1472409  
  8930.000000   1473046   1473500   1473823   1474093   1474372  
  8920.000000   1474661   1474900   1475008   1474903   1474540  
  8910.000000   1473913   1473071   1472094   1471092   1470198  
  8900.000000   1469553   1469286   1469465   1470072   1470984  
  8890.000000   1472005   1472908   1473517   1473777   1473755  
  8880.000000   1473626   1473569   1473709   1474044   1474466  
  8870.000000   1474798   1474888   1474685   1474265   1473822  
  8860.000000   1473581   1473737   1474375   1475453   1476815  
  8850.000000   1478232   1479490   1480398   1480863   1480848  
  8840.000000   1480407   1479643   1478717   1477817   1477144  
  8830.000000   1476882   1477182   1478126   1479719   1481888  
  8820.000000   1484489   1487329   1490170   1492776   1494943  
  8810.000000   1496551   1497587   1498159   1498478   1498789  
  8800.000000   1499310   1500157   1501302   1502590   1503780  
  8790.000000   1504646   1505035   1504936   1504461   1503801  
  8780.000000   1503166   1502710   1502494   1502476   1502540  
  8770.000000   1502557   1502442   1502206   1501962   1501916  
  8760.000000   1502304   1503325   1505054   1507387   1510040  
  8750.000000   1512589   1514604   1515742   1515907   1515247  
  8740.000000   1514167   1513168   1512718   1513074   1514222  
  8730.000000   1515905   1517740   1519391   1520673   1521640  
  8720.000000   1522514   1523613   1525177   1527289   1529826  
  8710.000000   1532503   1534967   1536888   1538054   1538381  
  8700.000000   1537938   1536896   1535519   1534109   1532980  
  8690.000000   1532374   1532425   1533104   1534236   1535537  
  8680.000000   1536712   1537569   1538101   1538515   1539156  
  8670.000000   1540386   1542444   1545351   1548899   1552711  
  8660.000000   1556392   1559619   1562246   1564280   1565851  
  8650.000000   1567102   1568141   1569000   1569667   1570149  
  8640.000000   1570506   1570877   1571422   1572291   1573535  
  8630.000000   1575126   1576910   1578705   1580318   1581624  
  8620.000000   1582575   1583186   1583524   1583652   1583640  
  8610.000000   1583531   1583358   1583146   1582929   1582768  
  8600.000000   1582746   1582988   1583634   1584807   1586563  
  8590.000000   1588841   1591454   1594084   1596368   1597970  
  8580.000000   1598732   1598701   1598157   1597512   1597206  
  8570.000000   1597569   1598740   1600648   1603066   1605710  
  8560.000000   1608343   1610820   1613085   1615116   1616871  
  8550.000000   1618260   1619167   1619538   1619450   1619143  
  8540.000000   1618973   1619327   1620484   1622517   1625216  
  8530.000000   1628179   1630922   1633038   1634307   1634728  
  8520.000000   1634501   1633891   1633130   1632343   1631574  
  8510.000000   1630835   1630190   1629804   1629927   1630828  
  8500.000000   1632644   1635334   1638621   1642075   1645218  
  8490.000000   1647668   1649276   1650112   1650443   1650577  
  8480.000000   1650781   1651164   1651698   1652251   1652710  
  8470.000000   1653047   1653363   1653844   1654673   1655968  
  8460.000000   1657685   1659670   1661668   1663457   1664905  
  8450.000000   1666034   1666992   1667992   1669217   1670748  
  8440.000000   1672523   1674353   1675975   1677134   1677663  
  8430.000000   1677536   1676872   1675915   1674962   1674303  
  8420.000000   1674128   1674503   1675340   1676437   1677523  
  8410.000000   1678354   1678771   1678768   1678473   1678120  
  8400.000000   1677955   1678171   1678837   1679873   1681081  
  8390.000000   1682207   1683017   1683376   1683262   1682786  
  8380.000000   1682127   1681498   1681067   1680930   1681093  
  8370.000000   1681466   1681894   1682192   1682190   1681777  
  8360.000000   1680916   1679687   1678263   1676900   1675856  
  8350.000000   1675344   1675458   1676160   1677271   1678526  
  8340.000000   1679641   1680394   1680681   1680521   1680030  
  8330.000000   1679349   1678602   1677836   1677045   1676174  
  8320.000000   1675192   1674117   1673048   1672139   1671535  
  8310.000000   1671339   1671544   1672062   1672726   1673373  
  8300.000000   1673890   1674248   1674501   1674729   1674987  
  8290.000000   1675250   1675418   1675336   1674860   1673929  
  8280.000000   1672604   1671078   1669603   1668434   1667721  
  8270.000000   1667498   1667644   1667969   1668242   1668303  
  8260.000000   1668073   1667574   1666884   1666084   1665225  
  8250.000000   1664290   1663226   1661941   1660376   1658510  
  8240.000000   1656401   1654177   1652003   1650077   1648572  
  8230.000000   1647656   1647421   1647902   1649014   1650575  
  8220.000000   1652301   1653858   1654914   1655197   1654570  
  8210.000000   1653041   1650782   1648063   1645193   1642443  
  8200.000000   1639997   1637938   1636247   1634864   1633699  
  8190.000000   1632697   1631810   1631016   1630265   1629487  
  8180.000000   1628583   1627457   1626057   1624385   1622535  
  8170.000000   1620642   1618876   1617356   1616131   1615158  
  8160.000000   1614321   1613492   1612574   1611548   1610476  
  8150.000000   1609474   1608666   1608121   1607820   1607654  
  8140.000000   1607451   1607044   1606323   1605280   1604002  
  8130.000000   1602648   1601389   1600360   1599608   1599090  
  8120.000000   1598678   1598203   1597492   1596416   1594916  
  8110.000000   1593013   1590804   1588432   1586060   1583836  
  8100.000000   1581867   1580201   1578833   1577717   1576791  
  8090.000000   1576004   1575329   1574771   1574341   1574038  
  8080.000000   1573833   1573649   1573395   1572961   1572285  
  8070.000000   1571338   1570166   1568853   1567513   1566255  
  8060.000000   1565158   1564269   1563597   1563135   1562862  
  8050.000000   1562757   1562786   1562904   1563038   1563094  
  8040.000000   1562975   1562594   1561910   1560928   1559719  
  8030.000000   1558390   1557075   1555892   1554935   1554242  
  8020.000000   1553813   1553603   1553538   1553535   1553500  
  8010.000000   1553366   1553084   1552665   1552165   1551698  
  8000.000000   1551399   1551391   1551735   1552389   1553206  
  7990.000000   1553939   1554315   1554095   1553163   1551554  
  7980.000000   1549470   1547209   1545104   1543413   1542269  
  7970.000000   1541656   1541445   1541471   1541586   1541731  
  7960.000000   1541921   1542236   1542749   1543489   1544410  
  7950.000000   1545392   1546290   1546949   1547281   1547235  
  7940.000000   1546832   1546117   1545155   1544019   1542791  
  7930.000000   1541582   1540518   1539745   1539377   1539480  
  7920.000000   1540022   1540883   1541859   1542717   1543242  
  7910.000000   1543287   1542812   1541873   1540620   1539241  
  7900.000000   1537941   1536876   1536156   1535802   1535771  
  7890.000000   1535953   1536216   1536431   1536508   1536421  
  7880.000000   1536213   1535985   1535865   1535972   1536382  
  7870.000000   1537109   1538104   1539269   1540480   1541621  
  7860.000000   1542594   1543340   1543830   1544062   1544050  
  7850.000000   1543808   1543354   1542700   1541870   1540893  
  7840.000000   1539815   1538707   1537647   1536735   1536047  
  7830.000000   1535656   1535585   1535832   1536345   1537055  
  7820.000000   1537870   1538697   1539445   1540032   1540394  
  7810.000000   1540479   1540268   1539768   1539023   1538095  
  7800.000000   1537059   1535977   1534887   1533807   1532740  
  7790.000000   1531705   1530734   1529898   1529267   1528906  
  7780.000000   1528828   1528990   1529294   1529611   1529830  
  7770.000000   1529872   1529724   1529412   1528990   1528505  
  7760.000000   1527986   1527450   1526915   1526422   1526043  
  7750.000000   1525864   1525948   1526302   1526851   1527443  
  7740.000000   1527889   1528007   1527688   1526917   1525780  
  7730.000000   1524432   1523056   1521821   1520844   1520197  
  7720.000000   1519891   1519906   1520184   1520644   1521174  
  7710.000000   1521648   1521934   1521923   1521552   1520818  
  7700.000000   1519790   1518582   1517338   1516193   1515253  
  7690.000000   1514579   1514184   1514046   1514113   1514323  
  7680.000000   1514602   1514877   1515073   1515119   1514963  
  7670.000000   1514567   1513935   1513104   1512158   1511207  
  7660.000000   1510382   1509801   1509544   1509635   1510028  
  7650.000000   1510626   1511298   1511922   1512409   1512723  
  7640.000000   1512876   1512907   1512856   1512739   1512549  
  7630.000000   1512260   1511864   1511385   1510894   1510490  
  7620.000000   1510264   1510269   1510486   1510828   1511165  
  7610.000000   1511366   1511352   1511113   1510720   1510291  
  7600.000000   1509955   1509811   1509905   1510233   1510753  
  7590.000000   1511408   1512154   1512954   1513787   1514622  
  7580.000000   1515418   1516110   1516626   1516901   1516910  
  7570.000000   1516679   1516302   1515925   1515717   1515824  
  7560.000000   1516328   1517219   1518392   1519671   1520855  
  7550.000000   1521770   1522327   1522539   1522522   1522444  
  7540.000000   1522477   1522746   1523303   1524121   1525132  
  7530.000000   1526244   1527394   1528545   1529701   1530868  
  7520.000000   1532047   1533207   1534295   1535246   1536016  
  7510.000000   1536599   1537043   1537434   1537891   1538526  
  7500.000000   1539426   1540618   1542069   1543679   1545315  
  7490.000000   1546831   1548109   1549086   1549780   1550280  
  7480.000000   1550739   1551316   1552149   1553311   1554815  
  7470.000000   1556599   1558567   1560608   1562625   1564549  
  7460.000000   1566340   1567979   1569477   1570855   1572166  
  7450.000000   1573464   1574822   1576286   1577887   1579610  
  7440.000000   1581410   1583231   1585028   1586793   1588554  
  7430.000000   1590366   1592277   1594300   1596401   1598500  
  7420.000000   1600506   1602347   1604001   1605505   1606935  
  7410.000000   1608378   1609897   1611510   1613192   1614888  
  7400.000000   1616547   1618136   1619658   1621132   1622591  
  7390.000000   1624059   1625551   1627071   1628625   1630231  
  7380.000000   1631922   1633736   1635702   1637830   1640095  
  7370.000000   1642448   1644812   1647107   1649262   1651231  
  7360.000000   1653004   1654606   1656101   1657564   1659072  
  7350.000000   1660674   1662379   1664153   1665926   1667624  
  7340.000000   1669191   1670628   1671977   1673327   1674765  
  7330.000000   1676362   1678139   1680062   1682057   1684024  
  7320.000000   1685878   1687551   1689016   1690269   1691336  
  7310.000000   1692264   1693109   1693942   1694837   1695867  
  7300.000000   1697091   1698545   1700231   1702119   1704141  
  7290.000000   1706202   1708193   1710003   1711537   1712731  
  7280.000000   1713575   1714119   1714474   1714794   1715238  
  7270.000000   1715935   1716948   1718258   1719776   1721378  
  7260.000000   1722949   1724413   1725753   1726987   1728158  
  7250.000000   1729291   1730404   1731485   1732552   1733635  
  7240.000000   1734817   1736185   1737826   1739771   1742004  
  7230.000000   1744452   1747043   1749707   1752432   1755213  
  7220.000000   1758061   1760937   1763781   1766483   1768976  
  7210.000000   1771238   1773370   1775536   1777954   1780784  
  7200.000000   1784086   1787780   1791687   1795594   1799347  
  7190.000000   1802889   1806295   1809704   1813267   1817051  
  7180.000000   1821028   1825056   1828963   1832589   1835882  
  7170.000000   1838877   1841719   1844579   1847623   1850937  
  7160.000000   1854533   1858343   1862282   1866261   1870247  
  7150.000000   1874234   1878277   1882436   1886788   1891373  
  7140.000000   1896217   1901291   1906563   1911969   1917469  
  7130.000000   1923018   1928611   1934236   1939913   1945631  
  7120.000000   1951392   1957161   1962923   1968646   1974332  
  7110.000000   1979982   1985632   1991308   1997056   2002907  
  7100.000000   2008899   2015059   2021412   2027960   2034689  
  7090.000000   2041541   2048445   2055306   2062054   2068640  
  7080.000000   2075073   2081390   2087664   2093949   2100286  
  7070.000000   2106680   2113118   2119584   2126080   2132630  
  7060.000000   2139268   2146020   2152884   2159819   2166756  
  7050.000000   2173617   2180340   2186897   2193298   2199578  
  7040.000000   2205783   2211950   2218102   2224249   2230396  
  7030.000000   2236548   2242706   2248871   2255025   2261152  
  7020.000000   2267219   2273211   2279111   2284926   2290655  
  7010.000000   2296306   2301870   2307345   2312724   2318030  
  7000.000000   2323283   2328522   2333751   2338955   2344061  
  6990.000000   2348990   2353657   2358037   2362149   2366092  
  6980.000000   2369971   2373897   2377903   2381982   2386052  
  6970.000000   2390040   2393873   2397539   2401052   2404461  
  6960.000000   2407788   2411044   2414198   2417224   2420093  
  6950.000000   2422822   2425438   2427991   2430508   2433007  
  6940.000000   2435466   2437867   2440187   2442431   2444603  
  6930.000000   2446719   2448767   2450732   2452585   2454325  
  6920.000000   2455976   2457615   2459332   2461214   2463294  
  6910.000000   2465542   2467860   2470119   2472184   2473966  
  6900.000000   2475424   2476587   2477520   2478322   2479089  
  6890.000000   2479922   2480893   2482061   2483432   2484978  
  6880.000000   2486611   2488225   2489700   2490954   2491952  
  6870.000000   2492727   2493350   2493910   2494472   2495065  
  6860.000000   2495674   2496267   2496812   2497302   2497751  
  6850.000000   2498199   2498674   2499202   2499779   2500402  
  6840.000000   2501058   2501745   2502458   2503185   2503897  
  6830.000000   2504546   2505083   2505473   2505712   2505835  
  6820.000000   2505904   2505984   2506122   2506339   2506622  
  6810.000000   2506957   2507323   2507724   2508163   2508647  
  6800.000000   2509150   2509631   2510022   2510262   2510311  
  6790.000000   2510165   2509850   2509410   2508882   2508293  
  6780.000000   2507657   2506993   2506330   2505721   2505216  
  6770.000000   2504859   2504651   2504558   2504508   2504427  
  6760.000000   2504255   2503965   2503563   2503067   2502499  
  6750.000000   2501866   2501176   2500444   2499714   2499052  
  6740.000000   2498538   2498228   2498129   2498193   2498318  
  6730.000000   2498395   2498333   2498103   2497731   2497287  
  6720.000000   2496845   2496458   2496132   2495846   2495557  
  6710.000000   2495238   2494877   2494483   2494062   2493615  
  6700.000000   2493112   2492522   2491806   2490956   2489982  
  6690.000000   2488925   2487830   2486741   2485681   2484666  
  6680.000000   2483696   2482777   2481913   2481108   2480352  
  6670.000000   2479622   2478876   2478076   2477192   2476219  
  6660.000000   2475175   2474089   2472990   2471891   2470784  
  6650.000000   2469653   2468481   2467270   2466031   2464793  
  6640.000000   2463574   2462384   2461204   2460012   2458776  
  6630.000000   2457488   2456152   2454794   2453441   2452116  
  6620.000000   2450816   2449522   2448198   2446809   2445328  
  6610.000000   2443750   2442088   2440377   2438659   2436979  
  6600.000000   2435367   2433841   2432387   2430973   2429552  
  6590.000000   2428073   2426502   2424830   2423074   2421270  
  6580.000000   2419456   2417661   2415897   2414159   2412443  
  6570.000000   2410754   2409112   2407553   2406109   2404795  
  6560.000000   2403598   2402480   2401389   2400276   2399115  
  6550.000000   2397903   2396657   2395393   2394121   2392838  
  6540.000000   2391533   2390199   2388846   2387496   2386182  
  6530.000000   2384926   2383733   2382585   2381453   2380308  
  6520.000000   2379139   2377952   2376770   2375619   2374513  
  6510.000000   2373454   2372433   2371437   2370465   2369522  
  6500.000000   2368616   2367745   2366890   2366015   2365082  
  6490.000000   2364062   2362957   2361794   2360622   2359486  
  6480.000000   2358415   2357411   2356451   2355502   2354540  
  6470.000000   2353552   2352539   2351508   2350460   2349389  
  6460.000000   2348288   2347158   2346015   2344894   2343835  
  6450.000000   2342869   2342003   2341217   2340475   2339736  
  6440.000000   2338976   2338188   2337386   2336583   2335789  
  6430.000000   2334996   2334193   2333376   2332563   2331794  
  6420.000000   2331124   2330597   2330234   2330009   2329864  
  6410.000000   2329723   2329521   2329220   2328820   2328350  
  6400.000000   2327857   2327380   2326942   2326546   2326177  
  6390.000000   2325809   2325419   2324988   2324507   2323983  
  6380.000000   2323440   2322918   2322463   2322117   2321896  
  6370.000000   2321783   2321724   2321642   2321463   2321143  
  6360.000000   2320679   2320115   2319514   2318940   2318425  
  6350.000000   2317965   2317525   2317063   2316546   2315971  
  6340.000000   2315348   2314702   2314041   2313363   2312651  
  6330.000000   2311892   2311084   2310255   2309442   2308688  
  6320.000000   2308007   2307392   2306800   2306184   2305503  
  6310.000000   2304744   2303914   2303038   2302134   2301208  
  6300.000000   2300242   2299219   2298122   2296961   2295756  
  6290.000000   2294539   2293324   2292109   2290861   2289546  
  6280.000000   2288128   2286605   2284999   2283362   2281745  
  6270.000000   2280189   2278706   2277286   2275896   2274503  
  6260.000000   2273075   2271598   2270067   2268488   2266870  
  6250.000000   2265227   2263578   2261943   2260343   2258792  
  6240.000000   2257289   2255822   2254361   2252879   2251352  
  6230.000000   2249770   2248137   2246471   2244791   2243117  
  6220.000000   2241463   2239835   2238238   2236670   2235125  
  6210.000000   2233593   2232059   2230509   2228940   2227358  
  6200.000000   2225784   2224244   2222763   2221344   2219972  
  6190.000000   2218612   2217230   2215806   2214350   2212898  
  6180.000000   2211504   2210217   2209060   2208022   2207062  
  6170.000000   2206121   2205147   2204105   2202985   2201797  
  6160.000000   2200560   2199290   2197998   2196684   2195353  
  6150.000000   2194007   2192657   2191309   2189968   2188629  
  6140.000000   2187285   2185930   2184569   2183220   2181910  
  6130.000000   2180669   2179514   2178448   2177455   2176507  
  6120.000000   2175575   2174631   2173661   2172656   2171621  
  6110.000000   2170559   2169485   2168413   2167372   2166384  
  6100.000000   2165479   2164669   2163959   2163336   2162786  
  6090.000000   2162289   2161836   2161425   2161063   2160748  
  6080.000000   2160483   2160250   2160042   2159844   2159664  
  6070.000000   2159507   2159398   2159344   2159358   2159423  
  6060.000000   2159533   2159665   2159822   2160003   2160230  
  6050.000000   2160512   2160868   2161296   2161801   2162380  
  6040.000000   2163050   2163821   2164723   2165762   2166944  
  6030.000000   2168243   2169638   2171090   2172589   2174124  
  6020.000000   2175712   2177361   2179086   2180874   2182717  
  6010.000000   2184585   2186467   2188345   2190232   2192126  
  6000.000000   2194047   2195989   2197965   2199970   2202027  
  5990.000000   2204149   2206375   2208728   2211236   2213897  
  5980.000000   2216711   2219656   2222725   2225901   2229187  
  5970.000000   2232573   2236054   2239601   2243194   2246794  
  5960.000000   2250390   2253967   2257545   2261135   2264768  
  5950.000000   2268450   2272192   2275987   2279834   2283731  
  5940.000000   2287685   2291703   2295795   2299966   2304213  
  5930.000000   2308536   2312924   2317369   2321846   2326320  
  5920.000000   2330733   2335017   2339095   2342909   2346426  
  5910.000000   2349654   2352630   2355422   2358093   2360712  
  5900.000000   2363320   2365959   2368648   2371416   2374267  
  5890.000000   2377211   2380220   2383259   2386266   2389187  
  5880.000000   2391972   2394602   2397085   2399451   2401739  
  5870.000000   2403984   2406208   2408419   2410618   2412805  
  5860.000000   2414981   2417152   2419323   2421500   2423687  
  5850.000000   2425891   2428123   2430402   2432748   2435174  
  5840.000000   2437683   2440261   2442884   2445523   2448161  
  5830.000000   2450788   2453410   2456029   2458649   2461254  
  5820.000000   2463827   2466343   2468792   2471177   2473515  
  5810.000000   2475830   2478137   2480447   2482742   2485018  
  5800.000000   2487251   2489459   2491635   2493812   2495976  
  5790.000000   2498130   2500213   2502180   2503932   2505398  
  5780.000000   2506469   2507070   2507103   2506521   2505286  
  5770.000000   2503440   2501065   2498322   2495383   2492439  
  5760.000000   2489618   2487012   2484624   2482439   2480406  
  5750.000000   2478506   2476734   2475122   2473697   2472477  
  5740.000000   2471448   2470561   2469757   2468968   2468156  
  5730.000000   2467293   2466394   2465470   2464553   2463651  
  5720.000000   2462784   2461950   2461158   2460406   2459701  
  5710.000000   2459044   2458442   2457897   2457419   2457011  
  5700.000000   2456679   2456418   2456216   2456052   2455897  
  5690.000000   2455735   2455549   2455349   2455139   2454936  
  5680.000000   2454729   2454504   2454210   2453802   2453217  
  5670.000000   2452413   2451351   2450018   2448403   2446524  
  5660.000000   2444403   2442093   2439654   2437173   2434725  
  5650.000000   2432382   2430175   2428113   2426171   2424315  
  5640.000000   2422513   2420750   2419029   2417365   2415775  
  5630.000000   2414268   2412842   2411485   2410188   2408935  
  5620.000000   2407726   2406551   2405406   2404272   2403136  
  5610.000000   2401982   2400810   2399627   2398456   2397316  
  5600.000000   2396222   2395174   2394161   2393165   2392173  
  5590.000000   2391179   2390187   2389205   2388236   2387277  
  5580.000000   2386317   2385343   2384348   2383334   2382308  
  5570.000000   2381281   2380253   2379217   2378157   2377056  
  5560.000000   2375903   2374702   2373465   2372208   2370944  
  5550.000000   2369679   2368408   2367128   2365837   2364548  
  5540.000000   2363276   2362038   2360844   2359692   2358569  
  5530.000000   2357460   2356355   2355252   2354159   2353086  
  5520.000000   2352039   2351015   2350006   2349001   2347989  
  5510.000000   2346969   2345935   2344885   2343805   2342679  
  5500.000000   2341490   2340234   2338921   2337583   2336253  
  5490.000000   2334958   2333698   2332451   2331170   2329809  
  5480.000000   2328334   2326738   2325034   2323259   2321440  
  5470.000000   2319607   2317767   2315926   2314085   2312253  
  5460.000000   2310439   2308648   2306873   2305093   2303278  
  5450.000000   2301404   2299461   2297463   2295446   2293453  
  5440.000000   2291523   2289676   2287919   2286238   2284628  
  5430.000000   2283075   2281579   2280131   2278724   2277338  
  5420.000000   2275966   2274602   2273276   2272023   2270901  
  5410.000000   2269939   2269159   2268525   2268007   2267546  
  5400.000000   2267126   2266736   2266412   2266181   2266086  
  5390.000000   2266131   2266327   2266648   2267102   2267681  
  5380.000000   2268421   2269331   2270443   2271736   2273210  
  5370.000000   2274816   2276555   2278396   2280374   2282484  
  5360.000000   2284779   2287249   2289946   2292856   2296041  
  5350.000000   2299498   2303307   2307463   2312031   2316975  
  5340.000000   2322342   2328086   2334272   2340875   2347979  
  5330.000000   2355551   2363649   2372198   2381225   2390645  
  5320.000000   2400521   2410817   2421659   2433052   2445143  
  5310.000000   2457919   2471487   2485790   2500899   2516741  
  5300.000000   2533385   2550772   2568991   2588002   2607901  
  5290.000000   2628638   2650265   2672672   2695830   2719573  
  5280.000000   2743857   2768572   2793771   2819473   2845819  
  5270.000000   2872854   2900622   2929012   2957859   2986923  
  5260.000000   3016002   3044964   3073774   3102482   3131131  
  5250.000000   3159751   3188240   3216468   3244196   3271291  
  5240.000000   3297598   3323165   3348003   3372284   3396038  
  5230.000000   3419374   3442201   3464500   3486082   3506905  
  5220.000000   3526825   3545903   3564113   3581619   3598449  
  5210.000000   3614762   3630521   3645782   3660397   3674351  
  5200.000000   3687484   3699842   3711362   3722182   3732295  
  5190.000000   3741832   3750734   3759052   3766668   3773607  
  5180.000000   3779777   3785255   3790003   3794130   3797609  
  5170.000000   3800530   3802850   3804653   3805910   3806718  
  5160.000000   3807058   3807011   3806531   3805658   3804323  
  5150.000000   3802561   3800328   3797691   3794640   3791252  
  5140.000000   3787518   3783500   3779184   3774628   3769828  
  5130.000000   3764844   3759670   3754342   3748829   3743143  
  5120.000000   3737256   3731197   3724981   3718670   3712296  
  5110.000000   3705909   3699506   3693092   3686637   3680138  
  5100.000000   3673587   3667013   3660442   3653910   3647429  
  5090.000000   3641008   3634630   3628284   3621952   3615635  
  5080.000000   3609326   3603032   3596740   3590440   3584105  
  5070.000000   3577719   3571261   3564731   3558128   3551468  
  5060.000000   3544759   3538017   3531243   3524450   3517633  
  5050.000000   3510801   3503943   3497058   3490129   3483148  
  5040.000000   3476101   3468987   3461808   3454579   3447311  
  5030.000000   3440020   3432714   3425399   3418082   3410773  
  5020.000000   3403492   3396259   3389100   3382026   3375051  
  5010.000000   3368168   3361381   3354678   3348078   3341586  
  5000.000000   3335241   3329058   3323074   3317286   3311716  
  4990.000000   3306342   3301183   3296217   3291474   3286945  
  4980.000000   3282666   3278625   3274856   3271338   3268103  
  4970.000000   3265131   3262464   3260084   3258033   3256285  
  4960.000000   3254871   3253751   3252951   3252430   3252222  
  4950.000000   3252300   3252712   3253437   3254530   3255968  
  4940.000000   3257803   3260007   3262624   3265615   3269010  
  4930.000000   3272752   3276855   3281255   3285968   3290945  
  4920.000000   3296220   3301768   3307635   3313801   3320303  
  4910.000000   3327116   3334261   3341710   3349476   3357529  
  4900.000000   3365869   3374456   3383264   3392241   3401339  
  4890.000000   3410503   3419676   3428812   3437855   3446768  
  4880.000000   3455495   3464011   3472259   3480219   3487833  
  4870.000000   3495082   3501899   3508269   3514131   3519488  
  4860.000000   3524305   3528623   3532436   3535812   3538760  
  4850.000000   3541352   3543602   3545580   3547305   3548851  
  4840.000000   3550240   3551539   3552759   3553940   3555075  
  4830.000000   3556180   3557242   3558278   3559289   3560305  
  4820.000000   3561345   3562443   3563619   3564891   3566262  
  4810.000000   3567722   3569245   3570796   3572336   3573827  
  4800.000000   3575249   3576599   3577899   3579186   3580503  
  4790.000000   3581890   3583367   3584935   3586572   3588247  
  4780.000000   3589922   3591573   3593178   3594731   3596224  
  4770.000000   3597656   3599014   3600294   3601482   3602582  
  4760.000000   3603596   3604540   3605422   3606257   3607044  
  4750.000000   3607784   3608462   3609078   3609620   3610094  
  4740.000000   3610495   3610835   3611111   3611334   3611502  
  4730.000000   3611624   3611701   3611736   3611727   3611668  
  4720.000000   3611548   3611355   3611088   3610751   3610368  
  4710.000000   3609967   3609591   3609275   3609052   3608940  
  4700.000000   3608955   3609101   3609391   3609830   3610437  
  4690.000000   3611220   3612192   3613346   3614673   3616142  
  4680.000000   3617724   3619369   3621045   3622699   3624308  
  4670.000000   3625833   3627273   3628621   3629906   3631152  
  4660.000000   3632411   3633718   3635124   3636653   3638335  
  4650.000000   3640179   3642194   3644375   3646720   3649213  
  4640.000000   3651840   3654577   3657397   3660277   3663193  
  4630.000000   3666128   3669063   3671987   3674877   3677712  
  4620.000000   3680452   3683062   3685491   3687704   3689656  
  4610.000000   3691336   3692726   3693851   3694727   3695407  
  4600.000000   3695923   3696335   3696665   3696957   3697206  
  4590.000000   3697426   3697586   3697679   3697660   3697514  
  4580.000000   3697199   3696702   3695994   3695079   3693952  
  4570.000000   3692641   3691170   3689586   3687921   3686215  
  4560.000000   3684485   3682745   3680987   3679207   3677389  
  4550.000000   3675534   3673640   3671718   3669781   3667846  
  4540.000000   3665929   3664043   3662205   3660421   3658706  
  4530.000000   3657054   3655471   3653935   3652449   3650985  
  4520.000000   3649564   3648178   3646883   3645694   3644694  
  4510.000000   3643906   3643418   3643247   3643478   3644115  
  4500.000000   3645239   3646842   3648997   3651678   3654950  
  4490.000000   3658776   3663226   3668268   3673980   3680332  
  4480.000000   3687395   3695122   3703555   3712618   3722324  
  4470.000000   3732578   3743376   3754621   3766301   3778325  
  4460.000000   3790684   3803296   3816157   3829201   3842423  
  4450.000000   3855769   3869228   3882758   3896353   3909995  
  4440.000000   3923690   3937448   3951273   3965173   3979116  
  4430.000000   3993077   4006974   4020757   4034323   4047634  
  4420.000000   4060605   4073228   4085439   4097240   4108556  
  4410.000000   4119371   4129590   4139188   4148081   4156278  
  4400.000000   4163749   4170570   4176775   4182489   4187780  
  4390.000000   4192782   4197565   4202241   4206857   4211489  
  4380.000000   4216150   4220880   4225674   4230556   4235527  
  4370.000000   4240621   4245852   4251251   4256823   4262567  
  4360.000000   4268452   4274448   4280495   4286563   4292573  
  4350.000000   4298508   4304275   4309880   4315248   4320444  
  4340.000000   4325454   4330382   4335200   4339884   4344180  
  4330.000000   4347753   4350067   4350607   4348900   4344742  
  4320.000000   4338213   4329764   4320069   4309963   4300196  
  4310.000000   4291384   4283843   4277677   4272758   4268888  
  4300.000000   4265825   4263384   4261437   4259896   4258721  
  4290.000000   4257849   4257269   4256931   4256869   4257087  
  4280.000000   4257653   4258594   4259938   4261669   4263736  
  4270.000000   4266080   4268608   4271230   4273799   4276132  
  4260.000000   4277971   4279024   4278983   4277619   4274814  
  4250.000000   4270643   4265335   4259280   4252908   4246658  
  4240.000000   4240848   4235695   4231236   4227428   4224117  
  4230.000000   4221151   4218367   4215645   4212904   4210097  
  4220.000000   4207230   4204314   4201421   4198603   4195972  
  4210.000000   4193589   4191546   4189863   4188572   4187627  
  4200.000000   4187000   4186610   4186413   4186336   4186361  
  4190.000000   4186444   4186612   4186855   4187236   4187769  
  4180.000000   4188530   4189532   4190836   4192428   4194342  
  4170.000000   4196544   4199064   4201877   4205033   4208525  
  4160.000000   4212417   4216696   4221407   4226507   4232016  
  4150.000000   4237871   4244087   4250613   4257488   4264685  
  4140.000000   4272269   4280224   4288615   4297410   4306649  
  4130.000000   4316277   4326313   4336697   4347458   4358563  
  4120.000000   4370065   4381960   4394310   4407110   4420401  
  4110.000000   4434151   4448367   4462990   4477993   4493297  
  4100.000000   4508855   4524584   4540435   4556347   4572300  
  4090.000000   4588275   4604279   4620325   4636423   4652592  
  4080.000000   4668822   4685120   4701448   4717794   4734078  
  4070.000000   4750260   4766222   4781912   4797208   4812090  
  4060.000000   4826471   4840373   4853730   4866571   4878818  
  4050.000000   4890503   4901554   4912032   4921893   4931224  
  4040.000000   4939976   4948218   4955868   4962972   4969446  
  4030.000000   4975353   4980628   4985338   4989414   4992887  
  4020.000000   4995653   4997754   4999175   5000009   5000249  
  4010.000000   5000040   4999460   4998512   4996969   4994850  
  4000.000000   4992434  
##END= 
