##TITLE= Sample 045 By ssteindl date Dienstag, November 20 2018
##JCAMP-DX= 4.24
##DATA TYPE= INFRARED SPECTRUM
##ORIGIN= Exported PE Spectrum Data File
##OWNER= Sandra Steindl
##DATE= 18/11/20
##TIME= 12:09:06.00
##SPECTROMETER/DATA SYSTEM= PERKIN-ELMER Frontier FT-IR/NIR IR
##INSTRUMENT PARAMETERS=
  APODIZATION=stark
  DETECTOR=INGAAS
##RESOLUTION= 16.000000
##DELTAX= -2.000000
##XUNITS= 1/CM
##YUNITS= A
##XFACTOR= 1.00
##YFACTOR= 0.00000011920928955078
##FIRSTX= 10000.00
##LASTX= 4000.00
##NPOINTS= 3001
##FIRSTY= 0.194359
##MAXY= 0.583896
##MINY= 0.168044
##XYDATA= (X++(Y..Y))
 10000.000000   1630397   1631694   1633074   1634399   1635179  
  9990.000000   1635081   1634284   1633428   1632947   1632893  
  9980.000000   1632877   1632347   1630874   1628452   1625623  
  9970.000000   1623159   1621590   1620784   1619857   1617504  
  9960.000000   1612656   1605148   1596027   1587337   1581353  
  9950.000000   1579685   1582597   1588879   1596368   1602762  
  9940.000000   1606508   1607171   1605426   1602464   1599449  
  9930.000000   1596994   1595220   1593943   1593167   1593180  
  9920.000000   1594510   1597496   1601942   1607033   1611552  
  9910.000000   1614493   1615465   1614995   1614230   1614445  
  9900.000000   1616425   1620092   1624572   1628608   1631110  
  9890.000000   1631634   1630384   1628065   1625345   1622633  
  9880.000000   1619906   1616996   1613830   1610667   1607974  
  9870.000000   1606125   1605040   1604047   1602088   1598210  
  9860.000000   1592086   1584297   1576204   1569435   1565250  
  9850.000000   1564028   1565209   1567592   1569950   1571522  
  9840.000000   1572235   1572511   1572889   1573630   1574599  
  9830.000000   1575399   1575703   1575523   1575277   1575535  
  9820.000000   1576700   1578656   1580814   1582306   1582441  
  9810.000000   1580975   1578213   1574761   1571238   1567955  
  9800.000000   1564928   1562020   1559262   1557029   1555982  
  9790.000000   1556783   1559695   1564358   1569842   1575019  
  9780.000000   1579042   1581703   1583449   1585088   1587304  
  9770.000000   1590271   1593589   1596534   1598491   1599325  
  9760.000000   1599407   1599410   1599808   1600617   1601262  
  9750.000000   1600940   1599013   1595451   1590859   1586246  
  9740.000000   1582472   1579877   1578058   1576208   1573508  
  9730.000000   1569693   1565189   1560967   1558054   1556991  
  9720.000000   1557561   1558822   1559564   1558792   1556162  
  9710.000000   1552004   1547146   1542483   1538721   1536213  
  9700.000000   1535070   1535280   1536816   1539553   1543172  
  9690.000000   1546997   1550158   1551787   1551469   1549429  
  9680.000000   1546548   1543993   1542754   1543211   1545058  
  9670.000000   1547517   1549818   1551627   1553159   1555058  
  9660.000000   1557842   1561605   1565708   1569098   1570706  
  9650.000000   1570034   1567437   1563976   1560932   1559138  
  9640.000000   1558551   1558259   1556908   1553423   1547526  
  9630.000000   1539969   1532170   1525689   1521550   1519992  
  9620.000000   1520473   1522061   1523845   1525221   1525970  
  9610.000000   1526071   1525552   1524326   1522297   1519493  
  9600.000000   1516262   1513252   1511259   1510859   1512172  
  9590.000000   1514718   1517649   1520054   1521359   1521461  
  9580.000000   1520688   1519514   1518279   1517037   1515613  
  9570.000000   1513848   1511827   1510018   1509123   1509821  
  9560.000000   1512377   1516503   1521326   1525717   1528619  
  9550.000000   1529414   1528053   1524969   1520860   1516381  
  9540.000000   1512026   1508041   1504546   1501582   1499204  
  9530.000000   1497426   1496192   1495349   1494648   1493898  
  9520.000000   1492999   1492109   1491539   1491711   1492935  
  9510.000000   1495296   1498572   1502304   1505921   1508881  
  9500.000000   1510783   1511368   1510545   1508318   1504829  
  9490.000000   1500305   1495106   1489640   1484336   1479548  
  9480.000000   1475496   1472281   1469870   1468223   1467281  
  9470.000000   1467055   1467553   1468750   1470547   1472713  
  9460.000000   1474983   1477029   1478623   1479579   1479873  
  9450.000000   1479540   1478737   1477678   1476688   1476150  
  9440.000000   1476466   1477934   1480606   1484229   1488237  
  9430.000000   1491940   1494673   1496054   1496034   1494958  
  9420.000000   1493393   1491990   1491226   1491302   1492078  
  9410.000000   1493181   1494124   1494462   1493874   1492221  
  9400.000000   1489553   1486088   1482159   1478143   1474389  
  9390.000000   1471139   1468523   1466546   1465149   1464273  
  9380.000000   1463875   1463996   1464653   1465876   1467572  
  9370.000000   1469587   1471710   1473745   1475592   1477192  
  9360.000000   1478544   1479521   1479900   1479281   1477300  
  9350.000000   1473733   1468733   1462853   1456956   1452003  
  9340.000000   1448735   1447530   1448273   1450534   1453704  
  9330.000000   1457248   1460786   1464090   1466982   1469226  
  9320.000000   1470531   1470589   1469271   1466722   1463469  
  9310.000000   1460237   1457780   1456581   1456736   1457923  
  9300.000000   1459521   1460855   1461383   1460894   1459494  
  9290.000000   1457550   1455511   1453814   1452782   1452614  
  9280.000000   1453333   1454807   1456728   1458703   1460311  
  9270.000000   1461231   1461312   1460634   1459477   1458166  
  9260.000000   1456942   1455792   1454502   1452708   1450133  
  9250.000000   1446710   1442698   1438659   1435284   1433207  
  9240.000000   1432751   1433908   1436322   1439485   1442842  
  9230.000000   1445946   1448498   1450341   1451432   1451769  
  9220.000000   1451418   1450459   1449041   1447275   1445291  
  9210.000000   1443127   1440829   1438411   1435936   1433528  
  9200.000000   1431367   1429706   1428742   1428633   1429386  
  9190.000000   1430963   1433266   1436226   1439746   1443673  
  9180.000000   1447744   1451555   1454641   1456513   1456858  
  9170.000000   1455582   1452931   1449349   1445412   1441639  
  9160.000000   1438420   1435988   1434393   1433634   1433610  
  9150.000000   1434272   1435491   1437168   1439138   1441250  
  9140.000000   1443359   1445344   1447108   1448474   1449217  
  9130.000000   1449013   1447613   1444893   1441018   1436468  
  9120.000000   1431980   1428363   1426233   1425843   1426986  
  9110.000000   1429119   1431518   1433538   1434758   1435078  
  9100.000000   1434639   1433709   1432547   1431356   1430297  
  9090.000000   1429500   1429097   1429192   1429823   1430874  
  9080.000000   1432049   1432948   1433191   1432557   1431047  
  9070.000000   1428896   1426492   1424224   1422357   1420970  
  9060.000000   1420011   1419377   1418996   1418863   1419012  
  9050.000000   1419452   1420097   1420769   1421252   1421381  
  9040.000000   1421139   1420662   1420205   1420011   1420223  
  9030.000000   1420809   1421595   1422349   1422896   1423181  
  9020.000000   1423296   1423389   1423596   1423927   1424263  
  9010.000000   1424395   1424132   1423393   1422249   1420951  
  9000.000000   1419828   1419223   1419341   1420259   1421876  
  8990.000000   1423976   1426256   1428377   1430047   1430988  
  8980.000000   1431008   1429977   1427917   1424964   1421405  
  8970.000000   1417662   1414270   1411790   1410651   1411106  
  8960.000000   1413100   1416326   1420193   1424044   1427277  
  8950.000000   1429505   1430618   1430737   1430157   1429143  
  8940.000000   1427860   1426285   1424320   1421854   1418933  
  8930.000000   1415798   1412889   1410713   1409656   1409860  
  8920.000000   1411139   1413060   1415052   1416623   1417487  
  8910.000000   1417654   1417382   1417081   1417177   1417974  
  8900.000000   1419588   1421900   1424622   1427300   1429456  
  8890.000000   1430623   1430516   1429046   1426404   1423026  
  8880.000000   1419506   1416480   1414430   1413643   1414133  
  8870.000000   1415749   1418222   1421295   1424760   1428432  
  8860.000000   1432098   1435405   1437910   1439111   1438681  
  8850.000000   1436532   1432995   1428748   1424735   1421902  
  8840.000000   1420925   1422089   1425192   1429700   1434827  
  8830.000000   1439824   1444075   1447251   1449271   1450249  
  8820.000000   1450412   1449986   1449207   1448211   1447109  
  8810.000000   1445918   1444651   1443312   1441926   1440596  
  8800.000000   1439452   1438710   1438545   1439110   1440426  
  8790.000000   1442394   1444782   1447272   1449540   1451307  
  8780.000000   1452415   1452814   1452584   1451880   1450936  
  8770.000000   1449993   1449304   1449049   1449353   1450207  
  8760.000000   1451494   1452981   1454383   1455445   1456014  
  8750.000000   1456113   1455944   1455849   1456219   1457368  
  8740.000000   1459428   1462298   1465674   1469128   1472236  
  8730.000000   1474678   1476317   1477208   1477543   1477578  
  8720.000000   1477533   1477554   1477705   1477999   1478440  
  8710.000000   1479046   1479838   1480808   1481874   1482882  
  8700.000000   1483620   1483901   1483640   1482912   1481963  
  8690.000000   1481129   1480750   1481046   1482068   1483675  
  8680.000000   1485606   1487563   1489317   1490761   1491904  
  8670.000000   1492841   1493700   1494603   1495661   1496948  
  8660.000000   1498519   1500363   1502408   1504477   1506335  
  8650.000000   1507721   1508469   1508558   1508178   1507681  
  8640.000000   1507491   1507953   1509206   1511158   1513530  
  8630.000000   1516005   1518344   1520494   1522589   1524852  
  8620.000000   1527467   1530437   1533553   1536427   1538655  
  8610.000000   1539953   1540291   1539913   1539266   1538871  
  8600.000000   1539156   1540372   1542514   1545373   1548582  
  8590.000000   1551729   1554433   1556406   1557493   1557692  
  8580.000000   1557165   1556204   1555182   1554463   1554338  
  8570.000000   1554946   1556269   1558138   1560305   1562522  
  8560.000000   1564590   1566419   1567997   1569388   1570664  
  8550.000000   1571906   1573177   1574534   1576024   1577676  
  8540.000000   1579484   1581374   1583211   1584798   1585943  
  8530.000000   1586485   1586359   1585600   1584351   1582824  
  8520.000000   1581263   1579919   1579016   1578759   1579294  
  8510.000000   1580706   1582977   1585973   1589425   1592966  
  8500.000000   1596193   1598758   1600465   1601310   1601504  
  8490.000000   1601385   1601354   1601736   1602719   1604280  
  8480.000000   1606214   1608200   1609909   1611104   1611686  
  8470.000000   1611745   1611501   1611259   1611288   1611770  
  8460.000000   1612762   1614192   1615915   1617750   1619544  
  8450.000000   1621187   1622605   1623764   1624647   1625274  
  8440.000000   1625699   1626032   1626437   1627102   1628166  
  8430.000000   1629681   1631549   1633563   1635430   1636904  
  8420.000000   1637831   1638230   1638253   1638131   1638068  
  8410.000000   1638156   1638343   1638453   1638279   1637663  
  8400.000000   1636571   1635113   1633511   1632050   1630979  
  8390.000000   1630482   1630627   1631390   1632656   1634259  
  8380.000000   1635994   1637658   1639071   1640109   1640731  
  8370.000000   1640983   1640989   1640898   1640831   1640841  
  8360.000000   1640905   1640944   1640867   1640631   1640248  
  8350.000000   1639802   1639376   1639037   1638770   1638512  
  8340.000000   1638163   1637649   1636957   1636135   1635272  
  8330.000000   1634440   1633656   1632877   1632024   1631047  
  8320.000000   1629957   1628866   1627952   1627399   1627317  
  8310.000000   1627684   1628336   1629014   1629446   1629423  
  8300.000000   1628862   1627812   1626433   1624925   1623469  
  8290.000000   1622180   1621096   1620194   1619420   1618717  
  8280.000000   1618045   1617388   1616746   1616130   1615537  
  8270.000000   1614956   1614360   1613721   1613031   1612293  
  8260.000000   1611543   1610824   1610189   1609663   1609236  
  8250.000000   1608858   1608450   1607951   1607336   1606661  
  8240.000000   1606027   1605570   1605385   1605493   1605799  
  8230.000000   1606116   1606204   1605852   1604946   1603500  
  8220.000000   1601652   1599602   1597548   1595630   1593890  
  8210.000000   1592295   1590767   1589255   1587745   1586303  
  8200.000000   1585013   1583977   1583230   1582764   1582491  
  8190.000000   1582295   1582047   1581634   1580981   1580033  
  8180.000000   1578767   1577167   1575234   1572986   1570471  
  8170.000000   1567776   1565028   1562380   1559981   1557948  
  8160.000000   1556328   1555091   1554126   1553281   1552395  
  8150.000000   1551351   1550111   1548726   1547322   1546045  
  8140.000000   1545022   1544299   1543846   1543546   1543265  
  8130.000000   1542868   1542287   1541504   1540561   1539512  
  8120.000000   1538404   1537257   1536079   1534880   1533699  
  8110.000000   1532597   1531652   1530913   1530379   1529993  
  8100.000000   1529653   1529260   1528758   1528171   1527590  
  8090.000000   1527141   1526929   1526983   1527237   1527544  
  8080.000000   1527726   1527622   1527143   1526280   1525095  
  8070.000000   1523687   1522163   1520620   1519136   1517785  
  8060.000000   1516629   1515729   1515108   1514752   1514574  
  8050.000000   1514449   1514223   1513766   1512998   1511910  
  8040.000000   1510559   1509037   1507452   1505893   1504434  
  8030.000000   1503115   1501968   1500998   1500192   1499509  
  8020.000000   1498878   1498229   1497509   1496722   1495943  
  8010.000000   1495296   1494926   1494918   1495264   1495828  
  8000.000000   1496387   1496682   1496520   1495827   1494690  
  7990.000000   1493325   1492012   1491011   1490479   1490440  
  7980.000000   1490784   1491327   1491869   1492258   1492426  
  7970.000000   1492369   1492138   1491778   1491320   1490754  
  7960.000000   1490063   1489234   1488302   1487353   1486513  
  7950.000000   1485931   1485719   1485938   1486559   1487481  
  7940.000000   1488545   1489570   1490398   1490904   1491024  
  7930.000000   1490740   1490089   1489137   1487994   1486787  
  7920.000000   1485669   1484786   1484259   1484157   1484476  
  7910.000000   1485143   1486029   1486993   1487902   1488672  
  7900.000000   1489264   1489671   1489912   1489994   1489928  
  7890.000000   1489719   1489395   1489006   1488625   1488329  
  7880.000000   1488171   1488167   1488287   1488480   1488693  
  7870.000000   1488901   1489106   1489324   1489559   1489771  
  7860.000000   1489881   1489791   1489437   1488822   1488044  
  7850.000000   1487271   1486685   1486420   1486507   1486869  
  7840.000000   1487353   1487794   1488074   1488164   1488112  
  7830.000000   1488007   1487928   1487911   1487944   1487996  
  7820.000000   1488046   1488110   1488233   1488453   1488766  
  7810.000000   1489106   1489348   1489363   1489069   1488476  
  7800.000000   1487691   1486881   1486199   1485735   1485468  
  7790.000000   1485305   1485114   1484811   1484390   1483933  
  7780.000000   1483570   1483406   1483472   1483684   1483874  
  7770.000000   1483831   1483388   1482465   1481110   1479485  
  7760.000000   1477823   1476380   1475362   1474905   1475034  
  7750.000000   1475669   1476641   1477720   1478666   1479270  
  7740.000000   1479399   1479011   1478168   1477003   1475690  
  7730.000000   1474396   1473261   1472378   1471794   1471523  
  7720.000000   1471545   1471816   1472250   1472735   1473133  
  7710.000000   1473318   1473204   1472774   1472091   1471275  
  7700.000000   1470476   1469817   1469366   1469123   1469039  
  7690.000000   1469036   1469049   1469035   1468974   1468852  
  7680.000000   1468645   1468313   1467820   1467150   1466344  
  7670.000000   1465492   1464732   1464190   1463958   1464043  
  7660.000000   1464374   1464826   1465257   1465574   1465750  
  7650.000000   1465834   1465921   1466104   1466440   1466913  
  7640.000000   1467444   1467905   1468174   1468153   1467816  
  7630.000000   1467199   1466398   1465537   1464737   1464099  
  7620.000000   1463688   1463539   1463656   1464023   1464599  
  7610.000000   1465319   1466090   1466801   1467345   1467643  
  7600.000000   1467681   1467502   1467218   1466957   1466842  
  7590.000000   1466932   1467215   1467618   1468044   1468424  
  7580.000000   1468748   1469084   1469535   1470202   1471128  
  7570.000000   1472260   1473464   1474548   1475339   1475722  
  7560.000000   1475687   1475306   1474718   1474078   1473529  
  7550.000000   1473180   1473103   1473329   1473856   1474640  
  7540.000000   1475600   1476612   1477537   1478242   1478650  
  7530.000000   1478761   1478676   1478553   1478581   1478900  
  7520.000000   1479591   1480629   1481922   1483332   1484732  
  7510.000000   1486035   1487219   1488321   1489419   1490610  
  7500.000000   1491983   1493583   1495405   1497371   1499356  
  7490.000000   1501196   1502741   1503887   1504623   1505033  
  7480.000000   1505287   1505588   1506115   1506975   1508185  
  7470.000000   1509673   1511316   1512984   1514576   1516043  
  7460.000000   1517375   1518593   1519733   1520834   1521947  
  7450.000000   1523116   1524399   1525824   1527398   1529070  
  7440.000000   1530759   1532363   1533815   1535106   1536305  
  7430.000000   1537544   1538976   1540729   1542854   1545315  
  7420.000000   1548003   1550771   1553476   1556013   1558328  
  7410.000000   1560414   1562296   1564014   1565614   1567145  
  7400.000000   1568647   1570154   1571681   1573222   1574751  
  7390.000000   1576233   1577643   1578980   1580261   1581523  
  7380.000000   1582789   1584067   1585337   1586570   1587755  
  7370.000000   1588923   1590147   1591532   1593166   1595090  
  7360.000000   1597269   1599597   1601933   1604141   1606140  
  7350.000000   1607908   1609483   1610921   1612277   1613573  
  7340.000000   1614816   1616003   1617158   1618335   1619610  
  7330.000000   1621060   1622731   1624629   1626708   1628896  
  7320.000000   1631109   1633275   1635335   1637244   1638968  
  7310.000000   1640483   1641792   1642924   1643944   1644937  
  7300.000000   1645976   1647109   1648334   1649614   1650895  
  7290.000000   1652142   1653350   1654555   1655797   1657098  
  7280.000000   1658432   1659730   1660909   1661905   1662726  
  7270.000000   1663449   1664205   1665131   1666316   1667770  
  7260.000000   1669428   1671177   1672915   1674578   1676173  
  7250.000000   1677740   1679339   1680988   1682669   1684316  
  7240.000000   1685868   1687286   1688608   1689913   1691330  
  7230.000000   1692958   1694865   1697044   1699442   1701971  
  7220.000000   1704555   1707137   1709713   1712297   1714945  
  7210.000000   1717687   1720557   1723536   1726596   1729670  
  7200.000000   1732711   1735681   1738601   1741526   1744558  
  7190.000000   1747795   1751316   1755122   1759151   1763260  
  7180.000000   1767293   1771104   1774627   1777871   1780934  
  7170.000000   1783938   1787020   1790265   1793720   1797361  
  7160.000000   1801148   1805015   1808917   1812811   1816692  
  7150.000000   1820564   1824467   1828454   1832611   1837002  
  7140.000000   1841681   1846626   1851768   1856972   1862112  
  7130.000000   1867083   1871872   1876538   1881221   1886065  
  7120.000000   1891199   1896655   1902396   1908296   1914218  
  7110.000000   1920030   1925666   1931102   1936377   1941544  
  7100.000000   1946685   1951872   1957191   1962708   1968478  
  7090.000000   1974509   1980761   1987137   1993514   1999770  
  7080.000000   2005829   2011681   2017391   2023062   2028802  
  7070.000000   2034669   2040664   2046716   2052725   2058589  
  7060.000000   2064254   2069714   2075015   2080237   2085468  
  7050.000000   2090789   2096250   2101884   2107690   2113649  
  7040.000000   2119717   2125841   2131962   2138028   2143993  
  7030.000000   2149829   2155514   2161035   2166375   2171523  
  7020.000000   2176473   2181242   2185866   2190405   2194912  
  7010.000000   2199437   2203988   2208559   2213106   2217608  
  7000.000000   2222042   2226430   2230789   2235152   2239511  
  6990.000000   2243842   2248082   2252180   2256092   2259817  
  6980.000000   2263374   2266803   2270128   2273363   2276491  
  6970.000000   2279504   2282398   2285216   2288015   2290881  
  6960.000000   2293873   2297028   2300319   2303688   2307027  
  6950.000000   2310232   2313194   2315846   2318150   2320124  
  6940.000000   2321831   2323379   2324887   2326472   2328200  
  6930.000000   2330082   2332053   2334018   2335867   2337543  
  6920.000000   2339036   2340414   2341764   2343181   2344706  
  6910.000000   2346335   2348013   2349680   2351288   2352827  
  6900.000000   2354308   2355751   2357148   2358468   2359657  
  6890.000000   2360670   2361496   2362173   2362772   2363376  
  6880.000000   2364043   2364795   2365608   2366452   2367299  
  6870.000000   2368154   2369044   2370007   2371055   2372174  
  6860.000000   2373312   2374406   2375407   2376292   2377067  
  6850.000000   2377752   2378365   2378903   2379357   2379721  
  6840.000000   2380019   2380311   2380678   2381199   2381909  
  6830.000000   2382792   2383774   2384761   2385663   2386438  
  6820.000000   2387081   2387629   2388123   2388588   2389026  
  6810.000000   2389422   2389763   2390057   2390326   2390593  
  6800.000000   2390861   2391101   2391248   2391239   2391028  
  6790.000000   2390634   2390126   2389615   2389211   2388992  
  6780.000000   2388970   2389102   2389301   2389472   2389531  
  6770.000000   2389435   2389171   2388765   2388265   2387739  
  6760.000000   2387262   2386910   2386739   2386767   2386962  
  6750.000000   2387241   2387497   2387626   2387564   2387308  
  6740.000000   2386917   2386485   2386114   2385876   2385801  
  6730.000000   2385875   2386062   2386319   2386608   2386900  
  6720.000000   2387163   2387368   2387479   2387473   2387351  
  6710.000000   2387144   2386903   2386684   2386516   2386395  
  6700.000000   2386278   2386116   2385865   2385529   2385142  
  6690.000000   2384771   2384466   2384252   2384096   2383930  
  6680.000000   2383674   2383269   2382695   2381982   2381183  
  6670.000000   2380360   2379551   2378774   2378018   2377274  
  6660.000000   2376533   2375808   2375112   2374454   2373823  
  6650.000000   2373186   2372493   2371695   2370755   2369665  
  6640.000000   2368440   2367122   2365758   2364399   2363084  
  6630.000000   2361845   2360695   2359639   2358665   2357760  
  6620.000000   2356898   2356060   2355220   2354359   2353447  
  6610.000000   2352455   2351343   2350080   2348644   2347038  
  6600.000000   2345296   2343477   2341648   2339871   2338184  
  6590.000000   2336599   2335098   2333658   2332249   2330859  
  6580.000000   2329474   2328090   2326695   2325273   2323812  
  6570.000000   2322311   2320790   2319285   2317841   2316491  
  6560.000000   2315243   2314072   2312931   2311763   2310524  
  6550.000000   2309189   2307755   2306233   2304638   2302981  
  6540.000000   2301278   2299556   2297857   2296246   2294782  
  6530.000000   2293505   2292411   2291448   2290526   2289549  
  6520.000000   2288440   2287172   2285767   2284285   2282796  
  6510.000000   2281351   2279973   2278652   2277363   2276078  
  6500.000000   2274784   2273480   2272174   2270875   2269584  
  6490.000000   2268301   2267025   2265765   2264534   2263351  
  6480.000000   2262222   2261143   2260089   2259022   2257903  
  6470.000000   2256702   2255404   2254011   2252540   2251015  
  6460.000000   2249465   2247920   2246410   2244961   2243591  
  6450.000000   2242303   2241088   2239923   2238787   2237661  
  6440.000000   2236545   2235447   2234386   2233370   2232399  
  6430.000000   2231455   2230524   2229594   2228683   2227824  
  6420.000000   2227064   2226436   2225950   2225580   2225276  
  6410.000000   2224979   2224647   2224262   2223839   2223403  
  6400.000000   2222982   2222583   2222202   2221822   2221435  
  6390.000000   2221046   2220678   2220359   2220105   2219915  
  6380.000000   2219761   2219605   2219407   2219149   2218833  
  6370.000000   2218480   2218118   2217765   2217422   2217076  
  6360.000000   2216703   2216286   2215816   2215296   2214735  
  6350.000000   2214145   2213533   2212909   2212283   2211672  
  6340.000000   2211091   2210554   2210053   2209568   2209062  
  6330.000000   2208498   2207846   2207105   2206295   2205456  
  6320.000000   2204629   2203849   2203124   2202445   2201783  
  6310.000000   2201108   2200385   2199598   2198732   2197791  
  6300.000000   2196779   2195713   2194612   2193497   2192384  
  6290.000000   2191278   2190166   2189028   2187834   2186566  
  6280.000000   2185218   2183808   2182363   2180921   2179507  
  6270.000000   2178134   2176799   2175493   2174205   2172932  
  6260.000000   2171672   2170426   2169178   2167906   2166575  
  6250.000000   2165157   2163639   2162034   2160375   2158711  
  6240.000000   2157081   2155512   2154003   2152539   2151098  
  6230.000000   2149666   2148240   2146828   2145442   2144085  
  6220.000000   2142748   2141407   2140038   2138619   2137150  
  6210.000000   2135645   2134140   2132669   2131267   2129955  
  6200.000000   2128734   2127593   2126507   2125450   2124400  
  6190.000000   2123340   2122270   2121197   2120135   2119100  
  6180.000000   2118103   2117147   2116226   2115330   2114447  
  6170.000000   2113574   2112708   2111850   2110995   2110129  
  6160.000000   2109228   2108262   2107209   2106065   2104848  
  6150.000000   2103598   2102362   2101185   2100089   2099070  
  6140.000000   2098103   2097149   2096170   2095143   2094060  
  6130.000000   2092930   2091772   2090608   2089461   2088349  
  6120.000000   2087291   2086299   2085384   2084542   2083764  
  6110.000000   2083027   2082309   2081588   2080857   2080119  
  6100.000000   2079390   2078686   2078026   2077415   2076855  
  6090.000000   2076338   2075860   2075415   2075008   2074636  
  6080.000000   2074310   2074028   2073801   2073629   2073525  
  6070.000000   2073491   2073536   2073652   2073836   2074071  
  6060.000000   2074355   2074673   2075039   2075449   2075921  
  6050.000000   2076446   2077029   2077654   2078331   2079068  
  6040.000000   2079906   2080885   2082058   2083449   2085071  
  6030.000000   2086887   2088857   2090907   2092992   2095059  
  6020.000000   2097099   2099100   2101084   2103057   2105051  
  6010.000000   2107080   2109178   2111364   2113671   2116103  
  6000.000000   2118668   2121344   2124115   2126946   2129827  
  5990.000000   2132741   2135696   2138688   2141732   2144818  
  5980.000000   2147957   2151149   2154417   2157781   2161282  
  5970.000000   2164937   2168762   2172736   2176832   2180997  
  5960.000000   2185195   2189387   2193568   2197726   2201878  
  5950.000000   2206025   2210184   2214361   2218581   2222871  
  5940.000000   2227272   2231819   2236535   2241422   2246447  
  5930.000000   2251558   2256685   2261760   2266722   2271532  
  5920.000000   2276162   2280603   2284847   2288897   2292749  
  5910.000000   2296412   2299888   2303194   2306343   2309363  
  5900.000000   2312273   2315114   2317910   2320705   2323513  
  5890.000000   2326358   2329227   2332110   2334972   2337794  
  5880.000000   2340546   2343218   2345795   2348271   2350630  
  5870.000000   2352854   2354931   2356861   2358664   2360383  
  5860.000000   2362077   2363808   2365625   2367556   2369607  
  5850.000000   2371769   2374021   2376348   2378736   2381172  
  5840.000000   2383647   2386140   2388635   2391111   2393563  
  5830.000000   2395993   2398416   2400845   2403295   2405766  
  5820.000000   2408254   2410748   2413245   2415747   2418262  
  5810.000000   2420801   2423361   2425936   2428496   2431027  
  5800.000000   2433502   2435936   2438328   2440724   2443120  
  5790.000000   2445537   2447921   2450224   2452328   2454128  
  5780.000000   2455473   2456249   2456340   2455699   2454317  
  5770.000000   2452281   2449715   2446817   2443765   2440743  
  5760.000000   2437853   2435166   2432671   2430354   2428173  
  5750.000000   2426125   2424203   2422430   2420810   2419333  
  5740.000000   2417969   2416667   2415386   2414085   2412757  
  5730.000000   2411400   2410039   2408685   2407360   2406066  
  5720.000000   2404814   2403601   2402430   2401294   2400185  
  5710.000000   2399085   2397981   2396862   2395733   2394609  
  5700.000000   2393514   2392475   2391506   2390616   2389800  
  5690.000000   2389058   2388380   2387772   2387224   2386729  
  5680.000000   2386247   2385741   2385147   2384415   2383497  
  5670.000000   2382366   2381000   2379388   2377512   2375366  
  5660.000000   2372946   2370283   2367434   2364495   2361569  
  5650.000000   2358762   2356137   2353726   2351508   2349443  
  5640.000000   2347479   2345574   2343704   2341858   2340042  
  5630.000000   2338257   2336515   2334824   2333208   2331685  
  5620.000000   2330280   2328997   2327829   2326735   2325673  
  5610.000000   2324598   2323489   2322349   2321215   2320127  
  5600.000000   2319129   2318235   2317442   2316717   2316022  
  5590.000000   2315321   2314590   2313815   2312997   2312137  
  5580.000000   2311242   2310324   2309398   2308485   2307605  
  5570.000000   2306770   2305973   2305195   2304399   2303551  
  5560.000000   2302625   2301616   2300535   2299408   2298261  
  5550.000000   2297116   2295982   2294861   2293750   2292649  
  5540.000000   2291557   2290479   2289412   2288354   2287299  
  5530.000000   2286249   2285207   2284191   2283211   2282275  
  5520.000000   2281374   2280487   2279582   2278631   2277614  
  5510.000000   2276526   2275372   2274166   2272914   2271622  
  5500.000000   2270287   2268917   2267524   2266133   2264764  
  5490.000000   2263430   2262120   2260809   2259454   2258027  
  5480.000000   2256510   2254912   2253258   2251583   2249913  
  5470.000000   2248264   2246636   2245028   2243437   2241865  
  5460.000000   2240312   2238769   2237213   2235608   2233920  
  5450.000000   2232124   2230226   2228256   2226266   2224306  
  5440.000000   2222413   2220596   2218856   2217181   2215575  
  5430.000000   2214049   2212623   2211298   2210064   2208878  
  5420.000000   2207707   2206514   2205312   2204131   2203042  
  5410.000000   2202097   2201338   2200745   2200288   2199908  
  5400.000000   2199582   2199296   2199087   2198985   2199040  
  5390.000000   2199253   2199628   2200128   2200752   2201483  
  5380.000000   2202358   2203385   2204601   2205984   2207533  
  5370.000000   2209192   2210960   2212804   2214765   2216850  
  5360.000000   2219124   2221591   2224311   2227275   2230548  
  5350.000000   2234128   2238090   2242426   2247190   2252335  
  5340.000000   2257890   2263793   2270100   2276780   2283924  
  5330.000000   2291507   2299603   2308150   2317187   2326641  
  5320.000000   2336581   2346986   2357990   2369607   2381980  
  5310.000000   2395086   2409011   2423671   2439113   2455253  
  5300.000000   2472161   2489792   2508255   2527526   2547706  
  5290.000000   2568734   2590642   2613297   2636649   2660526  
  5280.000000   2684888   2709641   2734852   2760552   2786881  
  5270.000000   2813877   2841573   2869846   2898528   2927389  
  5260.000000   2956240   2984974   3013582   3042135   3070693  
  5250.000000   3099287   3127811   3156119   3183947   3211135  
  5240.000000   3237511   3263113   3287963   3312250   3336036  
  5230.000000   3359460   3382449   3404985   3426865   3448018  
  5220.000000   3468273   3487670   3506180   3523973   3541092  
  5210.000000   3557707   3573783   3589367   3604295   3618538  
  5200.000000   3631934   3644537   3656307   3667407   3677851  
  5190.000000   3687779   3697131   3705944   3714090   3721582  
  5180.000000   3728327   3734401   3739775   3744555   3748710  
  5170.000000   3752312   3755307   3757763   3759649   3761065  
  5160.000000   3762010   3762582   3762755   3762585   3762013  
  5150.000000   3761077   3759729   3758021   3755925   3753490  
  5140.000000   3750681   3747532   3744017   3740190   3736063  
  5130.000000   3731720   3727188   3722529   3717732   3712813  
  5120.000000   3707737   3702518   3697153   3691692   3686165  
  5110.000000   3680622   3675074   3669531   3663970   3658383  
  5100.000000   3652755   3647101   3641434   3635783   3630162  
  5090.000000   3624585   3619050   3613559   3608101   3602680  
  5080.000000   3597285   3591915   3586549   3581176   3575774  
  5070.000000   3570337   3564855   3559335   3553771   3548162  
  5060.000000   3542484   3536723   3530849   3524857   3518737  
  5050.000000   3512509   3506180   3499769   3493271   3486689  
  5040.000000   3480003   3473212   3466311   3459322   3452265  
  5030.000000   3445173   3438068   3430974   3423898   3416848  
  5020.000000   3409826   3402832   3395872   3388947   3382063  
  5010.000000   3375220   3368428   3361691   3355028   3348449  
  5000.000000   3341981   3335630   3329420   3323345   3317426  
  4990.000000   3311650   3306040   3300588   3295323   3290234  
  4980.000000   3285353   3280667   3276210   3271970   3267991  
  4970.000000   3264268   3260848   3257715   3254902   3252372  
  4960.000000   3250144   3248173   3246491   3245069   3243964  
  4950.000000   3243168   3242743   3242671   3242998   3243679  
  4940.000000   3244743   3246138   3247900   3249992   3252464  
  4930.000000   3255293   3258535   3262162   3266221   3270676  
  4920.000000   3275565   3280847   3286556   3292652   3299163  
  4910.000000   3306047   3313320   3320938   3328897   3337146  
  4900.000000   3345660   3354385   3363285   3372314   3381438  
  4890.000000   3390625   3399835   3409033   3418151   3427136  
  4880.000000   3435890   3444350   3452410   3460025   3467104  
  4870.000000   3473634   3479545   3484850   3489501   3493537  
  4860.000000   3496933   3499753   3501990   3503717   3504934  
  4850.000000   3505715   3506063   3506054   3505703   3505089  
  4840.000000   3504236   3503218   3502057   3500814   3499510  
  4830.000000   3498198   3496902   3495669   3494526   3493502  
  4820.000000   3492606   3491841   3491198   3490665   3490236  
  4810.000000   3489903   3489678   3489558   3489560   3489678  
  4800.000000   3489918   3490260   3490705   3491230   3491839  
  4790.000000   3492520   3493282   3494122   3495054   3496077  
  4780.000000   3497203   3498428   3499752   3501159   3502633  
  4770.000000   3504143   3505660   3507154   3508600   3509985  
  4760.000000   3511305   3512564   3513775   3514948   3516095  
  4750.000000   3517223   3518334   3519428   3520497   3521535  
  4740.000000   3522530   3523476   3524369   3525213   3526016  
  4730.000000   3526794   3527562   3528334   3529120   3529919  
  4720.000000   3530731   3531547   3532372   3533202   3534060  
  4710.000000   3534952   3535911   3536948   3538096   3539368  
  4700.000000   3540801   3542417   3544259   3546351   3548729  
  4690.000000   3551403   3554379   3557629   3561124   3564799  
  4680.000000   3568597   3572434   3576253   3579978   3583577  
  4670.000000   3587009   3590290   3593430   3596489   3599515  
  4660.000000   3602587   3605760   3609099   3612642   3616420  
  4650.000000   3620441   3624701   3629178   3633841   3638654  
  4640.000000   3643574   3648569   3653606   3658665   3663725  
  4630.000000   3668768   3673762   3678680   3683471   3688098  
  4620.000000   3692505   3696664   3700528   3704089   3707312  
  4610.000000   3710205   3712750   3714974   3716882   3718530  
  4600.000000   3719942   3721190   3722294   3723310   3724229  
  4590.000000   3725072   3725799   3726407   3726844   3727102  
  4580.000000   3727137   3726951   3726517   3725851   3724949  
  4570.000000   3723841   3722544   3721099   3719525   3717860  
  4560.000000   3716110   3714299   3712423   3710498   3708522  
  4550.000000   3706517   3704490   3702467   3700455   3698469  
  4540.000000   3696507   3694570   3692652   3690747   3688859  
  4530.000000   3686983   3685131   3683299   3681498   3679721  
  4520.000000   3677987   3676286   3674654   3673089   3671642  
  4510.000000   3670316   3669174   3668221   3667531   3667112  
  4500.000000   3667056   3667374   3668168   3669448   3671311  
  4490.000000   3673752   3676855   3680595   3685043   3690161  
  4480.000000   3696010   3702543   3709811   3717756   3726416  
  4470.000000   3735712   3745654   3756141   3767156   3778581  
  4460.000000   3790393   3802489   3814860   3827436   3840228  
  4450.000000   3853190   3866336   3879632   3893085   3906670  
  4440.000000   3920384   3934215   3948144   3962154   3976194  
  4430.000000   3990228   4004173   4017976   4031541   4044827  
  4420.000000   4057751   4070299   4082407   4094078   4105250  
  4410.000000   4115923   4126027   4135560   4144465   4152767  
  4400.000000   4160450   4167589   4174217   4180446   4186334  
  4390.000000   4191998   4197497   4202934   4208351   4213823  
  4380.000000   4219363   4225005   4230731   4236550   4242432  
  4370.000000   4248386   4254397   4260477   4266612   4272797  
  4360.000000   4278995   4285184   4291308   4297358   4303272  
  4350.000000   4309068   4314672   4320119   4325330   4330371  
  4340.000000   4335196   4339891   4344392   4348662   4352430  
  4330.000000   4355358   4356896   4356522   4353745   4348357  
  4320.000000   4340442   4330484   4319213   4307532   4296267  
  4310.000000   4286084   4277331   4270106   4264263   4259565  
  4300.000000   4255753   4252634   4250104   4248105   4246646  
  4290.000000   4245688   4245238   4245226   4245656   4246475  
  4280.000000   4247701   4249304   4251273   4253558   4256097  
  4270.000000   4258824   4261658   4264519   4267276   4269758  
  4260.000000   4271705   4272816   4272764   4271298   4268283  
  4250.000000   4263785   4258041   4251464   4244513   4237669  
  4240.000000   4231279   4225595   4220663   4216444   4212769  
  4230.000000   4209468   4206345   4203258   4200103   4196825  
  4220.000000   4193430   4189942   4186451   4183027   4179797  
  4210.000000   4176825   4174210   4171966   4170126   4168648  
  4200.000000   4167512   4166649   4166032   4165601   4165347  
  4190.000000   4165229   4165263   4165422   4165741   4166198  
  4180.000000   4166833   4167622   4168602   4169750   4171109  
  4170.000000   4172671   4174502   4176619   4179103   4181974  
  4160.000000   4185298   4189060   4193288   4197927   4202976  
  4150.000000   4208364   4214096   4220113   4226443   4233050  
  4140.000000   4239984   4247221   4254817   4262740   4271032  
  4130.000000   4279648   4288616   4297889   4307504   4317440  
  4120.000000   4327756   4338461   4349629   4361277   4373468  
  4110.000000   4386195   4399481   4413275   4427544   4442191  
  4100.000000   4457141   4472280   4487540   4502846   4518179  
  4090.000000   4533532   4548919   4564357   4579841   4595363  
  4080.000000   4610875   4626350   4641723   4656978   4672044  
  4070.000000   4686911   4701486   4715747   4729589   4743001  
  4060.000000   4755899   4768307   4780163   4791505   4802260  
  4050.000000   4812458   4822018   4830985   4839302   4847045  
  4040.000000   4854172   4860765   4866773   4872266   4877188  
  4030.000000   4881610   4885480   4888862   4891701   4894037  
  4020.000000   4895797   4897039   4897769   4898078   4897959  
  4010.000000   4897524   4896819   4895823   4894327   4892341  
  4000.000000   4890103  
##END= 
