##TITLE= Sample 009 By ssteindl date Montag, November 19 2018
##JCAMP-DX= 4.24
##DATA TYPE= INFRARED SPECTRUM
##ORIGIN= Exported PE Spectrum Data File
##OWNER= Sandra Steindl
##DATE= 18/11/19
##TIME= 15:59:04.00
##SPECTROMETER/DATA SYSTEM= PERKIN-ELMER Frontier FT-IR/NIR IR
##INSTRUMENT PARAMETERS=
  APODIZATION=stark
  DETECTOR=INGAAS
##RESOLUTION= 16.000000
##DELTAX= -2.000000
##XUNITS= 1/CM
##YUNITS= A
##XFACTOR= 1.00
##YFACTOR= 0.00000000023841857910
##FIRSTX= 10000.00
##LASTX= 4000.00
##NPOINTS= 3001
##FIRSTY= 0.056886
##MAXY= 0.480269
##MINY= 0.034170
##XYDATA= (X++(Y..Y))
 10000.000000   0238595081   0233862429   0230201269   0228923689   0230013768  
  9990.000000   0232346296   0234887709   0236961870   0238108819   0238056783  
  9980.000000   0237037537   0235540840   0234032698   0232786891   0231966615  
  9970.000000   0231655062   0231875385   0232670875   0234083312   0236097712  
  9960.000000   0238583186   0241267553   0243762863   0245642147   0246522713  
  9950.000000   0246139955   0244394491   0241348231   0237239393   0232462727  
  9940.000000   0227562512   0223186370   0219949225   0218312100   0218379979  
  9930.000000   0219876600   0222159494   0224434038   0225985040   0226383303  
  9920.000000   0225602793   0223937145   0221885242   0219887117   0218237548  
  9910.000000   0216972572   0216013196   0215252338   0214714430   0214570056  
  9900.000000   0215045533   0216313616   0218325214   0220844019   0223474350  
  9890.000000   0225857657   0227763818   0229141969   0230066018   0230601448  
  9880.000000   0230747193   0230381386   0229358781   0227591466   0225162252  
  9870.000000   0222334019   0219493363   0217011538   0215129101   0213888189  
  9860.000000   0213168391   0212785828   0212574032   0212471281   0212458426  
  9850.000000   0212569946   0212775807   0213048335   0213353724   0213764343  
  9840.000000   0214472945   0215731175   0217742722   0220446565   0223474758  
  9830.000000   0226108239   0227522651   0226993536   0224224608   0219448402  
  9820.000000   0213445066   0207312219   0202174848   0198891118   0197829730  
  9810.000000   0198880992   0201506077   0205010074   0208677097   0211988391  
  9800.000000   0214632330   0216532229   0217765294   0218489228   0218884704  
  9790.000000   0219059251   0219060662   0218801260   0218163097   0216993894  
  9780.000000   0215252601   0213035793   0210606554   0208347744   0206616879  
  9770.000000   0205660611   0205480679   0205873393   0206485343   0206982222  
  9760.000000   0207169546   0207068125   0206869316   0206829985   0207134124  
  9750.000000   0207807568   0208722762   0209654703   0210419091   0210918897  
  9740.000000   0211203762   0211378155   0211539998   0211687970   0211710401  
  9730.000000   0211449588   0210788187   0209763262   0208576394   0207561577  
  9720.000000   0207042749   0207228897   0208103544   0209452066   0210908910  
  9710.000000   0212098900   0212734080   0212687933   0212001532   0210832843  
  9700.000000   0209392962   0207879009   0206434817   0205142084   0204029568  
  9690.000000   0203094142   0202324923   0201712078   0201251760   0200943935  
  9680.000000   0200766669   0200686216   0200623922   0200497338   0200216717  
  9670.000000   0199736172   0199074606   0198326868   0197662675   0197257409  
  9660.000000   0197246997   0197624828   0198242195   0198795040   0198949159  
  9650.000000   0198420596   0197116510   0195160248   0192882554   0190719158  
  9640.000000   0189082467   0188262721   0188359230   0189304486   0190903181  
  9630.000000   0192914527   0195096728   0197240003   0199163627   0200708519  
  9620.000000   0201744161   0202180117   0202010995   0201320724   0200294967  
  9610.000000   0199159959   0198134096   0197363219   0196888885   0196672407  
  9600.000000   0196609255   0196613718   0196612276   0196593977   0196543568  
  9590.000000   0196451213   0196259587   0195903750   0195322629   0194511285  
  9580.000000   0193525042   0192472083   0191466525   0190584198   0189833220  
  9570.000000   0189150080   0188443011   0187622615   0186662971   0185586437  
  9560.000000   0184465035   0183354233   0182272722   0181186622   0180046241  
  9550.000000   0178845220   0177664442   0176684820   0176144005   0176252377  
  9540.000000   0177119069   0178676175   0180697928   0182819944   0184660670  
  9530.000000   0185885779   0186316348   0185937790   0184908649   0183501380  
  9520.000000   0182046901   0180874967   0180259386   0180382108   0181289709  
  9510.000000   0182884121   0184913098   0187023854   0188814013   0189942038  
  9500.000000   0190192395   0189546309   0188173742   0186388049   0184561428  
  9490.000000   0183020368   0181978585   0181491760   0181473843   0181747717  
  9480.000000   0182101370   0182359615   0182400542   0182190762   0181757204  
  9470.000000   0181191717   0180603255   0180104788   0179769734   0179620912  
  9460.000000   0179628102   0179714843   0179802148   0179815509   0179732093  
  9450.000000   0179561427   0179346420   0179114791   0178844921   0178450418  
  9440.000000   0177807508   0176829260   0175546053   0174148380   0172954566  
  9430.000000   0172314491   0172470652   0173466547   0175093006   0176948204  
  9420.000000   0178545546   0179475794   0179543500   0178819974   0177606199  
  9410.000000   0176293430   0175220594   0174555926   0174278256   0174221533  
  9400.000000   0174177723   0173986278   0173591631   0173047612   0172462258  
  9390.000000   0171946029   0171548428   0171264372   0171052512   0170872955  
  9380.000000   0170717563   0170587794   0170497617   0170427831   0170345511  
  9370.000000   0170205708   0169986763   0169716531   0169464162   0169332639  
  9360.000000   0169401786   0169711539   0170237187   0170914192   0171666744  
  9350.000000   0172428919   0173157894   0173798034   0174276823   0174476353  
  9340.000000   0174272461   0173565758   0172340674   0170706964   0168891380  
  9330.000000   0167210328   0165968011   0165393553   0165559798   0166397695  
  9320.000000   0167707738   0169228297   0170675237   0171788438   0172368103  
  9310.000000   0172288132   0171534527   0170196779   0168483278   0166676611  
  9300.000000   0165077589   0163935655   0163367729   0163362145   0163771416  
  9290.000000   0164413214   0165108044   0165759664   0166340502   0166863960  
  9280.000000   0167318286   0167595262   0167510214   0166834283   0165431769  
  9270.000000   0163300335   0160641981   0157801525   0155210777   0153262320  
  9260.000000   0152204254   0152107416   0152840350   0154171762   0155792818  
  9250.000000   0157434528   0158877148   0160005930   0160801610   0161311487  
  9240.000000   0161630785   0161833512   0161968107   0161977765   0161735739  
  9230.000000   0161038851   0159735393   0157790542   0155371444   0152827510  
  9220.000000   0150595863   0149090156   0148535816   0148917578   0149957757  
  9210.000000   0151259032   0152441789   0153287186   0153772635   0154040180  
  9200.000000   0154291219   0154659372   0155150425   0155631789   0155944703  
  9190.000000   0155960653   0155680667   0155191407   0154644234   0154143875  
  9180.000000   0153719812   0153315341   0152854837   0152320019   0151785468  
  9170.000000   0151423897   0151401857   0151822529   0152631968   0153683043  
  9160.000000   0154782658   0155815984   0156777988   0157764729   0158886549  
  9150.000000   0160155735   0161416502   0162337703   0162529532   0161703082  
  9140.000000   0159825854   0157155193   0154171479   0151430065   0149383025  
  9130.000000   0148248166   0147947996   0148208585   0148673704   0149056848  
  9120.000000   0149183823   0149026890   0148647100   0148144105   0147605896  
  9110.000000   0147100589   0146704848   0146481734   0146493758   0146725573  
  9100.000000   0147108548   0147473316   0147642731   0147463268   0146909012  
  9090.000000   0146089033   0145229601   0144585815   0144345802   0144578663  
  9080.000000   0145223292   0146152753   0147237502   0148426756   0149744178  
  9070.000000   0151249758   0152948074   0154743545   0156431606   0157747077  
  9060.000000   0158455460   0158436517   0157746291   0156578963   0155201011  
  9050.000000   0153858428   0152712872   0151827274   0151171723   0150691883  
  9040.000000   0150337777   0150090736   0149946383   0149892559   0149901712  
  9030.000000   0149922244   0149898139   0149788087   0149581767   0149313859  
  9020.000000   0149046477   0148865034   0148858290   0149131927   0149790682  
  9010.000000   0150917854   0152519610   0154498818   0156625749   0158557643  
  9000.000000   0159896389   0160307109   0159635342   0157960335   0155591385  
  8990.000000   0152974929   0150589508   0148788873   0147720643   0147294022  
  8980.000000   0147250409   0147269906   0147081185   0146555591   0145718943  
  8970.000000   0144745631   0143869743   0143336771   0143320805   0143904160  
  8960.000000   0145060490   0146655327   0148493339   0150326719   0151940458  
  8950.000000   0153149836   0153862873   0154056959   0153785788   0153139938  
  8940.000000   0152224526   0151147126   0150022809   0148991199   0148218208  
  8930.000000   0147885371   0148133408   0149018984   0150440035   0152143195  
  8920.000000   0153747187   0154862276   0155207321   0154701704   0153507972  
  8910.000000   0151966679   0150510235   0149501652   0149141829   0149408560  
  8900.000000   0150103774   0150944111   0151672658   0152150090   0152372798  
  8890.000000   0152462075   0152576079   0152857960   0153363231   0154060884  
  8880.000000   0154853662   0155618115   0156260519   0156716509   0156973617  
  8870.000000   0157036804   0156929740   0156668344   0156270518   0155756436  
  8860.000000   0155171954   0154582788   0154074126   0153729522   0153608516  
  8850.000000   0153742182   0154114272   0154686395   0155402857   0156220687  
  8840.000000   0157123538   0158110000   0159187229   0160326552   0161460131  
  8830.000000   0162462563   0163191836   0163524079   0163422493   0162959572  
  8820.000000   0162330983   0161803595   0161645081   0162034438   0162991557  
  8810.000000   0164372023   0165901836   0167273311   0168239829   0168694523  
  8800.000000   0168700981   0168452429   0168201289   0168159987   0168440586  
  8790.000000   0169021455   0169782825   0170558510   0171219426   0171715325  
  8780.000000   0172094492   0172475041   0172984323   0173714460   0174669930  
  8770.000000   0175782279   0176926136   0177975898   0178849600   0179531845  
  8760.000000   0180076164   0180569475   0181091932   0181675472   0182286951  
  8750.000000   0182841141   0183238672   0183405240   0183330524   0183072933  
  8740.000000   0182751392   0182504238   0182447638   0182638724   0183064735  
  8730.000000   0183659586   0184336859   0185023658   0185680770   0186307457  
  8720.000000   0186931635   0187591847   0188325098   0189153769   0190089360  
  8710.000000   0191124912   0192238890   0193387479   0194506618   0195516492  
  8700.000000   0196342418   0196939386   0197322931   0197571327   0197810577  
  8690.000000   0198166981   0198711607   0199430720   0200210740   0200896033  
  8680.000000   0201335022   0201468955   0201350864   0201157112   0201112178  
  8670.000000   0201411136   0202127037   0203174899   0204337763   0205324920  
  8660.000000   0205890018   0205887444   0205346871   0204426749   0203379556  
  8650.000000   0202457473   0201852801   0201661883   0201885751   0202474907  
  8640.000000   0203375061   0204559053   0206031147   0207796867   0209828908  
  8630.000000   0212031442   0214237742   0216225302   0217786816   0218775251  
  8620.000000   0219187766   0219148502   0218906998   0218748731   0218921479  
  8610.000000   0219564085   0220657151   0222060083   0223549891   0224927166  
  8600.000000   0226066330   0226966130   0227712607   0228430671   0229199092  
  8590.000000   0230008622   0230761024   0231307265   0231536635   0231420827  
  8580.000000   0231064023   0230658346   0230424446   0230528479   0231014279  
  8570.000000   0231816613   0232783983   0233773672   0234697677   0235569458  
  8560.000000   0236475892   0237528428   0238787730   0240220085   0241691286  
  8550.000000   0243007912   0243991121   0244531661   0244638635   0244416544  
  8540.000000   0244040159   0243685351   0243486769   0243504370   0243723725  
  8530.000000   0244080146   0244494072   0244898486   0245263056   0245592773  
  8520.000000   0245928827   0246327610   0246846507   0247521703   0248362612  
  8510.000000   0249341414   0250415680   0251532316   0252665591   0253817025  
  8500.000000   0255021622   0256324825   0257746973   0259271639   0260824203  
  8490.000000   0262306577   0263618249   0264710259   0265599174   0266361957  
  8480.000000   0267093415   0267855915   0268639392   0269348929   0269833903  
  8470.000000   0269949170   0269618990   0268882130   0267883567   0266846948  
  8460.000000   0265998647   0265523467   0265505442   0265939707   0266735966  
  8450.000000   0267772002   0268913098   0270042177   0271061202   0271898990  
  8440.000000   0272518136   0272915745   0273134287   0273246583   0273349668  
  8430.000000   0273523063   0273809994   0274196208   0274624369   0275022517  
  8420.000000   0275336099   0275563551   0275746509   0275960680   0276257573  
  8410.000000   0276648488   0277075732   0277448052   0277669418   0277691455  
  8400.000000   0277533828   0277280336   0277044110   0276914479   0276921403  
  8390.000000   0277020489   0277119617   0277111947   0276925874   0276550992  
  8380.000000   0276045726   0275514664   0275065807   0274790204   0274733540  
  8370.000000   0274911182   0275304283   0275882184   0276604741   0277424512  
  8360.000000   0278282524   0279097048   0279772919   0280211887   0280345749  
  8350.000000   0280147158   0279651433   0278942219   0278148726   0277408486  
  8340.000000   0276843048   0276530771   0276489462   0276688920   0277049508  
  8330.000000   0277483054   0277896048   0278234176   0278473926   0278636420  
  8320.000000   0278760571   0278890092   0279054993   0279251355   0279446337  
  8310.000000   0279575456   0279571216   0279377792   0278969235   0278360907  
  8300.000000   0277602106   0276783213   0276007818   0275387832   0275001718  
  8290.000000   0274890957   0275031397   0275346655   0275707775   0275971176  
  8280.000000   0276008829   0275748731   0275192386   0274410882   0273519087  
  8270.000000   0272636797   0271853998   0271208299   0270683374   0270231795  
  8260.000000   0269800284   0269363500   0268922136   0268505837   0268139228  
  8250.000000   0267834262   0267572479   0267312848   0267008124   0266615668  
  8240.000000   0266120998   0265525538   0264850690   0264115388   0263336953  
  8230.000000   0262532063   0261725587   0260964245   0260309279   0259829464  
  8220.000000   0259573287   0259552952   0259729427   0260019412   0260309504  
  8210.000000   0260487244   0260462680   0260193077   0259682038   0258978592  
  8200.000000   0258157553   0257309657   0256521139   0255865995   0255380867  
  8190.000000   0255063524   0254851019   0254644415   0254313142   0253750421  
  8180.000000   0252891262   0251750639   0250409894   0249000091   0247653536  
  8170.000000   0246459197   0245434211   0244518100   0243608703   0242601693  
  8160.000000   0241441857   0240140821   0238774952   0237455189   0236287057  
  8150.000000   0235338660   0234626908   0234120957   0233773063   0233529836  
  8140.000000   0233362866   0233247935   0233171738   0233101606   0232997448  
  8130.000000   0232809205   0232505322   0232083029   0231584539   0231083236  
  8120.000000   0230669450   0230417673   0230365523   0230499415   0230755399  
  8110.000000   0231038754   0231243445   0231281271   0231095506   0230672857  
  8100.000000   0230040809   0229260800   0228413989   0227585815   0226845529  
  8090.000000   0226234659   0225752537   0225366702   0225017305   0224648103  
  8080.000000   0224217610   0223722024   0223187520   0222662285   0222189335  
  8070.000000   0221786605   0221434970   0221081446   0220661522   0220122351  
  8060.000000   0219451210   0218681598   0217889734   0217167336   0216592487  
  8050.000000   0216200779   0215975312   0215850674   0215740230   0215560128  
  8040.000000   0215261022   0214834603   0214315059   0213760446   0213232678  
  8030.000000   0212780108   0212428185   0212179765   0212025269   0211946923  
  8020.000000   0211929920   0211953923   0211995703   0212017582   0211976398  
  8010.000000   0211824989   0211534720   0211100459   0210557733   0209969000  
  8000.000000   0209418044   0208980902   0208710914   0208624068   0208699020  
  7990.000000   0208890436   0209142206   0209408900   0209659976   0209885049  
  7980.000000   0210082945   0210254787   0210397541   0210500801   0210554808  
  7970.000000   0210549471   0210484351   0210361677   0210188449   0209968796  
  7960.000000   0209705189   0209401694   0209068360   0208728349   0208412354  
  7950.000000   0208156619   0207984410   0207903125   0207892440   0207915955  
  7940.000000   0207930814   0207904603   0207832022   0207727886   0207629274  
  7930.000000   0207563350   0207543588   0207548726   0207535365   0207451579  
  7920.000000   0207261650   0206970960   0206632053   0206342004   0206214819  
  7910.000000   0206350014   0206796699   0207531240   0208452230   0209397855  
  7900.000000   0210183045   0210643560   0210683910   0210300846   0209594085  
  7890.000000   0208736191   0207932652   0207361833   0207128863   0207238630  
  7880.000000   0207600175   0208062047   0208463790   0208689098   0208698961  
  7870.000000   0208537349   0208303578   0208111606   0208042401   0208119659  
  7860.000000   0208307848   0208536161   0208738778   0208883104   0208988915  
  7850.000000   0209112639   0209320402   0209651033   0210090436   0210570434  
  7840.000000   0210986975   0211237809   0211257701   0211043032   0210653584  
  7830.000000   0210195967   0209789391   0209536239   0209491249   0209656661  
  7820.000000   0209979571   0210373862   0210736032   0210974449   0211023389  
  7810.000000   0210863317   0210518048   0210055879   0209565894   0209140530  
  7800.000000   0208847412   0208713039   0208718521   0208805016   0208898424  
  7790.000000   0208927481   0208847518   0208644344   0208333676   0207948231  
  7780.000000   0207526053   0207102578   0206708525   0206374445   0206132016  
  7770.000000   0206015527   0206051104   0206250037   0206594765   0207041084  
  7760.000000   0207520343   0207956827   0208282237   0208448761   0208437842  
  7750.000000   0208254206   0207927017   0207493700   0207002975   0206502254  
  7740.000000   0206039397   0205654138   0205368984   0205187794   0205086374  
  7730.000000   0205029388   0204975076   0204901541   0204810958   0204734245  
  7720.000000   0204712347   0204775322   0204919021   0205097602   0205234706  
  7710.000000   0205249629   0205093660   0204769523   0204340321   0203904619  
  7700.000000   0203564304   0203383299   0203363194   0203442240   0203519452  
  7690.000000   0203492796   0203301924   0202947487   0202495926   0202048459  
  7680.000000   0201706141   0201531347   0201528580   0201649767   0201817066  
  7670.000000   0201957392   0202030944   0202044093   0202043732   0202094799  
  7660.000000   0202250872   0202529578   0202901708   0203295452   0203622886  
  7650.000000   0203801800   0203790201   0203590127   0203252739   0202855151  
  7640.000000   0202479396   0202189100   0202015405   0201956821   0201988983  
  7630.000000   0202079030   0202201449   0202342223   0202499378   0202672888  
  7620.000000   0202857793   0203039357   0203198448   0203318141   0203397873  
  7610.000000   0203453544   0203521883   0203641674   0203847907   0204150591  
  7600.000000   0204538612   0204975432   0205416484   0205815657   0206139865  
  7590.000000   0206372940   0206518438   0206599143   0206651424   0206722764  
  7580.000000   0206861488   0207110736   0207495442   0208014810   0208635164  
  7570.000000   0209292528   0209904435   0210389494   0210690951   0210791097  
  7560.000000   0210717417   0210530189   0210307113   0210119329   0210019179  
  7550.000000   0210029145   0210147512   0210354454   0210625770   0210938750  
  7540.000000   0211276135   0211624052   0211970386   0212304035   0212618733  
  7530.000000   0212914686   0213204676   0213506437   0213845172   0214237048  
  7520.000000   0214694118   0215209927   0215771857   0216353696   0216932023  
  7510.000000   0217480594   0217984340   0218431213   0218824310   0219174134  
  7500.000000   0219508447   0219862668   0220279418   0220793564   0221426364  
  7490.000000   0222176395   0223024200   0223933724   0224868322   0225794721  
  7480.000000   0226695924   0227563223   0228395098   0229185400   0229924685  
  7470.000000   0230601530   0231214706   0231779263   0232334252   0232931613  
  7460.000000   0233626155   0234449320   0235398263   0236424882   0237450677  
  7450.000000   0238386396   0239162870   0239750309   0240170983   0240494292  
  7440.000000   0240820443   0241251352   0241864726   0242696889   0243739451  
  7430.000000   0244941487   0246224696   0247498593   0248686001   0249731983  
  7420.000000   0250618342   0251357364   0251992951   0252581123   0253181982  
  7410.000000   0253840228   0254583696   0255417798   0256334918   0257320618  
  7400.000000   0258361963   0259451948   0260585296   0261754785   0262942618  
  7390.000000   0264119332   0265248691   0266293790   0267233668   0268065957  
  7380.000000   0268816831   0269529318   0270254964   0271036984   0271897886  
  7370.000000   0272839145   0273841218   0274879077   0275927587   0276974814  
  7360.000000   0278018214   0279063474   0280111028   0281151964   0282163796  
  7350.000000   0283114486   0283975994   0284733107   0285400090   0286011669  
  7340.000000   0286618296   0287265223   0287978905   0288760640   0289584506  
  7330.000000   0290418350   0291235223   0292035612   0292844485   0293707015  
  7320.000000   0294665553   0295740920   0296915687   0298132150   0299305931  
  7310.000000   0300349094   0301201500   0301847626   0302325236   0302708953  
  7300.000000   0303090293   0303549192   0304135833   0304860385   0305695941  
  7290.000000   0306591776   0307488918   0308338091   0309107264   0309790493  
  7280.000000   0310403113   0310982027   0311572253   0312218430   0312950578  
  7270.000000   0313775503   0314676564   0315613296   0316538734   0317406678  
  7260.000000   0318193118   0318893708   0319528419   0320123668   0320708316  
  7250.000000   0321297408   0321899998   0322515812   0323155391   0323835875  
  7240.000000   0324591548   0325452601   0326441846   0327551167   0328750527  
  7230.000000   0329983835   0331201173   0332360923   0333461335   0334521206  
  7220.000000   0335591595   0336716884   0337939299   0339269420   0340703622  
  7210.000000   0342216004   0343783515   0345384305   0347013934   0348675909  
  7200.000000   0350384906   0352151656   0353983912   0355873772   0357805983  
  7190.000000   0359747415   0361664794   0363515716   0365274044   0366920727  
  7180.000000   0368465106   0369929339   0371355713   0372784035   0374252736  
  7170.000000   0375780221   0377376602   0379035962   0380757581   0382539215  
  7160.000000   0384390026   0386315724   0388320896   0390395225   0392523221  
  7150.000000   0394680274   0396856139   0399046740   0401274796   0403560702  
  7140.000000   0405931108   0408380652   0410888299   0413400589   0415870915  
  7130.000000   0418257841   0420563654   0422816095   0425083179   0427430454  
  7120.000000   0429919649   0432570534   0435372226   0438275811   0441224680  
  7110.000000   0444164060   0447067235   0449931699   0452786091   0455667634  
  7100.000000   0458619065   0461663148   0464804500   0468014725   0471247495  
  7090.000000   0474439741   0477537508   0480502968   0483333914   0486059760  
  7080.000000   0488739565   0491439560   0494215472   0497090806   0500052632  
  7070.000000   0503055063   0506040239   0508959429   0511792327   0514552323  
  7060.000000   0517278052   0520017618   0522808898   0525668357   0528587399  
  7050.000000   0531539630   0534493313   0537422224   0540312555   0543162570  
  7040.000000   0545977042   0548763495   0551525713   0554267732   0556990922  
  7030.000000   0559700043   0562397437   0565086336   0567762697   0570421925  
  7020.000000   0573052331   0575648475   0578203475   0580720414   0583199419  
  7010.000000   0585644273   0588050347   0590413566   0592723080   0594975793  
  7000.000000   0597167279   0599305362   0601394251   0603446641   0605468242  
  6990.000000   0607471881   0609464443   0611459923   0613462099   0615472573  
  6980.000000   0617471490   0619431142   0621309595   0623076509   0624715440  
  6970.000000   0626245051   0627705567   0629157049   0630646051   0632199715  
  6960.000000   0633803909   0635422549   0637001005   0638502281   0639908018  
  6950.000000   0641236650   0642517599   0643788316   0645063662   0646342660  
  6940.000000   0647600717   0648814206   0649962243   0651044289   0652066338  
  6930.000000   0653043742   0653980506   0654878749   0655730412   0656538636  
  6920.000000   0657311708   0658074902   0658849468   0659651033   0660469132  
  6910.000000   0661277423   0662035808   0662716054   0663309583   0663838248  
  6900.000000   0664340617   0664858699   0665415531   0666008921   0666611375  
  6890.000000   0667189147   0667717448   0668198228   0668656187   0669132581  
  6880.000000   0669661399   0670260589   0670919986   0671613187   0672304889  
  6870.000000   0672968534   0673590260   0674169644   0674711113   0675216674  
  6860.000000   0675681266   0676096832   0676457301   0676767423   0677042291  
  6850.000000   0677306037   0677581506   0677885413   0678221312   0678585069  
  6840.000000   0678965037   0679352751   0679739397   0680121206   0680490904  
  6830.000000   0680842699   0681167784   0681464575   0681736344   0681998375  
  6820.000000   0682267991   0682562008   0682883915   0683223684   0683556575  
  6810.000000   0683853882   0684089256   0684249819   0684334297   0684354587  
  6800.000000   0684325092   0684263202   0684182390   0684099157   0684029238  
  6790.000000   0683993169   0684005917   0684076196   0684194599   0684338429  
  6780.000000   0684472505   0684564021   0684591300   0684552237   0684464061  
  6770.000000   0684353197   0684247123   0684159962   0684094642   0684040567  
  6760.000000   0683987969   0683930458   0683874539   0683833811   0683826639  
  6750.000000   0683867039   0683961781   0684109831   0684305409   0684542265  
  6740.000000   0684815504   0685121003   0685453242   0685802264   0686154122  
  6730.000000   0686492059   0686801265   0687070829   0687296407   0687477252  
  6720.000000   0687615376   0687712002   0687767720   0687784846   0687767094  
  6710.000000   0687725230   0687670192   0687618130   0687578733   0687562098  
  6700.000000   0687568968   0687600279   0687650082   0687712716   0687776159  
  6690.000000   0687825868   0687841483   0687803344   0687694100   0687508825  
  6680.000000   0687253672   0686952031   0686633306   0686333200   0686078529  
  6670.000000   0685889068   0685767046   0685704963   0685679113   0685660715  
  6660.000000   0685610471   0685492676   0685273163   0684936199   0684482954  
  6650.000000   0683941871   0683356628   0682781389   0682258837   0681812345  
  6640.000000   0681433543   0681091105   0680736956   0680328357   0679835181  
  6630.000000   0679253700   0678597550   0677896775   0677181005   0676478115  
  6620.000000   0675805694   0675176715   0674596845   0674069318   0673588510  
  6610.000000   0673142705   0672708251   0672259485   0671770090   0671227340  
  6600.000000   0670631832   0670000226   0669355171   0668715845   0668089857  
  6590.000000   0667469470   0666837597   0666175435   0665471743   0664728488  
  6580.000000   0663957807   0663179883   0662412425   0661671062   0660964167  
  6570.000000   0660299191   0659680804   0659113108   0658594235   0658113004  
  6560.000000   0657646788   0657164314   0656634270   0656034954   0655362927  
  6550.000000   0654634213   0653879833   0653134468   0652426777   0651771271  
  6540.000000   0651168137   0650606905   0650072349   0649549910   0649026714  
  6530.000000   0648492005   0647936040   0647351261   0646735574   0646094808  
  6520.000000   0645443986   0644803275   0644191319   0643618078   0643080352  
  6510.000000   0642564779   0642053554   0641535553   0641009974   0640488732  
  6500.000000   0639986419   0639512623   0639061342   0638611294   0638131561  
  6490.000000   0637594168   0636985678   0636313226   0635601126   0634881929  
  6480.000000   0634182194   0633516253   0632881580   0632267461   0631660798  
  6470.000000   0631055902   0630454301   0629862565   0629284163   0628715385  
  6460.000000   0628143229   0627551285   0626926510   0626266151   0625581605  
  6450.000000   0624892834   0624225783   0623598812   0623023511   0622495603  
  6440.000000   0622004052   0621528005   0621049081   0620549248   0620021962  
  6430.000000   0619468724   0618907136   0618363615   0617874872   0617473680  
  6420.000000   0617185770   0617014546   0616945487   0616941175   0616958988  
  6410.000000   0616954736   0616901160   0616786096   0616618659   0616417275  
  6400.000000   0616208202   0616013332   0615852043   0615735187   0615669535  
  6390.000000   0615653763   0615680112   0615731835   0615785531   0615815344  
  6380.000000   0615798982   0615725628   0615597754   0615431980   0615250472  
  6370.000000   0615075031   0614917720   0614781503   0614659880   0614546351  
  6360.000000   0614434539   0614325118   0614216710   0614107619   0613985866  
  6350.000000   0613836073   0613639958   0613387689   0613080504   0612733065  
  6340.000000   0612365981   0611998568   0611638502   0611282895   0610918190  
  6330.000000   0610534554   0610128399   0609713896   0609312948   0608953974  
  6320.000000   0608653042   0608412750   0608213120   0608023492   0607806697  
  6310.000000   0607534300   0607189455   0606771833   0606291690   0605766889  
  6300.000000   0605214361   0604650568   0604085804   0603529052   0602982263  
  6290.000000   0602446467   0601916271   0601387741   0600853893   0600313611  
  6280.000000   0599765208   0599212031   0598653116   0598086766   0597504855  
  6270.000000   0596899335   0596262679   0595596116   0594907957   0594215577  
  6260.000000   0593535207   0592880064   0592250777   0591639663   0591030274  
  6250.000000   0590408205   0589763374   0589095220   0588407715   0587706853  
  6240.000000   0586994488   0586268509   0585524069   0584759005   0583977639  
  6230.000000   0583191701   0582417792   0581670740   0580959173   0580281965  
  6220.000000   0579630652   0578993186   0578359317   0577724018   0577088246  
  6210.000000   0576456457   0575834849   0575228124   0574641808   0574079504  
  6200.000000   0573546443   0573043464   0572568893   0572110785   0571652240  
  6190.000000   0571170689   0570650189   0570084648   0569485476   0568876885  
  6180.000000   0568291073   0567756228   0567289002   0566889486   0566543674  
  6170.000000   0566229870   0565926233   0565616768   0565292551   0564950095  
  6160.000000   0564588167   0564205226   0563800058   0563372578   0562926413  
  6150.000000   0562468047   0562005379   0561544076   0561085293   0560626363  
  6140.000000   0560162911   0559694134   0559223782   0558760518   0558312816  
  6130.000000   0557883903   0557469287   0557055600   0556628392   0556175817  
  6120.000000   0555698231   0555205374   0554716636   0554250421   0553821582  
  6110.000000   0553434298   0553087491   0552775295   0552496611   0552251987  
  6100.000000   0552046754   0551880380   0551748125   0551633093   0551517019  
  6090.000000   0551379663   0551214867   0551025435   0550831069   0550651848  
  6080.000000   0550509783   0550412159   0550359784   0550340190   0550344217  
  6070.000000   0550361368   0550393753   0550443284   0550519931   0550624804  
  6060.000000   0550761239   0550921865   0551106322   0551309474   0551539812  
  6050.000000   0551801698   0552110785   0552472316   0552897043   0553381906  
  6040.000000   0553928706   0554528042   0555178865   0555872102   0556609495  
  6030.000000   0557385922   0558207841   0559074646   0559995311   0560968259  
  6020.000000   0561996732   0563069550   0564179792   0565309096   0566450576  
  6010.000000   0567593341   0568743970   0569905241   0571092742   0572308804  
  6000.000000   0573560676   0574838312   0576140120   0577455464   0578791259  
  5990.000000   0580151694   0581557701   0583022037   0584564605   0586189825  
  5980.000000   0587905707   0589706590   0591594978   0593562912   0595611082  
  5970.000000   0597725901   0599899189   0602106501   0604333459   0606557445  
  5960.000000   0608776680   0610987259   0613205938   0615441144   0617710879  
  5950.000000   0620017274   0622365489   0624750272   0627173775   0629638391  
  5940.000000   0632153848   0634730478   0637376097   0640092495   0642870143  
  5930.000000   0645692945   0648535566   0651371911   0654172034   0656908751  
  5920.000000   0659554716   0662087756   0664490275   0666755698   0668886491  
  5910.000000   0670898187   0672809350   0674645056   0676422390   0678161590  
  5900.000000   0679871883   0681572325   0683274053   0685002002   0686767213  
  5890.000000   0688584871   0690444575   0692332334   0694212070   0696053383  
  5880.000000   0697822199   0699502365   0701084055   0702571521   0703968450  
  5870.000000   0705280889   0706508935   0707655619   0708724574   0709730264  
  5860.000000   0710690452   0711630954   0712571669   0713531305   0714516045  
  5850.000000   0715530394   0716570730   0717636645   0718723748   0719829285  
  5840.000000   0720945393   0722062751   0723170608   0724261499   0725335435  
  5830.000000   0726399028   0727465689   0728545987   0729646580   0730761705  
  5820.000000   0731880016   0732984706   0734064845   0735117410   0736149660  
  5810.000000   0737177194   0738213888   0739274950   0740361965   0741481200  
  5800.000000   0742624537   0743798329   0744993112   0746213679   0747439825  
  5790.000000   0748658727   0749828296   0750914447   0751861167   0752627304  
  5780.000000   0753160037   0753426899   0753392894   0753050692   0752401864  
  5770.000000   0751484981   0750351396   0749083467   0747756789   0746451561  
  5760.000000   0745213131   0744073185   0743025226   0742060635   0741155093  
  5750.000000   0740301402   0739491429   0738731533   0738022820   0737366190  
  5740.000000   0736755633   0736181522   0735637110   0735114779   0734613608  
  5730.000000   0734126500   0733647216   0733159505   0732649735   0732104891  
  5720.000000   0731525740   0730923407   0730320878   0729741108   0729201395  
  5710.000000   0728704517   0728241018   0727792863   0727342536   0726880024  
  5700.000000   0726403538   0725920102   0725435162   0724955015   0724476802  
  5690.000000   0724001910   0723527606   0723063403   0722614394   0722191290  
  5680.000000   0721787361   0721389621   0720963617   0720474178   0719880391  
  5670.000000   0719157309   0718288810   0717278462   0716135644   0714880063  
  5660.000000   0713529853   0712109762   0710643663   0709163564   0707698649  
  5650.000000   0706279344   0704922974   0703638655   0702419284   0701253202  
  5640.000000   0700124340   0699022910   0697945608   0696895134   0695878839  
  5630.000000   0694899943   0693962011   0693059834   0692191458   0691348608  
  5620.000000   0690530096   0689729049   0688945243   0688172365   0687411424  
  5610.000000   0686660879   0685928742   0685222165   0684553958   0683930424  
  5600.000000   0683355860   0682824563   0682329263   0681859220   0681409029  
  5590.000000   0680975919   0680562119   0680168145   0679792145   0679425695  
  5580.000000   0679057901   0678676802   0678275599   0677852832   0677412784  
  5570.000000   0676960989   0676500781   0676031370   0675548009   0675046588  
  5560.000000   0674525371   0673989151   0673445557   0672904280   0672370363  
  5550.000000   0671844628   0671321670   0670795585   0670261035   0669718185  
  5540.000000   0669169738   0668620931   0668074417   0667531037   0666988920  
  5530.000000   0666447837   0665909472   0665379522   0664863060   0664363152  
  5520.000000   0663875489   0663391076   0662896752   0662383248   0661846544  
  5510.000000   0661291966   0660728326   0660165497   0659606337   0659047572  
  5500.000000   0658478397   0657889080   0657272376   0656631149   0655972512  
  5490.000000   0655308512   0654645724   0653987415   0653328762   0652665196  
  5480.000000   0651990640   0651304891   0650607272   0649899706   0649178650  
  5470.000000   0648440863   0647680449   0646898459   0646099622   0645296275  
  5460.000000   0644498664   0643712725   0642933126   0642145788   0641332366  
  5450.000000   0640478135   0639579206   0638643875   0637690513   0636738679  
  5440.000000   0635804734   0634896128   0634018408   0633175130   0632378063  
  5430.000000   0631638484   0630969048   0630366618   0629818055   0629292059  
  5420.000000   0628761608   0628203471   0627624078   0627045985   0626516988  
  5410.000000   0626075165   0625750333   0625535224   0625409363   0625331184  
  5400.000000   0625275868   0625223564   0625185867   0625175632   0625221131  
  5390.000000   0625330050   0625510900   0625749611   0626044938   0626388065  
  5380.000000   0626794823   0627272163   0627843136   0628506687   0629270074  
  5370.000000   0630113776   0631036883   0632020081   0633074118   0634189514  
  5360.000000   0635386622   0636656388   0638021074   0639473236   0641046223  
  5350.000000   0642744926   0644616101   0646666390   0648934750   0651405694  
  5340.000000   0654096863   0656975583   0660060637   0663328311   0666813789  
  5330.000000   0670502027   0674431141   0678577686   0682971235   0687582835  
  5320.000000   0692451317   0697562341   0702975775   0708687999   0714762976  
  5310.000000   0721185336   0728000522   0735173484   0742736647   0750654337  
  5300.000000   0758965403   0767647254   0776750709   0786261198   0796226619  
  5290.000000   0806618529   0817454283   0828669055   0840236758   0852067687  
  5280.000000   0864131005   0876368928   0888802360   0901438283   0914342170  
  5270.000000   0927537189   0941048030   0954829627   0968811693   0982889307  
  5260.000000   0996967907   1010985221   1024915881   1038776323   1052578412  
  5250.000000   1066335448   1080003664   1093535289   1106828921   1119832471  
  5240.000000   1132474838   1144775115   1156728513   1168406211   1179816825  
  5230.000000   1191014231   1201962714   1212665210   1223042300   1233079338  
  5220.000000   1242707329   1251950753   1260791055   1269302724   1277498486  
  5210.000000   1285455914   1293158502   1300630788   1307797310   1314643110  
  5200.000000   1321086861   1327146376   1332794093   1338099517   1343064917  
  5190.000000   1347755162   1352143897   1356255103   1360033911   1363497324  
  5180.000000   1366608171   1369411809   1371895934   1374111467   1376034662  
  5170.000000   1377692546   1379044874   1380115142   1380879653   1381385322  
  5160.000000   1381630757   1381668280   1381487459   1381118097   1380531014  
  5150.000000   1379744520   1378734921   1377530579   1376121612   1374539043  
  5140.000000   1372772171   1370844414   1368745710   1366504613   1364126538  
  5130.000000   1361651055   1359089692   1356471705   1353792218   1351058971  
  5120.000000   1348257403   1345396387   1342478791   1339531592   1336572256  
  5110.000000   1333624769   1330692613   1327776323   1324862392   1321945239  
  5100.000000   1319021875   1316105438   1313211982   1310362910   1307568922  
  5090.000000   1304834446   1302149720   1299503189   1296878618   1294266564  
  5080.000000   1291657067   1289045126   1286420594   1283774584   1281093252  
  5070.000000   1278368521   1275593179   1272770026   1269902233   1266998689  
  5060.000000   1264061818   1261095803   1258097174   1255068641   1252009874  
  5050.000000   1248930937   1245838382   1242744741   1239653157   1236567356  
  5040.000000   1233481525   1230392676   1227295111   1224189521   1221077509  
  5030.000000   1217963709   1214851659   1211742562   1208637106   1205533766  
  5020.000000   1202435851   1199346173   1196275375   1193230401   1190224568  
  5010.000000   1187262313   1184354381   1181501048   1178712421   1175988016  
  5000.000000   1173339679   1170765780   1168277337   1165868996   1163550661  
  4990.000000   1161316342   1159179998   1157139310   1155213190   1153398793  
  4980.000000   1151712579   1150143479   1148701347   1147368406   1146154001  
  4970.000000   1145041935   1144047356   1143158251   1142394401   1141745592  
  4960.000000   1141235186   1140856562   1140639590   1140582566   1140717899  
  4950.000000   1141039084   1141568012   1142282300   1143190182   1144260662  
  4940.000000   1145504580   1146900864   1148475853   1150219943   1152164155  
  4930.000000   1154293243   1156626693   1159137391   1161838026   1164704576  
  4920.000000   1167758601   1170990144   1174429016   1178069842   1181935425  
  4910.000000   1186012073   1190307979   1194800873   1199486980   1204338724  
  4900.000000   1209340165   1214457570   1219662472   1224920036   1230198724  
  4890.000000   1235474666   1240721920   1245928389   1251065194   1256117258  
  4880.000000   1261038536   1265803247   1270351163   1274657040   1278663092  
  4870.000000   1282358528   1285698230   1288688494   1291297162   1293544877  
  4860.000000   1295411567   1296930083   1298090699   1298933462   1299453826  
  4850.000000   1299693527   1299652218   1299375665   1298874286   1298202801  
  4840.000000   1297383947   1296474697   1295497744   1294496181   1293479718  
  4830.000000   1292471626   1291472044   1290494916   1289543385   1288631686  
  4820.000000   1287768886   1286966138   1286231043   1285565223   1284971457  
  4810.000000   1284443969   1283984602   1283585124   1283247763   1282962305  
  4800.000000   1282730619   1282543274   1282406991   1282321028   1282302429  
  4790.000000   1282359568   1282511572   1282761334   1283112987   1283551896  
  4780.000000   1284065127   1284629469   1285231604   1285857104   1286504281  
  4770.000000   1287169177   1287853825   1288551238   1289254970   1289949418  
  4760.000000   1290622527   1291260029   1291856342   1292408699   1292922467  
  4750.000000   1293405622   1293869739   1294326845   1294788329   1295264308  
  4740.000000   1295761801   1296284364   1296831034   1297396246   1297972444  
  4730.000000   1298549292   1299119929   1299676897   1300221123   1300751566  
  4720.000000   1301276948   1301800117   1302334758   1302885878   1303470746  
  4710.000000   1304096107   1304781206   1305532031   1306365079   1307281945  
  4700.000000   1308294647   1309402357   1310616292   1311937502   1313378836  
  4690.000000   1314941332   1316633625   1318448322   1320383154   1322417781  
  4680.000000   1324538382   1326714674   1328927383   1331143534   1333344800  
  4670.000000   1335503405   1337611476   1339658217   1341655912   1343617196  
  4660.000000   1345573812   1347553571   1349590744   1351706793   1353917335  
  4650.000000   1356222605   1358614552   1361077277   1363591638   1366140966  
  4640.000000   1368708909   1371287164   1373865597   1376442522   1379009369  
  4630.000000   1381565229   1384097876   1386602997   1389061206   1391461202  
  4620.000000   1393773057   1395977371   1398036888   1399932177   1401630842  
  4610.000000   1403128216   1404410865   1405498211   1406396487   1407141398  
  4600.000000   1407745546   1408245427   1408647162   1408978625   1409235643  
  4590.000000   1409435065   1409561308   1409617602   1409576343   1409429045  
  4580.000000   1409144598   1408717166   1408131263   1407401821   1406540047  
  4570.000000   1405582097   1404553735   1403491567   1402411303   1401330288  
  4560.000000   1400244623   1399154905   1398049324   1396927332   1395783321  
  4550.000000   1394623555   1393449573   1392269517   1391085884   1389903812  
  4540.000000   1388725672   1387555146   1386396609   1385252555   1384126538  
  4530.000000   1383014948   1381916483   1380820534   1379725942   1378623904  
  4520.000000   1377524449   1376428383   1375359600   1374324410   1373352674  
  4510.000000   1372447804   1371640848   1370932826   1370360640   1369928761  
  4500.000000   1369682644   1369628208   1369812632   1370235368   1370939485  
  4490.000000   1371917370   1373211571   1374812702   1376764908   1379054334  
  4480.000000   1381718574   1384730521   1388114424   1391830552   1395895362  
  4470.000000   1400267009   1404962441   1409943628   1415228088   1420780044  
  4460.000000   1426614694   1432698381   1439044194   1445621050   1452435718  
  4450.000000   1459452374   1466661065   1474014553   1481486032   1489027266  
  4440.000000   1496612219   1504212369   1511817692   1519424157   1527028920  
  4430.000000   1534633248   1542218543   1549771860   1557250080   1564628066  
  4420.000000   1571851537   1578899182   1585721983   1592310399   1598623185  
  4410.000000   1604657200   1610374114   1615773920   1620825108   1625539714  
  4400.000000   1629905198   1633956077   1637704204   1641205539   1644489903  
  4390.000000   1647624952   1650647555   1653624562   1656586294   1659582486  
  4380.000000   1662621660   1665724553   1668875444   1672074336   1675298914  
  4370.000000   1678549453   1681813123   1685096290   1688388459   1691689814  
  4360.000000   1694977713   1698244851   1701459577   1704623713   1707705636  
  4350.000000   1710721737   1713633651   1716458639   1719145541   1721708379  
  4340.000000   1724095067   1726315690   1728305686   1730026197   1731339323  
  4330.000000   1732098544   1732076943   1731078571   1728929331   1725587497  
  4320.000000   1721135450   1715824193   1710001076   1704079183   1698427901  
  4310.000000   1693342392   1688977744   1685378351   1682483362   1680188893  
  4300.000000   1678381925   1676968917   1675898874   1675133654   1674672564  
  4290.000000   1674490851   1674592965   1674945193   1675548750   1676373090  
  4280.000000   1677417039   1678653454   1680062926   1681609248   1683249150  
  4270.000000   1684938296   1686618162   1688230677   1689688779   1690893678  
  4260.000000   1691712991   1692015138   1691670090   1690601008   1688785341  
  4250.000000   1686294956   1683259868   1679881112   1676357153   1672894073  
  4240.000000   1669629190   1666666014   1664022463   1661690011   1659607441  
  4230.000000   1657715389   1655941693   1654229084   1652532642   1650818748  
  4220.000000   1649082050   1647319677   1645567326   1643852304   1642238359  
  4210.000000   1640764287   1639488464   1638428959   1637608306   1637006824  
  4200.000000   1636609419   1636370920   1636264518   1636246352   1636302828  
  4190.000000   1636405305   1636558844   1636746356   1636982993   1637254912  
  4180.000000   1637581698   1637953384   1638396879   1638912084   1639536468  
  4170.000000   1640280183   1641186014   1642264880   1643554084   1645054568  
  4160.000000   1646791406   1648751707   1650949000   1653359554   1655990289  
  4150.000000   1658811703   1661829022   1665011716   1668368949   1671875125  
  4140.000000   1675548777   1679371468   1683368375   1687521705   1691853679  
  4130.000000   1696339930   1700995351   1705793265   1710750762   1715853191  
  4120.000000   1721131590   1726590659   1732275081   1738201017   1744412131  
  4110.000000   1750916794   1757737185   1764853894   1772252202   1779878334  
  4100.000000   1787686962   1795609828   1803600615   1811611660   1819624886  
  4090.000000   1827629254   1835629311   1843631044   1851634666   1859642582  
  4080.000000   1867640167   1875628402   1883586737   1891520135   1899398074  
  4070.000000   1907213743   1914909457   1922456374   1929776562   1936841193  
  4060.000000   1943583655   1950002008   1956055610   1961768592   1967117107  
  4050.000000   1972142036   1976831884   1981241628   1985364976   1989252189  
  4040.000000   1992875787   1996255052   1999331413   2002106865   2004528835  
  4030.000000   2006627007   2008389643   2009879686   2011109829   2012136028  
  4020.000000   2012945732   2013574069   2014015671   2014296599   2014392179  
  4010.000000   2014344021   2014171233   2013861190   2013307366   2012509033  
  4000.000000   2011584672  
##END= 
