##TITLE= Sample 043 By ssteindl date Dienstag, November 20 2018
##JCAMP-DX= 4.24
##DATA TYPE= INFRARED SPECTRUM
##ORIGIN= Exported PE Spectrum Data File
##OWNER= Sandra Steindl
##DATE= 18/11/20
##TIME= 15:36:07.00
##SPECTROMETER/DATA SYSTEM= PERKIN-ELMER Frontier FT-IR/NIR IR
##INSTRUMENT PARAMETERS=
  APODIZATION=stark
  DETECTOR=INGAAS
##RESOLUTION= 16.000000
##DELTAX= -2.000000
##XUNITS= 1/CM
##YUNITS= A
##XFACTOR= 1.00
##YFACTOR= 0.00000011920928955078
##FIRSTX= 10000.00
##LASTX= 4000.00
##NPOINTS= 3001
##FIRSTY= 0.198033
##MAXY= 0.623281
##MINY= 0.172219
##XYDATA= (X++(Y..Y))
 10000.000000   1661221   1657997   1654787   1651797   1649489  
  9990.000000   1648060   1647280   1646586   1645551   1643928  
  9980.000000   1641604   1638585   1635112   1631695   1629026  
  9970.000000   1627877   1628856   1632181   1637442   1643660  
  9960.000000   1649506   1653719   1655484   1654649   1651709  
  9950.000000   1647515   1642980   1638690   1634876   1631356  
  9940.000000   1627851   1624100   1620066   1615912   1611905  
  9930.000000   1608366   1605517   1603605   1602827   1603458  
  9920.000000   1605712   1609680   1615172   1621654   1628313  
  9910.000000   1634199   1638491   1640656   1640614   1638622  
  9900.000000   1635238   1631052   1626659   1622500   1618899  
  9890.000000   1616011   1613827   1612186   1610825   1609509  
  9880.000000   1608134   1606852   1605995   1606031   1607259  
  9870.000000   1609745   1613125   1616819   1620187   1622882  
  9860.000000   1624961   1626852   1629064   1631813   1634798  
  9850.000000   1637144   1637719   1635497   1630018   1621565  
  9840.000000   1611144   1600172   1590066   1581910   1576243  
  9830.000000   1573139   1572285   1573228   1575389   1578184  
  9820.000000   1580962   1583142   1584317   1584412   1583767  
  9810.000000   1582993   1582797   1583573   1585285   1587332  
  9800.000000   1588864   1589073   1587610   1584717   1581152  
  9790.000000   1577856   1575553   1574467   1574290   1574395  
  9780.000000   1574180   1573344   1571994   1570540   1569457  
  9770.000000   1569078   1569484   1570560   1572129   1574057  
  9760.000000   1576298   1578791   1581375   1583716   1585387  
  9750.000000   1586039   1585597   1584374   1582986   1582133  
  9740.000000   1582263   1583391   1585038   1586467   1586990  
  9730.000000   1586265   1584444   1582048   1579730   1577936  
  9720.000000   1576720   1575733   1574424   1572337   1569375  
  9710.000000   1565902   1562652   1560503   1560137   1561855  
  9700.000000   1565401   1570105   1575023   1579241   1582119  
  9690.000000   1583408   1583293   1582218   1580717   1579191  
  9680.000000   1577785   1576377   1574675   1572406   1569491  
  9670.000000   1566155   1562878   1560248   1558680   1558247  
  9660.000000   1558577   1558995   1558786   1557457   1554967  
  9650.000000   1551691   1548328   1545608   1544101   1544055  
  9640.000000   1545378   1547756   1550722   1553838   1556696  
  9630.000000   1559026   1560696   1561751   1562427   1563025  
  9620.000000   1563821   1564803   1565623   1565543   1563715  
  9610.000000   1559499   1552846   1544516   1535939   1528902  
  9600.000000   1524918   1524774   1528196   1533978   1540395  
  9590.000000   1545772   1549009   1549772   1548433   1545731  
  9580.000000   1542451   1539193   1536386   1534340   1533412  
  9570.000000   1533928   1536107   1539815   1544450   1549026  
  9560.000000   1552407   1553752   1552782   1549945   1546233  
  9550.000000   1542821   1540661   1540171   1541191   1543142  
  9540.000000   1545302   1547084   1548152   1548425   1547994  
  9530.000000   1547004   1545632   1544058   1542482   1541087  
  9520.000000   1539963   1539076   1538274   1537423   1536538  
  9510.000000   1535914   1536040   1537466   1540441   1544732  
  9500.000000   1549484   1553460   1555432   1554671   1551295  
  9490.000000   1546240   1540951   1536758   1534407   1533759  
  9480.000000   1533974   1533896   1532585   1529683   1525491  
  9470.000000   1520840   1516685   1513851   1512748   1513443  
  9460.000000   1515708   1519191   1523471   1528018   1532227  
  9450.000000   1535395   1536935   1536508   1534200   1530508  
  9440.000000   1526166   1521921   1518292   1515500   1513530  
  9430.000000   1512298   1511779   1512051   1513144   1514883  
  9420.000000   1516699   1517716   1516983   1513916   1508651  
  9410.000000   1502133   1495873   1491410   1489764   1491068  
  9400.000000   1494570   1498941   1502792   1505119   1505576  
  9390.000000   1504399   1502185   1499521   1496840   1494339  
  9380.000000   1492152   1490419   1489371   1489218   1490043  
  9370.000000   1491705   1493836   1496037   1498001   1499709  
  9360.000000   1501327   1503101   1505106   1507127   1508704  
  9350.000000   1509314   1508671   1506867   1504383   1501866  
  9340.000000   1499837   1498443   1497404   1496176   1494262  
  9330.000000   1491507   1488213   1485020   1482591   1481351  
  9320.000000   1481292   1482063   1483140   1484139   1484980  
  9310.000000   1485879   1487176   1489074   1491487   1494008  
  9300.000000   1496069   1497154   1497036   1495816   1493903  
  9290.000000   1491779   1489866   1488391   1487386   1486759  
  9280.000000   1486346   1486004   1485629   1485180   1484658  
  9270.000000   1484120   1483657   1483412   1483495   1483959  
  9260.000000   1484714   1485547   1486203   1486495   1486422  
  9250.000000   1486183   1486073   1486330   1486940   1487624  
  9240.000000   1487909   1487338   1485704   1483168   1480262  
  9230.000000   1477638   1475808   1474896   1474587   1474279  
  9220.000000   1473337   1471418   1468609   1465465   1462776  
  9210.000000   1461279   1461377   1463037   1465842   1469102  
  9200.000000   1472064   1474039   1474610   1473604   1471174  
  9190.000000   1467701   1463787   1460139   1457409   1456045  
  9180.000000   1456140   1457479   1459617   1462092   1464563  
  9170.000000   1466904   1469160   1471397   1473527   1475168  
  9160.000000   1475754   1474739   1471950   1467712   1462866  
  9150.000000   1458547   1455845   1455467   1457449   1461211  
  9140.000000   1465737   1469968   1473071   1474630   1474645  
  9130.000000   1473417   1471420   1469101   1466854   1464966  
  9120.000000   1463684   1463149   1463365   1464164   1465228  
  9110.000000   1466237   1466932   1467303   1467547   1468024  
  9100.000000   1469052   1470717   1472801   1474758   1475958  
  9090.000000   1475877   1474354   1471610   1468183   1464768  
  9080.000000   1461985   1460262   1459710   1460255   1461682  
  9070.000000   1463765   1466242   1468839   1471249   1473118  
  9060.000000   1474099   1473896   1472417   1469769   1466326  
  9050.000000   1462564   1459030   1456165   1454266   1453445  
  9040.000000   1453603   1454551   1456010   1457758   1459615  
  9030.000000   1461531   1463524   1465664   1467954   1470282  
  9020.000000   1472388   1473900   1474478   1473888   1472186  
  9010.000000   1469651   1466785   1464058   1461789   1459982  
  9000.000000   1458376   1456575   1454274   1451464   1448486  
  8990.000000   1445989   1444679   1445121   1447495   1451566  
  8980.000000   1456728   1462207   1467286   1471422   1474353  
  8970.000000   1476018   1476548   1476126   1474988   1473361  
  8960.000000   1471494   1469627   1467974   1466675   1465768  
  8950.000000   1465212   1464893   1464724   1464628   1464602  
  8940.000000   1464636   1464720   1464792   1464771   1464602  
  8930.000000   1464311   1464042   1464008   1464410   1465336  
  8920.000000   1466691   1468212   1469544   1470367   1470516  
  8910.000000   1470020   1469110   1468075   1467174   1466495  
  8900.000000   1465970   1465405   1464615   1463510   1462176  
  8890.000000   1460852   1459851   1459470   1459865   1461032  
  8880.000000   1462796   1464895   1467070   1469108   1470909  
  8870.000000   1472434   1473710   1474732   1475467   1475826  
  8860.000000   1475754   1475243   1474413   1473496   1472819  
  8850.000000   1472714   1473409   1474958   1477181   1479750  
  8840.000000   1482254   1484359   1485887   1486876   1487537  
  8830.000000   1488157   1488974   1490080   1491401   1492720  
  8820.000000   1493784   1494384   1494453   1494061   1493391  
  8810.000000   1492661   1492059   1491697   1491606   1491751  
  8800.000000   1492082   1492546   1493138   1493861   1494749  
  8790.000000   1495814   1497056   1498444   1499934   1501483  
  8780.000000   1503058   1504670   1506371   1508272   1510497  
  8770.000000   1513152   1516244   1519657   1523135   1526307  
  8760.000000   1528787   1530238   1530510   1529628   1527835  
  8750.000000   1525476   1522963   1520661   1518853   1517729  
  8740.000000   1517375   1517845   1519137   1521242   1524079  
  8730.000000   1527538   1531437   1535554   1539630   1543395  
  8720.000000   1546620   1549122   1550821   1551715   1551927  
  8710.000000   1551661   1551200   1550835   1550797   1551205  
  8700.000000   1552018   1553081   1554149   1555004   1555499  
  8690.000000   1555640   1555553   1555455   1555572   1556051  
  8680.000000   1556944   1558175   1559610   1561071   1562416  
  8670.000000   1563547   1564461   1565222   1565976   1566894  
  8660.000000   1568153   1569864   1572044   1574590   1577305  
  8650.000000   1579945   1582310   1584307   1585996   1587563  
  8640.000000   1589243   1591212   1593514   1596020   1598487  
  8630.000000   1600640   1602302   1603428   1604131   1604610  
  8620.000000   1605081   1605694   1606493   1607462   1608563  
  8610.000000   1609820   1611310   1613159   1615444   1618156  
  8600.000000   1621148   1624180   1626983   1629339   1631155  
  8590.000000   1632451   1633330   1633912   1634282   1634492  
  8580.000000   1634567   1634585   1634684   1635074   1635942  
  8570.000000   1637394   1639358   1641576   1643651   1645160  
  8560.000000   1645809   1645511   1644457   1643029   1641718  
  8550.000000   1640959   1641005   1641898   1643478   1645496  
  8540.000000   1647696   1649925   1652147   1654417   1656800  
  8530.000000   1659285   1661753   1663948   1665586   1666419  
  8520.000000   1666391   1665638   1664505   1663445   1662899  
  8510.000000   1663186   1664400   1666436   1669025   1671849  
  8500.000000   1674603   1677073   1679164   1680851   1682155  
  8490.000000   1683090   1683694   1684004   1684100   1684113  
  8480.000000   1684223   1684631   1685485   1686892   1688861  
  8470.000000   1691341   1694182   1697189   1700128   1702741  
  8460.000000   1704773   1705995   1706281   1705629   1704210  
  8450.000000   1702324   1700369   1698754   1697802   1697700  
  8440.000000   1698452   1699933   1701916   1704165   1706449  
  8430.000000   1708601   1710491   1712038   1713184   1713917  
  8420.000000   1714294   1714421   1714471   1714613   1714998  
  8410.000000   1715689   1716638   1717703   1718686   1719417  
  8400.000000   1719786   1719808   1719596   1719354   1719287  
  8390.000000   1719559   1720230   1721254   1722484   1723729  
  8380.000000   1724801   1725573   1726005   1726143   1726083  
  8370.000000   1725934   1725768   1725602   1725403   1725116  
  8360.000000   1724704   1724183   1723618   1723114   1722756  
  8350.000000   1722592   1722589   1722671   1722734   1722708  
  8340.000000   1722572   1722358   1722126   1721921   1721753  
  8330.000000   1721574   1721315   1720916   1720361   1719693  
  8320.000000   1718995   1718361   1717868   1717560   1717453  
  8310.000000   1717548   1717834   1718295   1718885   1719513  
  8300.000000   1720033   1720282   1720141   1719590   1718749  
  8290.000000   1717839   1717122   1716790   1716883   1717259  
  8280.000000   1717633   1717705   1717273   1716344   1715116  
  8270.000000   1713928   1713111   1712883   1713246   1714006  
  8260.000000   1714835   1715398   1715459   1714924   1713848  
  8250.000000   1712368   1710645   1708825   1707011   1705293  
  8240.000000   1703748   1702470   1701536   1700997   1700838  
  8230.000000   1700991   1701324   1701697   1701964   1702010  
  8220.000000   1701744   1701097   1700034   1698543   1696683  
  8210.000000   1694573   1692400   1690368   1688635   1687276  
  8200.000000   1686238   1685387   1684549   1683611   1682552  
  8190.000000   1681476   1680538   1679867   1679478   1679243  
  8180.000000   1678930   1678280   1677130   1675457   1673417  
  8170.000000   1671267   1669282   1667646   1666402   1665451  
  8160.000000   1664615   1663722   1662676   1661483   1660224  
  8150.000000   1659021   1657966   1657104   1656421   1655872  
  8140.000000   1655406   1654982   1654566   1654119   1653586  
  8130.000000   1652895   1651987   1650828   1649442   1647892  
  8120.000000   1646263   1644618   1642979   1641320   1639597  
  8110.000000   1637799   1635975   1634251   1632789   1631731  
  8100.000000   1631137   1630947   1630991   1631036   1630871  
  8090.000000   1630373   1629549   1628522   1627475   1626575  
  8080.000000   1625922   1625521   1625301   1625143   1624934  
  8070.000000   1624586   1624052   1623315   1622373   1621245  
  8060.000000   1619964   1618599   1617247   1616027   1615040  
  8050.000000   1614347   1613935   1613733   1613623   1613495  
  8040.000000   1613274   1612940   1612514   1612024   1611484  
  8030.000000   1610863   1610112   1609173   1608041   1606760  
  8020.000000   1605433   1604186   1603122   1602303   1601730  
  8010.000000   1601373   1601194   1601177   1601321   1601625  
  8000.000000   1602053   1602510   1602856   1602937   1602652  
  7990.000000   1601987   1601046   1600004   1599061   1598354  
  7980.000000   1597915   1597659   1597433   1597081   1596525  
  7970.000000   1595790   1594992   1594285   1593787   1593532  
  7960.000000   1593457   1593444   1593368   1593163   1592848  
  7950.000000   1592521   1592307   1592314   1592577   1593048  
  7940.000000   1593608   1594103   1594397   1594389   1594047  
  7930.000000   1593384   1592458   1591344   1590137   1588930  
  7920.000000   1587822   1586902   1586240   1585882   1585834  
  7910.000000   1586079   1586571   1587266   1588111   1589061  
  7900.000000   1590068   1591068   1591992   1592748   1593261  
  7890.000000   1593459   1593318   1592847   1592110   1591202  
  7880.000000   1590247   1589378   1588712   1588348   1588334  
  7870.000000   1588667   1589274   1590034   1590778   1591346  
  7860.000000   1591608   1591514   1591099   1590475   1589800  
  7850.000000   1589224   1588849   1588695   1588714   1588801  
  7840.000000   1588845   1588761   1588518   1588134   1587661  
  7830.000000   1587165   1586695   1586292   1585969   1585753  
  7820.000000   1585664   1585741   1586011   1586478   1587101  
  7810.000000   1587788   1588405   1588799   1588837   1588436  
  7800.000000   1587585   1586349   1584856   1583271   1581766  
  7790.000000   1580489   1579537   1578951   1578703   1578719  
  7780.000000   1578880   1579067   1579168   1579114   1578882  
  7770.000000   1578496   1578013   1577496   1576990   1576500  
  7760.000000   1575998   1575425   1574724   1573868   1572879  
  7750.000000   1571824   1570806   1569923   1569237   1568750  
  7740.000000   1568400   1568085   1567695   1567158   1566467  
  7730.000000   1565687   1564936   1564345   1564016   1563980  
  7720.000000   1564187   1564514   1564811   1564932   1564791  
  7710.000000   1564369   1563719   1562937   1562130   1561389  
  7700.000000   1560771   1560296   1559966   1559765   1559677  
  7690.000000   1559675   1559718   1559748   1559690   1559478  
  7680.000000   1559078   1558511   1557859   1557245   1556802  
  7670.000000   1556617   1556708   1556999   1557353   1557607  
  7660.000000   1557629   1557361   1556840   1556177   1555532  
  7650.000000   1555043   1554804   1554827   1555062   1555405  
  7640.000000   1555753   1556023   1556184   1556256   1556303  
  7630.000000   1556415   1556677   1557144   1557826   1558680  
  7620.000000   1559626   1560565   1561409   1562099   1562616  
  7610.000000   1562978   1563219   1563370   1563439   1563407  
  7600.000000   1563252   1562959   1562553   1562092   1561663  
  7590.000000   1561350   1561205   1561227   1561365   1561543  
  7580.000000   1561701   1561817   1561932   1562125   1562492  
  7570.000000   1563101   1563969   1565051   1566263   1567503  
  7560.000000   1568691   1569773   1570737   1571579   1572312  
  7550.000000   1572937   1573465   1573909   1574305   1574704  
  7540.000000   1575168   1575753   1576495   1577404   1578467  
  7530.000000   1579660   1580954   1582329   1583764   1585236  
  7520.000000   1586714   1588155   1589526   1590798   1591978  
  7510.000000   1593081   1594145   1595195   1596244   1597288  
  7500.000000   1598321   1599349   1600412   1601572   1602902  
  7490.000000   1604457   1606244   1608214   1610267   1612279  
  7480.000000   1614149   1615817   1617292   1618623   1619895  
  7470.000000   1621175   1622518   1623937   1625436   1627005  
  7460.000000   1628653   1630394   1632252   1634236   1636338  
  7450.000000   1638526   1640760   1643003   1645244   1647490  
  7440.000000   1649777   1652137   1654593   1657138   1659740  
  7430.000000   1662342   1664890   1667338   1669670   1671893  
  7420.000000   1674035   1676127   1678195   1680251   1682289  
  7410.000000   1684297   1686262   1688183   1690074   1691964  
  7400.000000   1693888   1695885   1697977   1700177   1702474  
  7390.000000   1704847   1707260   1709674   1712049   1714350  
  7380.000000   1716550   1718633   1720605   1722486   1724310  
  7370.000000   1726116   1727938   1729795   1731683   1733584  
  7360.000000   1735471   1737330   1739165   1741002   1742883  
  7350.000000   1744843   1746895   1749013   1751138   1753197  
  7340.000000   1755128   1756910   1758569   1760177   1761818  
  7330.000000   1763577   1765498   1767583   1769791   1772053  
  7320.000000   1774290   1776431   1778417   1780208   1781782  
  7310.000000   1783141   1784309   1785345   1786331   1787363  
  7300.000000   1788524   1789873   1791410   1793092   1794829  
  7290.000000   1796516   1798058   1799394   1800508   1801421  
  7280.000000   1802186   1802863   1803517   1804197   1804947  
  7270.000000   1805792   1806754   1807844   1809069   1810425  
  7260.000000   1811905   1813492   1815164   1816882   1818612  
  7250.000000   1820304   1821929   1823456   1824903   1826294  
  7240.000000   1827699   1829179   1830802   1832595   1834571  
  7230.000000   1836701   1838962   1841322   1843782   1846335  
  7220.000000   1848994   1851744   1854568   1857422   1860285  
  7210.000000   1863142   1866031   1869003   1872135   1875465  
  7200.000000   1879001   1882682   1886432   1890151   1893793  
  7190.000000   1897341   1900851   1904383   1908009   1911741  
  7180.000000   1915562   1919403   1923214   1926964   1930703  
  7170.000000   1934516   1938534   1942851   1947524   1952513  
  7160.000000   1957728   1963027   1968300   1973465   1978526  
  7150.000000   1983524   1988558   1993709   1999058   2004621  
  7140.000000   2010389   2016299   2022291   2028293   2034271  
  7130.000000   2040200   2046097   2051975   2057881   2063832  
  7120.000000   2069865   2075977   2082178   2088445   2094774  
  7110.000000   2101150   2107590   2114117   2120789   2127662  
  7100.000000   2134800   2142232   2149956   2157901   2165959  
  7090.000000   2173982   2181839   2189423   2196708   2203723  
  7080.000000   2210570   2217359   2224199   2231144   2238200  
  7070.000000   2245321   2252452   2259545   2266590   2273613  
  7060.000000   2280655   2287759   2294945   2302205   2309511  
  7050.000000   2316826   2324114   2331352   2338520   2345604  
  7040.000000   2352584   2359455   2366219   2372910   2379573  
  7030.000000   2386268   2393019   2399818   2406592   2413249  
  7020.000000   2419682   2425843   2431731   2437429   2443039  
  7010.000000   2448669   2454362   2460109   2465823   2471412  
  7000.000000   2476781   2481901   2486782   2491492   2496094  
  6990.000000   2500656   2505204   2509754   2514293   2518817  
  6980.000000   2523307   2527757   2532130   2536399   2540510  
  6970.000000   2544441   2548172   2551737   2555169   2558531  
  6960.000000   2561851   2565149   2568399   2571570   2574608  
  6950.000000   2577480   2580151   2582618   2584877   2586962  
  6940.000000   2588911   2590808   2592734   2594788   2597023  
  6930.000000   2599460   2602043   2604679   2607241   2609630  
  6920.000000   2611780   2613692   2615401   2616966   2618425  
  6910.000000   2619792   2621052   2622185   2623185   2624082  
  6900.000000   2624924   2625781   2626701   2627711   2628800  
  6890.000000   2629943   2631102   2632257   2633393   2634507  
  6880.000000   2635589   2636629   2637608   2638519   2639369  
  6870.000000   2640188   2641014   2641886   2642823   2643821  
  6860.000000   2644854   2645895   2646915   2647907   2648869  
  6850.000000   2649807   2650721   2651609   2652464   2653293  
  6840.000000   2654113   2654949   2655815   2656703   2657571  
  6830.000000   2658358   2659000   2659469   2659779   2660000  
  6820.000000   2660219   2660523   2660948   2661483   2662061  
  6810.000000   2662604   2663038   2663330   2663480   2663517  
  6800.000000   2663474   2663375   2663231   2663047   2662831  
  6790.000000   2662606   2662396   2662226   2662099   2662006  
  6780.000000   2661918   2661822   2661713   2661616   2661560  
  6770.000000   2661567   2661626   2661696   2661710   2661606  
  6760.000000   2661343   2660922   2660372   2659742   2659073  
  6750.000000   2658387   2657686   2656962   2656212   2655449  
  6740.000000   2654693   2653968   2653282   2652636   2652019  
  6730.000000   2651435   2650901   2650455   2650128   2649934  
  6720.000000   2649836   2649759   2649602   2649278   2648741  
  6710.000000   2648011   2647158   2646273   2645435   2644681  
  6700.000000   2643999   2643346   2642668   2641928   2641111  
  6690.000000   2640227   2639287   2638308   2637294   2636260  
  6680.000000   2635224   2634225   2633298   2632468   2631721  
  6670.000000   2631013   2630264   2629400   2628368   2627165  
  6660.000000   2625823   2624402   2622953   2621507   2620058  
  6650.000000   2618590   2617084   2615546   2614002   2612495  
  6640.000000   2611053   2609688   2608374   2607074   2605742  
  6630.000000   2604350   2602889   2601371   2599810   2598217  
  6620.000000   2596593   2594940   2593262   2591581   2589926  
  6610.000000   2588323   2586781   2585285   2583793   2582264  
  6600.000000   2580662   2578987   2577259   2575518   2573796  
  6590.000000   2572110   2570448   2568787   2567103   2565387  
  6580.000000   2563651   2561915   2560202   2558518   2556852  
  6570.000000   2555185   2553499   2551793   2550085   2548406  
  6560.000000   2546788   2545253   2543806   2542436   2541128  
  6550.000000   2539866   2538641   2537442   2536256   2535063  
  6540.000000   2533839   2532563   2531233   2529859   2528468  
  6530.000000   2527084   2525724   2524382   2523041   2521681  
  6520.000000   2520301   2518917   2517568   2516298   2515138  
  6510.000000   2514095   2513143   2512243   2511350   2510438  
  6500.000000   2509500   2508548   2507595   2506648   2505697  
  6490.000000   2504721   2503694   2502605   2501457   2500272  
  6480.000000   2499081   2497911   2496776   2495677   2494602  
  6470.000000   2493540   2492476   2491408   2490337   2489271  
  6460.000000   2488218   2487187   2486183   2485203   2484243  
  6450.000000   2483288   2482324   2481340   2480337   2479327  
  6440.000000   2478341   2477407   2476548   2475759   2475019  
  6430.000000   2474282   2473512   2472686   2471820   2470958  
  6420.000000   2470161   2469481   2468941   2468521   2468174  
  6410.000000   2467834   2467451   2466996   2466474   2465906  
  6400.000000   2465320   2464735   2464158   2463585   2463013  
  6390.000000   2462445   2461890   2461359   2460860   2460393  
  6380.000000   2459952   2459534   2459145   2458798   2458512  
  6370.000000   2458296   2458136   2457995   2457817   2457546  
  6360.000000   2457144   2456601   2455941   2455207   2454441  
  6350.000000   2453679   2452932   2452203   2451484   2450777  
  6340.000000   2450085   2449417   2448774   2448146   2447508  
  6330.000000   2446833   2446094   2445282   2444403   2443479  
  6320.000000   2442535   2441593   2440661   2439745   2438834  
  6310.000000   2437926   2437011   2436087   2435142   2434166  
  6300.000000   2433139   2432049   2430883   2429648   2428352  
  6290.000000   2427013   2425646   2424261   2422858   2421437  
  6280.000000   2419990   2418517   2417016   2415491   2413943  
  6270.000000   2412376   2410790   2409194   2407586   2405973  
  6260.000000   2404343   2402684   2400969   2399180   2397303  
  6250.000000   2395351   2393351   2391346   2389373   2387454  
  6240.000000   2385580   2383720   2381828   2379872   2377835  
  6230.000000   2375733   2373603   2371488   2369426   2367436  
  6220.000000   2365518   2363662   2361848   2360061   2358286  
  6210.000000   2356511   2354724   2352916   2351083   2349238  
  6200.000000   2347401   2345600   2343859   2342183   2340554  
  6190.000000   2338933   2337279   2335558   2333765   2331919  
  6180.000000   2330057   2328216   2326419   2324669   2322951  
  6170.000000   2321252   2319570   2317919   2316328   2314825  
  6160.000000   2313421   2312102   2310831   2309555   2308231  
  6150.000000   2306833   2305360   2303832   2302280   2300731  
  6140.000000   2299205   2297711   2296251   2294824   2293432  
  6130.000000   2292073   2290752   2289470   2288234   2287058  
  6120.000000   2285959   2284955   2284058   2283257   2282521  
  6110.000000   2281797   2281030   2280169   2279199   2278130  
  6100.000000   2277011   2275899   2274856   2273920   2273107  
  6090.000000   2272406   2271799   2271256   2270759   2270289  
  6080.000000   2269845   2269418   2269017   2268640   2268304  
  6070.000000   2268015   2267793   2267637   2267554   2267528  
  6060.000000   2267556   2267622   2267732   2267889   2268115  
  6050.000000   2268416   2268810   2269291   2269870   2270542  
  6040.000000   2271325   2272226   2273271   2274455   2275778  
  6030.000000   2277203   2278701   2280230   2281773   2283322  
  6020.000000   2284899   2286521   2288214   2289974   2291795  
  6010.000000   2293640   2295484   2297292   2299059   2300777  
  6000.000000   2302469   2304153   2305868   2307642   2309516  
  5990.000000   2311515   2313663   2315960   2318403   2320962  
  5980.000000   2323618   2326339   2329120   2331953   2334854  
  5970.000000   2337823   2340872   2343986   2347162   2350378  
  5960.000000   2353632   2356915   2360236   2363586   2366966  
  5950.000000   2370358   2373753   2377143   2380543   2383977  
  5940.000000   2387486   2391106   2394856   2398729   2402695  
  5930.000000   2406705   2410706   2414656   2418527   2422307  
  5920.000000   2425991   2429578   2433063   2436439   2439696  
  5910.000000   2442831   2445844   2448744   2451536   2454240  
  5900.000000   2456869   2459454   2462022   2464612   2467248  
  5890.000000   2469952   2472715   2475519   2478325   2481098  
  5880.000000   2483811   2486452   2489020   2491519   2493949  
  5870.000000   2496299   2498556   2500708   2502758   2504727  
  5860.000000   2506657   2508591   2510571   2512622   2514752  
  5850.000000   2516957   2519231   2521571   2523978   2526454  
  5840.000000   2528999   2531599   2534233   2536876   2539511  
  5830.000000   2542125   2544722   2547303   2549872   2552422  
  5820.000000   2554937   2557403   2559807   2562151   2564436  
  5810.000000   2566676   2568863   2570998   2573054   2575028  
  5800.000000   2576901   2578699   2580426   2582121   2583776  
  5790.000000   2585394   2586922   2588319   2589504   2590426  
  5780.000000   2591009   2591211   2590973   2590274   2589097  
  5770.000000   2587480   2585488   2583247   2580889   2578561  
  5760.000000   2576363   2574369   2572582   2570989   2569545  
  5750.000000   2568225   2567009   2565900   2564902   2564014  
  5740.000000   2563226   2562510   2561845   2561207   2560593  
  5730.000000   2559998   2559436   2558902   2558397   2557907  
  5720.000000   2557425   2556943   2556466   2556000   2555559  
  5710.000000   2555152   2554789   2554472   2554209   2554006  
  5700.000000   2553866   2553786   2553751   2553737   2553713  
  5690.000000   2553659   2553563   2553443   2553319   2553227  
  5680.000000   2553180   2553180   2553195   2553181   2553075  
  5670.000000   2552826   2552379   2551702   2550771   2549583  
  5660.000000   2548152   2546517   2544735   2542885   2541037  
  5650.000000   2539257   2537569   2535982   2534465   2532993  
  5640.000000   2531539   2530100   2528686   2527319   2526013  
  5630.000000   2524768   2523572   2522400   2521236   2520070  
  5620.000000   2518914   2517783   2516697   2515666   2514687  
  5610.000000   2513750   2512839   2511942   2511053   2510165  
  5600.000000   2509274   2508367   2507435   2506468   2505467  
  5590.000000   2504443   2503416   2502406   2501424   2500471  
  5580.000000   2499532   2498590   2497630   2496647   2495640  
  5570.000000   2494616   2493575   2492516   2491426   2490298  
  5560.000000   2489127   2487916   2486674   2485412   2484133  
  5550.000000   2482837   2481518   2480178   2478826   2477487  
  5540.000000   2476193   2474970   2473827   2472756   2471727  
  5530.000000   2470705   2469660   2468575   2467451   2466300  
  5520.000000   2465141   2463987   2462846   2461717   2460594  
  5510.000000   2459471   2458334   2457171   2455965   2454706  
  5500.000000   2453386   2452020   2450633   2449263   2447939  
  5490.000000   2446680   2445469   2444273   2443040   2441733  
  5480.000000   2440325   2438824   2437248   2435627   2433978  
  5470.000000   2432307   2430605   2428867   2427089   2425283  
  5460.000000   2423463   2421640   2419807   2417950   2416042  
  5450.000000   2414074   2412051   2410011   2408002   2406074  
  5440.000000   2404257   2402547   2400923   2399347   2397792  
  5430.000000   2396240   2394692   2393145   2391602   2390046  
  5420.000000   2388481   2386911   2385384   2383953   2382700  
  5410.000000   2381668   2380881   2380297   2379872   2379536  
  5400.000000   2379269   2379062   2378963   2379005   2379233  
  5390.000000   2379639   2380215   2380912   2381720   2382623  
  5380.000000   2383660   2384851   2386242   2387820   2389590  
  5370.000000   2391500   2393545   2395687   2397959   2400350  
  5360.000000   2402916   2405647   2408596   2411752   2415190  
  5350.000000   2418921   2423043   2427569   2432575   2438024  
  5340.000000   2443954   2450295   2457093   2464302   2471996  
  5330.000000   2480138   2488793   2497896   2507494   2517520  
  5320.000000   2528063   2539112   2550818   2563198   2576405  
  5310.000000   2590406   2605281   2620926   2637375   2654519  
  5300.000000   2672419   2691023   2710452   2730705   2751923  
  5290.000000   2774088   2797275   2821369   2846327   2871953  
  5280.000000   2898167   2924833   2951983   2979626   3007900  
  5270.000000   3036848   3066507   3096758   3127416   3158232  
  5260.000000   3188987   3219561   3249930   3280176   3310365  
  5250.000000   3340544   3370601   3400388   3429611   3458095  
  5240.000000   3485634   3512265   3537992   3563021   3587413  
  5230.000000   3611332   3634708   3657544   3679631   3700912  
  5220.000000   3721202   3740549   3758908   3776460   3793238  
  5210.000000   3809427   3824992   3839993   3854265   3867787  
  5200.000000   3880390   3892129   3902953   3913022   3922340  
  5190.000000   3931052   3939097   3946534   3953249   3959287  
  5180.000000   3964574   3969212   3973174   3976568   3979347  
  5170.000000   3981574   3983176   3984213   3984647   3984576  
  5160.000000   3983990   3982981   3981508   3979617   3977243  
  5150.000000   3974435   3971172   3967546   3963573   3959343  
  5140.000000   3954844   3950113   3945102   3939832   3934275  
  5130.000000   3928485   3922473   3916308   3909997   3903581  
  5120.000000   3897048   3890419   3883686   3876879   3870001  
  5110.000000   3863082   3856120   3849131   3842110   3835076  
  5100.000000   3828039   3821033   3814072   3807179   3800349  
  5090.000000   3793575   3786838   3780130   3773438   3766769  
  5080.000000   3760120   3753487   3746851   3740191   3733475  
  5070.000000   3726692   3719837   3712927   3705983   3699035  
  5060.000000   3692090   3685158   3678219   3671265   3664270  
  5050.000000   3657229   3650129   3642974   3635759   3628486  
  5040.000000   3621151   3613759   3606311   3598818   3591294  
  5030.000000   3583752   3576207   3568674   3561169   3553706  
  5020.000000   3546305   3538978   3531743   3524603   3517567  
  5010.000000   3510628   3503795   3497060   3490445   3483949  
  5000.000000   3477600   3471397   3465366   3459497   3453815  
  4990.000000   3448310   3443014   3437924   3433079   3428470  
  4980.000000   3424131   3420039   3416219   3412638   3409326  
  4970.000000   3406260   3403482   3400980   3398806   3396947  
  4960.000000   3395451   3394296   3393522   3393092   3393040  
  4950.000000   3393319   3393955   3394899   3396179   3397753  
  4940.000000   3399665   3401891   3404487   3407432   3410778  
  4930.000000   3414491   3418602   3423063   3427895   3433049  
  4920.000000   3438549   3444359   3450509   3456970   3463772  
  4910.000000   3470882   3478322   3486055   3494085   3502367  
  4900.000000   3510887   3519597   3528475   3537481   3546598  
  4890.000000   3555801   3565068   3574370   3583657   3592882  
  4880.000000   3601969   3610866   3619496   3627827   3635799  
  4870.000000   3643402   3650589   3657362   3663683   3669576  
  4860.000000   3675023   3680075   3684733   3689063   3693068  
  4850.000000   3696807   3700278   3703528   3706554   3709400  
  4840.000000   3712064   3714586   3716960   3719220   3721364  
  4830.000000   3723428   3725419   3727373   3729298   3731215  
  4820.000000   3733113   3734990   3736822   3738604   3740324  
  4810.000000   3741992   3743614   3745206   3746776   3748332  
  4800.000000   3749875   3751408   3752936   3754471   3756023  
  4790.000000   3757606   3759223   3760880   3762570   3764295  
  4780.000000   3766048   3767833   3769640   3771462   3773272  
  4770.000000   3775042   3776734   3778323   3779786   3781127  
  4760.000000   3782347   3783472   3784503   3785453   3786306  
  4750.000000   3787056   3787674   3788154   3788478   3788652  
  4740.000000   3788669   3788544   3788275   3787882   3787370  
  4730.000000   3786761   3786065   3785301   3784474   3783595  
  4720.000000   3782661   3781680   3780658   3779613   3778569  
  4710.000000   3777555   3776603   3775734   3774972   3774325  
  4700.000000   3773804   3773412   3773156   3773039   3773072  
  4690.000000   3773254   3773592   3774074   3774693   3775420  
  4680.000000   3776228   3777068   3777902   3778678   3779370  
  4670.000000   3779950   3780427   3780811   3781144   3781455  
  4660.000000   3781796   3782192   3782686   3783302   3784074  
  4650.000000   3785024   3786180   3787552   3789144   3790939  
  4640.000000   3792913   3795033   3797268   3799594   3801992  
  4630.000000   3804448   3806944   3809453   3811940   3814359  
  4620.000000   3816658   3818789   3820707   3822386   3823805  
  4610.000000   3824966   3825879   3826583   3827113   3827536  
  4600.000000   3827897   3828260   3828646   3829081   3829541  
  4590.000000   3830014   3830449   3830821   3831080   3831213  
  4580.000000   3831185   3830990   3830605   3830032   3829263  
  4570.000000   3828318   3827210   3825974   3824633   3823217  
  4560.000000   3821738   3820211   3818629   3817001   3815320  
  4550.000000   3813597   3811835   3810048   3808247   3806449  
  4540.000000   3804673   3802940   3801280   3799709   3798246  
  4530.000000   3796882   3795613   3794405   3793252   3792126  
  4520.000000   3791059   3790058   3789190   3788475   3787984  
  4510.000000   3787715   3787726   3788001   3788608   3789546  
  4500.000000   3790914   3792726   3795085   3797990   3801521  
  4490.000000   3805649   3810442   3815868   3822003   3828820  
  4480.000000   3836392   3844678   3853718   3863436   3873836  
  4470.000000   3884816   3896361   3908365   3920812   3933604  
  4460.000000   3946726   3960089   3973675   3987406   4001258  
  4450.000000   4015164   4029107   4043046   4056983   4070915  
  4440.000000   4084862   4098848   4112880   4126972   4141089  
  4430.000000   4155216   4169278   4183247   4197029   4210604  
  4420.000000   4223874   4236820   4249337   4261402   4272901  
  4410.000000   4283810   4294025   4303538   4312268   4320235  
  4400.000000   4327391   4333788   4339417   4344365   4348666  
  4390.000000   4352447   4355779   4358811   4361630   4364370  
  4380.000000   4367092   4369883   4372765   4375779   4378929  
  4370.000000   4382245   4385739   4389446   4393383   4397571  
  4360.000000   4402007   4406680   4411554   4416599   4421746  
  4350.000000   4426966   4432180   4437372   4442475   4447506  
  4340.000000   4452418   4457231   4461867   4466251   4470166  
  4330.000000   4473360   4475478   4476203   4475266   4472591  
  4320.000000   4468281   4462685   4456281   4449649   4443296  
  4310.000000   4437643   4432894   4429120   4426219   4424045  
  4300.000000   4422411   4421174   4420225   4419495   4418954  
  4290.000000   4418570   4418349   4418277   4418388   4418692  
  4280.000000   4419229   4420008   4421026   4422257   4423648  
  4270.000000   4425150   4426691   4428213   4429618   4430797  
  4260.000000   4431585   4431806   4431267   4429830   4427422  
  4250.000000   4424097   4420004   4415400   4410565   4405798  
  4240.000000   4401314   4397274   4393718   4390629   4387914  
  4230.000000   4385472   4383190   4380980   4378779   4376544  
  4220.000000   4374272   4371957   4369637   4367332   4365102  
  4210.000000   4362977   4361021   4359259   4357739   4356464  
  4200.000000   4355454   4354689   4354166   4353842   4353708  
  4190.000000   4353714   4353857   4354093   4354439   4354864  
  4180.000000   4355404   4356039   4356825   4357761   4358925  
  4170.000000   4360342   4362111   4364267   4366905   4370034  
  4160.000000   4373715   4377912   4382651   4387872   4393595  
  4150.000000   4399761   4406402   4413463   4420974   4428875  
  4140.000000   4437194   4445873   4454957   4464408   4474287  
  4130.000000   4484568   4495306   4506459   4518052   4530028  
  4120.000000   4542401   4555124   4568232   4581714   4595629  
  4110.000000   4609982   4624824   4640132   4655902   4672053  
  4100.000000   4688522   4705197   4722004   4738859   4755734  
  4090.000000   4772609   4789503   4806437   4823431   4840514  
  4080.000000   4857685   4874964   4892328   4909783   4927265  
  4070.000000   4944742   4962090   4979237   4996034   5012426  
  4060.000000   5028300   5043659   5058434   5072667   5086297  
  4050.000000   5099383   5111872   5123847   5135271   5146236  
  4040.000000   5156671   5166620   5175946   5184647   5192574  
  4030.000000   5199753   5206085   5211645   5216377   5220353  
  4020.000000   5223489   5225856   5227433   5228312   5228456  
  4010.000000   5228010   5227046   5225586   5223413   5220588  
  4000.000000   5217431  
##END= 
