##TITLE= Sample 013 By ssteindl date Montag, November 19 2018
##JCAMP-DX= 4.24
##DATA TYPE= INFRARED SPECTRUM
##ORIGIN= Exported PE Spectrum Data File
##OWNER= Sandra Steindl
##DATE= 18/11/19
##TIME= 17:38:12.00
##SPECTROMETER/DATA SYSTEM= PERKIN-ELMER Frontier FT-IR/NIR IR
##INSTRUMENT PARAMETERS=
  APODIZATION=stark
  DETECTOR=INGAAS
##RESOLUTION= 16.000000
##DELTAX= -2.000000
##XUNITS= 1/CM
##YUNITS= A
##XFACTOR= 1.00
##YFACTOR= 0.00000011920928955078
##FIRSTX= 10000.00
##LASTX= 4000.00
##NPOINTS= 3001
##FIRSTY= 0.202823
##MAXY= 0.633390
##MINY= 0.177040
##XYDATA= (X++(Y..Y))
 10000.000000   1701403   1699106   1697901   1698847   1701341  
  9990.000000   1703647   1704546   1703737   1701486   1698443  
  9980.000000   1695666   1694225   1694646   1696893   1700560  
  9970.000000   1705156   1710206   1715381   1720434   1725039  
  9960.000000   1728750   1731002   1731314   1729456   1725622  
  9950.000000   1720371   1714510   1708831   1703938   1700195  
  9940.000000   1697725   1696579   1696697   1697995   1700195  
  9930.000000   1702888   1705503   1707508   1708520   1708462  
  9920.000000   1707549   1706188   1704819   1703707   1702932  
  9910.000000   1702366   1701851   1701261   1700551   1699694  
  9900.000000   1698588   1697029   1694782   1691757   1688147  
  9890.000000   1684504   1681542   1679937   1679952   1681372  
  9880.000000   1683522   1685593   1686981   1687496   1687422  
  9870.000000   1687199   1687169   1687204   1686767   1685054  
  9860.000000   1681508   1676117   1669636   1663385   1658815  
  9850.000000   1657043   1658401   1662494   1668282   1674637  
  9840.000000   1680561   1685508   1689281   1691916   1693500  
  9830.000000   1694022   1693448   1691698   1688813   1684857  
  9820.000000   1679962   1674200   1667654   1660493   1653090  
  9810.000000   1646160   1640572   1637235   1636618   1638621  
  9800.000000   1642427   1646820   1650560   1652830   1653475  
  9790.000000   1652939   1651976   1651209   1650879   1650690  
  9780.000000   1650124   1648652   1646184   1643029   1639839  
  9770.000000   1637200   1635343   1634038   1632693   1630763  
  9760.000000   1628039   1624929   1622322   1621309   1622688  
  9750.000000   1626624   1632496   1639085   1644960   1648906  
  9740.000000   1650298   1649144   1646048   1641859   1637486  
  9730.000000   1633601   1630631   1628714   1627794   1627683  
  9720.000000   1628098   1628745   1629320   1629649   1629714  
  9710.000000   1629721   1630061   1631137   1633218   1636217  
  9700.000000   1639660   1642781   1644729   1644954   1643395  
  9690.000000   1640677   1637915   1636428   1637247   1640719  
  9680.000000   1646281   1652520   1657544   1659515   1657222  
  9670.000000   1650475   1640178   1628129   1616502   1607325  
  9660.000000   1601932   1600726   1603135   1607871   1613300  
  9650.000000   1617863   1620397   1620351   1617812   1613423  
  9640.000000   1608189   1603201   1599419   1597404   1597279  
  9630.000000   1598675   1600941   1603325   1605223   1606333  
  9620.000000   1606671   1606485   1606058   1605524   1604817  
  9610.000000   1603661   1601821   1599195   1596027   1592813  
  9600.000000   1590200   1588742   1588691   1589962   1592150  
  9590.000000   1594786   1597466   1600018   1602439   1604811  
  9580.000000   1607135   1609281   1610996   1612019   1612209  
  9570.000000   1611610   1610443   1608981   1607431   1605834  
  9560.000000   1604064   1601937   1599327   1596284   1593027  
  9550.000000   1589876   1587112   1584889   1583182   1581871  
  9540.000000   1580808   1579952   1579351   1579156   1579476  
  9530.000000   1580347   1581655   1583205   1584768   1586148  
  9520.000000   1587197   1587771   1587717   1586826   1584940  
  9510.000000   1581967   1578026   1573402   1568539   1563885  
  9500.000000   1559786   1556395   1553683   1551533   1549867  
  9490.000000   1548735   1548307   1548768   1550171   1552345  
  9480.000000   1554899   1557355   1559330   1560678   1561557  
  9470.000000   1562316   1563374   1564971   1567111   1569472  
  9460.000000   1571592   1572945   1573177   1572143   1569965  
  9450.000000   1566970   1563579   1560289   1557525   1555721  
  9440.000000   1555174   1556114   1558540   1562247   1566763  
  9430.000000   1571425   1575479   1578203   1579076   1577830  
  9420.000000   1574563   1569658   1563782   1557707   1552220  
  9410.000000   1547977   1545381   1544562   1545307   1547210  
  9400.000000   1549708   1552307   1554621   1556466   1557805  
  9390.000000   1558665   1559093   1559043   1558491   1557377  
  9380.000000   1555771   1553808   1551731   1549804   1548253  
  9370.000000   1547247   1546842   1547059   1547853   1549176  
  9360.000000   1550933   1552972   1555059   1556890   1558148  
  9350.000000   1558588   1558120   1556853   1555063   1553112  
  9340.000000   1551350   1550037   1549326   1549256   1549763  
  9330.000000   1550680   1551726   1552553   1552774   1552089  
  9320.000000   1550338   1547635   1544362   1541141   1538656  
  9310.000000   1537422   1537620   1539007   1541041   1543006  
  9300.000000   1544242   1544284   1542973   1540470   1537180  
  9290.000000   1533659   1530484   1528189   1527205   1527791  
  9280.000000   1529956   1533362   1537349   1541047   1543626  
  9270.000000   1544491   1543483   1540885   1537369   1533760  
  9260.000000   1530801   1528947   1528290   1528658   1529736  
  9250.000000   1531278   1533114   1535207   1537497   1539866  
  9240.000000   1542042   1543668   1544412   1544041   1542527  
  9230.000000   1539988   1536693   1532946   1529049   1525293  
  9220.000000   1521948   1519329   1517714   1517312   1518112  
  9210.000000   1519876   1522120   1524243   1525646   1525920  
  9200.000000   1524959   1522967   1520398   1517754   1515507  
  9190.000000   1513933   1513148   1513033   1513331   1513679  
  9180.000000   1513739   1513242   1512086   1510359   1508382  
  9170.000000   1506632   1505622   1505735   1507087   1509489  
  9160.000000   1512507   1515620   1518387   1520607   1522340  
  9150.000000   1523853   1525431   1527231   1529162   1530917  
  9140.000000   1532068   1532249   1531283   1529270   1526547  
  9130.000000   1523573   1520769   1518419   1516599   1515204  
  9120.000000   1513987   1512666   1511011   1508924   1506465  
  9110.000000   1503863   1501445   1499614   1498707   1498935  
  9100.000000   1500268   1502476   1505176   1507945   1510415  
  9090.000000   1512340   1513616   1514212   1514121   1513276  
  9080.000000   1511623   1509115   1505865   1502110   1498253  
  9070.000000   1494706   1491786   1489614   1488086   1486991  
  9060.000000   1486120   1485443   1485121   1485466   1486769  
  9050.000000   1489146   1492426   1496143   1499679   1502444  
  9040.000000   1504116   1504668   1504389   1503680   1502954  
  9030.000000   1502438   1502159   1501970   1501682   1501176  
  9020.000000   1500451   1499651   1498987   1498690   1498902  
  9010.000000   1499673   1500936   1502539   1504271   1505882  
  9000.000000   1507135   1507835   1507889   1507351   1506419  
  8990.000000   1505436   1504776   1504784   1505641   1507330  
  8980.000000   1509610   1512090   1514313   1515858   1516416  
  8970.000000   1515839   1514166   1511584   1508407   1505019  
  8960.000000   1501831   1499203   1497361   1496393   1496209  
  8950.000000   1496615   1497327   1498107   1498800   1499355  
  8940.000000   1499802   1500160   1500447   1500562   1500385  
  8930.000000   1499755   1498635   1497087   1495335   1493700  
  8920.000000   1492561   1492261   1493013   1494895   1497808  
  8910.000000   1501519   1505649   1509759   1513419   1516273  
  8900.000000   1518110   1518893   1518793   1518112   1517204  
  8890.000000   1516355   1515732   1515339   1515060   1514744  
  8880.000000   1514288   1513704   1513088   1512600   1512344  
  8870.000000   1512346   1512502   1512669   1512729   1512687  
  8860.000000   1512680   1512954   1513759   1515226   1517278  
  8850.000000   1519617   1521819   1523435   1524162   1523883  
  8840.000000   1522748   1521052   1519184   1517464   1516117  
  8830.000000   1515234   1514826   1514862   1515313   1516188  
  8820.000000   1517500   1519265   1521426   1523889   1526511  
  8810.000000   1529150   1531697   1534062   1536206   1538062  
  8800.000000   1539557   1540569   1540985   1540740   1539879  
  8790.000000   1538590   1537184   1536053   1535552   1535920  
  8780.000000   1537163   1539085   1541305   1543396   1544984  
  8770.000000   1545868   1546057   1545756   1545281   1544953  
  8760.000000   1544995   1545479   1546338   1547412   1548537  
  8750.000000   1549590   1550536   1551383   1552162   1552852  
  8740.000000   1553388   1553637   1553494   1552895   1551924  
  8730.000000   1550776   1549757   1549184   1549310   1550288  
  8720.000000   1552115   1554702   1557860   1561421   1565225  
  8710.000000   1569161   1573123   1576966   1580507   1583487  
  8700.000000   1585659   1586785   1586763   1585619   1583576  
  8690.000000   1580997   1578347   1576120   1574734   1574482  
  8680.000000   1575436   1577484   1580325   1583562   1586762  
  8670.000000   1589566   1591763   1593306   1594313   1594992  
  8660.000000   1595599   1596347   1597402   1598835   1600678  
  8650.000000   1602897   1605443   1608214   1611073   1613815  
  8640.000000   1616206   1618020   1619111   1619476   1619286  
  8630.000000   1618876   1618666   1619083   1620436   1622845  
  8620.000000   1626196   1630182   1634362   1638278   1641514  
  8610.000000   1643801   1645036   1645311   1644873   1644082  
  8600.000000   1643340   1642990   1643255   1644167   1645579  
  8590.000000   1647211   1648727   1649855   1650441   1650524  
  8580.000000   1650276   1649980   1649910   1650276   1651171  
  8570.000000   1652578   1654417   1656551   1658831   1661080  
  8560.000000   1663120   1664765   1665865   1666352   1666300  
  8550.000000   1665916   1665522   1665454   1665971   1667162  
  8540.000000   1668900   1670915   1672869   1674518   1675765  
  8530.000000   1676709   1677573   1678591   1679891   1681418  
  8520.000000   1682954   1684171   1684778   1684599   1683680  
  8510.000000   1682246   1680661   1679308   1678501   1678425  
  8500.000000   1679103   1680442   1682278   1684432   1686752  
  8490.000000   1689134   1691527   1693906   1696262   1698564  
  8480.000000   1700763   1702784   1704556   1706031   1707228  
  8470.000000   1708234   1709205   1710314   1711683   1713340  
  8460.000000   1715169   1716952   1718402   1719294   1719531  
  8450.000000   1719201   1718545   1717889   1717524   1717624  
  8440.000000   1718171   1719001   1719864   1720555   1720983  
  8430.000000   1721215   1721436   1721865   1722670   1723878  
  8420.000000   1725370   1726917   1728278   1729269   1729829  
  8410.000000   1730033   1730061   1730143   1730466   1731157  
  8400.000000   1732245   1733687   1735370   1737142   1738824  
  8390.000000   1740231   1741172   1741494   1741094   1739992  
  8380.000000   1738333   1736384   1734481   1732960   1732059  
  8370.000000   1731857   1732226   1732888   1733491   1733733  
  8360.000000   1733447   1732643   1731509   1730326   1729368  
  8350.000000   1728804   1728658   1728820   1729120   1729407  
  8340.000000   1729623   1729824   1730140   1730715   1731610  
  8330.000000   1732773   1734029   1735140   1735894   1736168  
  8320.000000   1735972   1735425   1734703   1733970   1733311  
  8310.000000   1732736   1732187   1731604   1730956   1730275  
  8300.000000   1729617   1729049   1728581   1728174   1727734  
  8290.000000   1727170   1726430   1725535   1724577   1723678  
  8280.000000   1722944   1722415   1722054   1721761   1721423  
  8270.000000   1720951   1720327   1719594   1718846   1718182  
  8260.000000   1717673   1717343   1717169   1717104   1717091  
  8250.000000   1717095   1717087   1717069   1717037   1716997  
  8240.000000   1716935   1716835   1716659   1716362   1715888  
  8230.000000   1715172   1714159   1712816   1711149   1709220  
  8220.000000   1707129   1705010   1702989   1701176   1699639  
  8210.000000   1698406   1697464   1696759   1696197   1695659  
  8200.000000   1694997   1694084   1692829   1691238   1689429  
  8190.000000   1687639   1686169   1685290   1685149   1685684  
  8180.000000   1686621   1687536   1687971   1687574   1686200  
  8170.000000   1683958   1681174   1678290   1675727   1673769  
  8160.000000   1672495   1671789   1671409   1671071   1670535  
  8150.000000   1669661   1668421   1666894   1665220   1663570  
  8140.000000   1662098   1660915   1660075   1659558   1659287  
  8130.000000   1659141   1658991   1658737   1658338   1657823  
  8120.000000   1657263   1656746   1656319   1655970   1655614  
  8110.000000   1655140   1654450   1653513   1652382   1651174  
  8100.000000   1650030   1649040   1648205   1647409   1646459  
  8090.000000   1645147   1643338   1641038   1638416   1635779  
  8080.000000   1633487   1631867   1631106   1631203   1631963  
  8070.000000   1633044   1634054   1634636   1634560   1633755  
  8060.000000   1632317   1630463   1628479   1626639   1625168  
  8050.000000   1624187   1623718   1623685   1623936   1624283  
  8040.000000   1624520   1624486   1624072   1623268   1622152  
  8030.000000   1620870   1619609   1618512   1617658   1617011  
  8020.000000   1616458   1615836   1615013   1613941   1612685  
  8010.000000   1611411   1610326   1609622   1609404   1609668  
  8000.000000   1610309   1611156   1612025   1612756   1613236  
  7990.000000   1613405   1613244   1612781   1612077   1611240  
  7980.000000   1610407   1609722   1609292   1609138   1609175  
  7970.000000   1609218   1609034   1608419   1607269   1605623  
  7960.000000   1603655   1601616   1599757   1598255   1597173  
  7950.000000   1596480   1596084   1595897   1595871   1596009  
  7940.000000   1596334   1596853   1597526   1598246   1598884  
  7930.000000   1599299   1599420   1599220   1598761   1598131  
  7920.000000   1597437   1596765   1596181   1595737   1595473  
  7910.000000   1595440   1595674   1596201   1596991   1597968  
  7900.000000   1598998   1599915   1600559   1600804   1600599  
  7890.000000   1599960   1598988   1597822   1596622   1595536  
  7880.000000   1594667   1594081   1593786   1593769   1593989  
  7870.000000   1594407   1594970   1595625   1596295   1596889  
  7860.000000   1597308   1597458   1597294   1596821   1596120  
  7850.000000   1595315   1594546   1593924   1593506   1593278  
  7840.000000   1593177   1593124   1593054   1592937   1592777  
  7830.000000   1592596   1592416   1592238   1592053   1591853  
  7820.000000   1591643   1591456   1591334   1591324   1591443  
  7810.000000   1591685   1592015   1592400   1592811   1593238  
  7800.000000   1593665   1594046   1594290   1594259   1593812  
  7790.000000   1592845   1591359   1589469   1587401   1585426  
  7780.000000   1583784   1582627   1581973   1581739   1581765  
  7770.000000   1581899   1582019   1582068   1582031   1581918  
  7760.000000   1581735   1581480   1581156   1580774   1580374  
  7750.000000   1579998   1579689   1579451   1579250   1579022  
  7740.000000   1578696   1578233   1577634   1576952   1576256  
  7730.000000   1575615   1575065   1574611   1574232   1573900  
  7720.000000   1573595   1573301   1573004   1572673   1572263  
  7710.000000   1571724   1571026   1570180   1569251   1568341  
  7700.000000   1567568   1567022   1566746   1566724   1566897  
  7690.000000   1567183   1567507   1567801   1568017   1568105  
  7680.000000   1568025   1567734   1567224   1566519   1565700  
  7670.000000   1564879   1564181   1563708   1563509   1563585  
  7660.000000   1563882   1564338   1564889   1565494   1566123  
  7650.000000   1566751   1567340   1567831   1568162   1568275  
  7640.000000   1568145   1567780   1567228   1566555   1565839  
  7630.000000   1565155   1564565   1564119   1563850   1563771  
  7620.000000   1563863   1564081   1564347   1564581   1564716  
  7610.000000   1564721   1564620   1564471   1564354   1564326  
  7600.000000   1564409   1564575   1564774   1564943   1565050  
  7590.000000   1565092   1565110   1565154   1565273   1565485  
  7580.000000   1565776   1566103   1566418   1566678   1566878  
  7570.000000   1567046   1567250   1567578   1568116   1568923  
  7560.000000   1570010   1571322   1572754   1574162   1575409  
  7550.000000   1576389   1577076   1577503   1577773   1577991  
  7540.000000   1578254   1578604   1579045   1579549   1580098  
  7530.000000   1580702   1581406   1582276   1583365   1584690  
  7520.000000   1586217   1587875   1589579   1591256   1592869  
  7510.000000   1594409   1595887   1597303   1598654   1599925  
  7500.000000   1601116   1602245   1603367   1604537   1605802  
  7490.000000   1607164   1608590   1610015   1611380   1612663  
  7480.000000   1613893   1615141   1616489   1617990   1619652  
  7470.000000   1621429   1623257   1625070   1626849   1628605  
  7460.000000   1630377   1632193   1634062   1635961   1637861  
  7450.000000   1639745   1641634   1643576   1645631   1647822  
  7440.000000   1650124   1652448   1654682   1656724   1658532  
  7430.000000   1660137   1661638   1663163   1664819   1666660  
  7420.000000   1668675   1670810   1672993   1675171   1677322  
  7410.000000   1679450   1681572   1683693   1685799   1687860  
  7400.000000   1689847   1691746   1693575   1695374   1697205  
  7390.000000   1699123   1701169   1703353   1705653   1708020  
  7380.000000   1710384   1712667   1714805   1716764   1718554  
  7370.000000   1720233   1721890   1723623   1725507   1727567  
  7360.000000   1729771   1732041   1734278   1736394   1738341  
  7350.000000   1740114   1741741   1743262   1744713   1746118  
  7340.000000   1747494   1748871   1750297   1751840   1753559  
  7330.000000   1755494   1757633   1759920   1762258   1764545  
  7320.000000   1766705   1768694   1770502   1772136   1773602  
  7310.000000   1774905   1776052   1777074   1778040   1779055  
  7300.000000   1780233   1781673   1783404   1785384   1787485  
  7290.000000   1789546   1791408   1792964   1794186   1795113  
  7280.000000   1795835   1796455   1797067   1797735   1798495  
  7270.000000   1799363   1800343   1801445   1802671   1804023  
  7260.000000   1805490   1807049   1808664   1810285   1811863  
  7250.000000   1813341   1814688   1815872   1816913   1817839  
  7240.000000   1818724   1819644   1820689   1821922   1823394  
  7230.000000   1825124   1827121   1829375   1831882   1834613  
  7220.000000   1837532   1840566   1843640   1846657   1849563  
  7210.000000   1852327   1854997   1857647   1860390   1863300  
  7200.000000   1866417   1869707   1873106   1876526   1879918  
  7190.000000   1883267   1886618   1890028   1893564   1897241  
  7180.000000   1901049   1904926   1908825   1912693   1916535  
  7170.000000   1920369   1924252   1928221   1932319   1936547  
  7160.000000   1940911   1945393   1950001   1954730   1959600  
  7150.000000   1964608   1969759   1975029   1980406   1985859  
  7140.000000   1991377   1996935   2002533   2008147   2013779  
  7130.000000   2019412   2025057   2030715   2036415   2042168  
  7120.000000   2047999   2053905   2059891   2065938   2072048  
  7110.000000   2078210   2084439   2090738   2097124   2103596  
  7100.000000   2110165   2116826   2123588   2130448   2137410  
  7090.000000   2144456   2151566   2158697   2165811   2172866  
  7080.000000   2179848   2186750   2193588   2200371   2207111  
  7070.000000   2213800   2220434   2227008   2233543   2240076  
  7060.000000   2246666   2253366   2260218   2267230   2274378  
  7050.000000   2281615   2288883   2296137   2303344   2310501  
  7040.000000   2317609   2324675   2331693   2338641   2345484  
  7030.000000   2352180   2358691   2364994   2371086   2376991  
  7020.000000   2382749   2388422   2394060   2399714   2405398  
  7010.000000   2411120   2416859   2422606   2428346   2434094  
  7000.000000   2439853   2445641   2451433   2457196   2462859  
  6990.000000   2468361   2473641   2478689   2483517   2488178  
  6980.000000   2492712   2497153   2501488   2505693   2509719  
  6970.000000   2513545   2517157   2520583   2523846   2526987  
  6960.000000   2530013   2532942   2535776   2538546   2541288  
  6950.000000   2544067   2546922   2549881   2552919   2555988  
  6940.000000   2559010   2561929   2564699   2567323   2569813  
  6930.000000   2572199   2574491   2576697   2578804   2580812  
  6920.000000   2582720   2584551   2586323   2588060   2589762  
  6910.000000   2591434   2593063   2594659   2596228   2597794  
  6900.000000   2599360   2600921   2602443   2603887   2605216  
  6890.000000   2606422   2607527   2608581   2609638   2610745  
  6880.000000   2611916   2613150   2614426   2615731   2617061  
  6870.000000   2618417   2619788   2621150   2622455   2623649  
  6860.000000   2624695   2625595   2626397   2627186   2628049  
  6850.000000   2629051   2630202   2631468   2632774   2634049  
  6840.000000   2635233   2636306   2637270   2638148   2638960  
  6830.000000   2639721   2640442   2641135   2641812   2642490  
  6820.000000   2643169   2643841   2644478   2645059   2645568  
  6810.000000   2646027   2646466   2646936   2647455   2648014  
  6800.000000   2648557   2649017   2649332   2649487   2649514  
  6790.000000   2649482   2649460   2649492   2649568   2649644  
  6780.000000   2649659   2649579   2649405   2649189   2648989  
  6770.000000   2648857   2648799   2648793   2648789   2648754  
  6760.000000   2648671   2648555   2648425   2648284   2648109  
  6750.000000   2647855   2647478   2646966   2646345   2645681  
  6740.000000   2645042   2644476   2643984   2643536   2643085  
  6730.000000   2642616   2642148   2641739   2641438   2641260  
  6720.000000   2641150   2640999   2640681   2640113   2639296  
  6710.000000   2638320   2637333   2636480   2635844   2635425  
  6700.000000   2635140   2634878   2634537   2634080   2633520  
  6690.000000   2632914   2632310   2631729   2631148   2630521  
  6680.000000   2629799   2628963   2628015   2626981   2625878  
  6670.000000   2624717   2623485   2622180   2620811   2619423  
  6660.000000   2618073   2616824   2615701   2614692   2613737  
  6650.000000   2612760   2611691   2610490   2609155   2607712  
  6640.000000   2606194   2604633   2603048   2601459   2599886  
  6630.000000   2598363   2596921   2595586   2594351   2593189  
  6620.000000   2592048   2590877   2589640   2588327   2586945  
  6610.000000   2585506   2584006   2582424   2580726   2578890  
  6600.000000   2576923   2574872   2572809   2570814   2568944  
  6590.000000   2567217   2565609   2564072   2562555   2561023  
  6580.000000   2559464   2557889   2556315   2554760   2553238  
  6570.000000   2551756   2550320   2548934   2547595   2546285  
  6560.000000   2544973   2543615   2542176   2540644   2539037  
  6550.000000   2537405   2535806   2534287   2532863   2531512  
  6540.000000   2530196   2528874   2527532   2526182   2524860  
  6530.000000   2523599   2522410   2521272   2520150   2519000  
  6520.000000   2517808   2516586   2515377   2514225   2513162  
  6510.000000   2512185   2511270   2510380   2509492   2508603  
  6500.000000   2507733   2506908   2506141   2505419   2504705  
  6490.000000   2503953   2503126   2502216   2501241   2500236  
  6480.000000   2499237   2498262   2497309   2496361   2495398  
  6470.000000   2494407   2493385   2492339   2491273   2490189  
  6460.000000   2489079   2487943   2486788   2485635   2484516  
  6450.000000   2483462   2482489   2481592   2480751   2479934  
  6440.000000   2479117   2478291   2477465   2476658   2475898  
  6430.000000   2475204   2474590   2474057   2473604   2473215  
  6420.000000   2472870   2472534   2472171   2471743   2471231  
  6410.000000   2470638   2469998   2469358   2468772   2468270  
  6400.000000   2467860   2467515   2467198   2466871   2466514  
  6390.000000   2466123   2465711   2465292   2464871   2464450  
  6380.000000   2464027   2463613   2463230   2462914   2462690  
  6370.000000   2462564   2462510   2462475   2462398   2462233  
  6360.000000   2461965   2461613   2461211   2460793   2460367  
  6350.000000   2459918   2459416   2458839   2458188   2457498  
  6340.000000   2456818   2456196   2455647   2455162   2454695  
  6330.000000   2454207   2453667   2453079   2452464   2451853  
  6320.000000   2451260   2450674   2450055   2449365   2448570  
  6310.000000   2447673   2446695   2445675   2444641   2443606  
  6300.000000   2442554   2441466   2440319   2439118   2437872  
  6290.000000   2436607   2435336   2434061   2432764   2431428  
  6280.000000   2430035   2428594   2427116   2425628   2424139  
  6270.000000   2422653   2421152   2419622   2418052   2416450  
  6260.000000   2414830   2413210   2411588   2409945   2408243  
  6250.000000   2406446   2404537   2402528   2400458   2398383  
  6240.000000   2396351   2394389   2392495   2390651   2388833  
  6230.000000   2387028   2385238   2383478   2381762   2380093  
  6220.000000   2378454   2376816   2375146   2373415   2371614  
  6210.000000   2369749   2367842   2365916   2363996   2362098  
  6200.000000   2360236   2358417   2356646   2354924   2353251  
  6190.000000   2351625   2350044   2348508   2347023   2345595  
  6180.000000   2344224   2342905   2341619   2340341   2339044  
  6170.000000   2337704   2336315   2334875   2333396   2331885  
  6160.000000   2330348   2328785   2327197   2325591   2323983  
  6150.000000   2322394   2320844   2319341   2317877   2316429  
  6140.000000   2314975   2313498   2312002   2310506   2309042  
  6130.000000   2307638   2306309   2305048   2303838   2302654  
  6120.000000   2301482   2300312   2299152   2298007   2296886  
  6110.000000   2295786   2294707   2293647   2292616   2291627  
  6100.000000   2290704   2289860   2289105   2288430   2287826  
  6090.000000   2287272   2286759   2286273   2285808   2285347  
  6080.000000   2284874   2284364   2283809   2283207   2282590  
  6070.000000   2281999   2281493   2281109   2280875   2280780  
  6060.000000   2280806   2280909   2281067   2281253   2281471  
  6050.000000   2281722   2282026   2282392   2282842   2283388  
  6040.000000   2284057   2284860   2285817   2286918   2288151  
  6030.000000   2289476   2290865   2292289   2293746   2295238  
  6020.000000   2296789   2298407   2300097   2301831   2303586  
  6010.000000   2305322   2307025   2308684   2310316   2311932  
  6000.000000   2313557   2315193   2316854   2318537   2320264  
  5990.000000   2322047   2323917   2325887   2327973   2330165  
  5980.000000   2332458   2334835   2337305   2339872   2342563  
  5970.000000   2345389   2348361   2351457   2354654   2357908  
  5960.000000   2361195   2364488   2367787   2371088   2374405  
  5950.000000   2377735   2381085   2384451   2387846   2391277  
  5940.000000   2394758   2398295   2401883   2405505   2409135  
  5930.000000   2412750   2416335   2419895   2423440   2426984  
  5920.000000   2430528   2434055   2437532   2440917   2444171  
  5910.000000   2447271   2450210   2453000   2455661   2458218  
  5900.000000   2460697   2463128   2465541   2467974   2470459  
  5890.000000   2473030   2475695   2478459   2481297   2484187  
  5880.000000   2487093   2489985   2492833   2495608   2498284  
  5870.000000   2500837   2503257   2505546   2507732   2509856  
  5860.000000   2511976   2514141   2516387   2518731   2521172  
  5850.000000   2523700   2526307   2528985   2531732   2534541  
  5840.000000   2537396   2540275   2543153   2546010   2548845  
  5830.000000   2551674   2554523   2557416   2560360   2563342  
  5820.000000   2566322   2569254   2572086   2574790   2577341  
  5810.000000   2579743   2581994   2584113   2586100   2587986  
  5800.000000   2589777   2591517   2593212   2594887   2596511  
  5790.000000   2598063   2599467   2600679   2601627   2602282  
  5780.000000   2602605   2602590   2602215   2601487   2600404  
  5770.000000   2599006   2597347   2595522   2593625   2591758  
  5760.000000   2589982   2588341   2586830   2585442   2584157  
  5750.000000   2582977   2581907   2580964   2580155   2579469  
  5740.000000   2578885   2578364   2577881   2577413   2576960  
  5730.000000   2576522   2576110   2575723   2575364   2575026  
  5720.000000   2574718   2574447   2574229   2574073   2573981  
  5710.000000   2573939   2573928   2573928   2573934   2573949  
  5700.000000   2573991   2574072   2574197   2574356   2574528  
  5690.000000   2574696   2574850   2575001   2575161   2575348  
  5680.000000   2575550   2575742   2575867   2575872   2575707  
  5670.000000   2575354   2574812   2574108   2573263   2572299  
  5660.000000   2571217   2570020   2568706   2567296   2565816  
  5650.000000   2564312   2562822   2561380   2560002   2558696  
  5640.000000   2557458   2556287   2555179   2554128   2553124  
  5630.000000   2552149   2551186   2550218   2549245   2548274  
  5620.000000   2547330   2546429   2545588   2544804   2544066  
  5610.000000   2543355   2542658   2541972   2541300   2540652  
  5600.000000   2540032   2539438   2538859   2538282   2537697  
  5590.000000   2537103   2536497   2535881   2535246   2534582  
  5580.000000   2533872   2533110   2532295   2531443   2530568  
  5570.000000   2529680   2528774   2527829   2526815   2525715  
  5560.000000   2524523   2523261   2521966   2520683   2519442  
  5550.000000   2518258   2517126   2516030   2514953   2513889  
  5540.000000   2512837   2511799   2510775   2509753   2508721  
  5530.000000   2507668   2506598   2505524   2504472   2503463  
  5520.000000   2502505   2501591   2500701   2499815   2498920  
  5510.000000   2498018   2497114   2496217   2495315   2494387  
  5500.000000   2493400   2492326   2491155   2489909   2488623  
  5490.000000   2487343   2486091   2484867   2483638   2482363  
  5480.000000   2480999   2479534   2477974   2476354   2474708  
  5470.000000   2473067   2471440   2469824   2468201   2466559  
  5460.000000   2464886   2463178   2461426   2459623   2457760  
  5450.000000   2455832   2453845   2451819   2449788   2447785  
  5440.000000   2445843   2443979   2442204   2440516   2438922  
  5430.000000   2437415   2435992   2434629   2433301   2431964  
  5420.000000   2430600   2429197   2427795   2426448   2425241  
  5410.000000   2424227   2423444   2422863   2422450   2422136  
  5400.000000   2421892   2421692   2421558   2421507   2421579  
  5390.000000   2421778   2422122   2422600   2423232   2424021  
  5380.000000   2425006   2426184   2427572   2429126   2430830  
  5370.000000   2432622   2434503   2436448   2438506   2440679  
  5360.000000   2443032   2445559   2448316   2451293   2454564  
  5350.000000   2458142   2462119   2466501   2471355   2476636  
  5340.000000   2482374   2488499   2495058   2502009   2509429  
  5330.000000   2517281   2525633   2534419   2543688   2553375  
  5320.000000   2563569   2574257   2585580   2597545   2610287  
  5310.000000   2623766   2638061   2653083   2668886   2685392  
  5300.000000   2702684   2720721   2739618   2759353   2780040  
  5290.000000   2801634   2824195   2847613   2871861   2896770  
  5280.000000   2922291   2948301   2974840   3001905   3029620  
  5270.000000   3058016   3087129   3116847   3147010   3177390  
  5260.000000   3207787   3238081   3268234   3298298   3328302  
  5250.000000   3358264   3388056   3417533   3446425   3474588  
  5240.000000   3501845   3528243   3553780   3578634   3602825  
  5230.000000   3626474   3649483   3671848   3693376   3714046  
  5220.000000   3733710   3752449   3770233   3787244   3803502  
  5210.000000   3819180   3834230   3848712   3862460   3875459  
  5200.000000   3887539   3898754   3909041   3918558   3927306  
  5190.000000   3935432   3942886   3949731   3955853   3961292  
  5180.000000   3965963   3969957   3973247   3975945   3978018  
  5170.000000   3979545   3980467   3980851   3980661   3979994  
  5160.000000   3978842   3977306   3975365   3973079   3970402  
  5150.000000   3967378   3963975   3960256   3956211   3951899  
  5140.000000   3947296   3942433   3937274   3931854   3926167  
  5130.000000   3920277   3914210   3908034   3901758   3895417  
  5120.000000   3888996   3882510   3875949   3869339   3862687  
  5110.000000   3856020   3849339   3842656   3835961   3829265  
  5100.000000   3822573   3815910   3809295   3802748   3796270  
  5090.000000   3789851   3783468   3777101   3770731   3764359  
  5080.000000   3757989   3751637   3745307   3739005   3732721  
  5070.000000   3726446   3720160   3713856   3707512   3701125  
  5060.000000   3694675   3688160   3681566   3674898   3668155  
  5050.000000   3661349   3654483   3647564   3640583   3633536  
  5040.000000   3626410   3619207   3611930   3604599   3597235  
  5030.000000   3589864   3582503   3575164   3567853   3560569  
  5020.000000   3553316   3546095   3538919   3531793   3524735  
  5010.000000   3517750   3510856   3504057   3497382   3490838  
  5000.000000   3484456   3478240   3472216   3466372   3460728  
  4990.000000   3455264   3450008   3444949   3440125   3435531  
  4980.000000   3431206   3427130   3423333   3419785   3416517  
  4970.000000   3413504   3410793   3408372   3406291   3404531  
  4960.000000   3403132   3402056   3401331   3400917   3400848  
  4950.000000   3401092   3401695   3402629   3403943   3405608  
  4940.000000   3407668   3410093   3412929   3416141   3419763  
  4930.000000   3423745   3428097   3432754   3437718   3442931  
  4920.000000   3448414   3454135   3460140   3466416   3473008  
  4910.000000   3479902   3487127   3494655   3502499   3510621  
  4900.000000   3519016   3527644   3536485   3545499   3554660  
  4890.000000   3563932   3573284   3582681   3592082   3601448  
  4880.000000   3610725   3619878   3628856   3637637   3646179  
  4870.000000   3654469   3662462   3670140   3677451   3684384  
  4860.000000   3690899   3697018   3702739   3708119   3713181  
  4850.000000   3717996   3722581   3726995   3731236   3735341  
  4840.000000   3739292   3743114   3746785   3750326   3753724  
  4830.000000   3757006   3760173   3763256   3766259   3769208  
  4820.000000   3772096   3774934   3777703   3780406   3783028  
  4810.000000   3785577   3788047   3790448   3792779   3795049  
  4800.000000   3797258   3799419   3801541   3803647   3805752  
  4790.000000   3807875   3810020   3812187   3814358   3816522  
  4780.000000   3818658   3820762   3822826   3824860   3826863  
  4770.000000   3828843   3830791   3832703   3834557   3836344  
  4760.000000   3838039   3839635   3841105   3842448   3843638  
  4750.000000   3844677   3845547   3846256   3846794   3847181  
  4740.000000   3847414   3847518   3847494   3847366   3847132  
  4730.000000   3846808   3846381   3845854   3845207   3844436  
  4720.000000   3843528   3842493   3841339   3840100   3838805  
  4710.000000   3837494   3836197   3834940   3833736   3832592  
  4700.000000   3831510   3830486   3829520   3828612   3827768  
  4690.000000   3826995   3826310   3825725   3825259   3824918  
  4680.000000   3824703   3824591   3824558   3824552   3824536  
  4670.000000   3824465   3824329   3824121   3823876   3823620  
  4660.000000   3823406   3823260   3823220   3823298   3823514  
  4650.000000   3823874   3824398   3825093   3825976   3827043  
  4640.000000   3828290   3829696   3831239   3832885   3834611  
  4630.000000   3836389   3838198   3840011   3841804   3843546  
  4620.000000   3845204   3846748   3848152   3849400   3850482  
  4610.000000   3851403   3852168   3852796   3853304   3853721  
  4600.000000   3854064   3854369   3854648   3854929   3855212  
  4590.000000   3855509   3855805   3856095   3856351   3856560  
  4580.000000   3856688   3856721   3856637   3856433   3856109  
  4570.000000   3855683   3855172   3854606   3853998   3853362  
  4560.000000   3852693   3851987   3851226   3850404   3849517  
  4550.000000   3848573   3847586   3846577   3845562   3844556  
  4540.000000   3843569   3842605   3841673   3840771   3839916  
  4530.000000   3839104   3838354   3837658   3837039   3836487  
  4520.000000   3836036   3835684   3835481   3835432   3835603  
  4510.000000   3836001   3836698   3837697   3839077   3840832  
  4500.000000   3843044   3845701   3848883   3852573   3856852  
  4490.000000   3861703   3867209   3873347   3880191   3887705  
  4480.000000   3895937   3904835   3914424   3924641   3935495  
  4470.000000   3946910   3958872   3971281   3984088   3997170  
  4460.000000   4010454   4023819   4037194   4050484   4063639  
  4450.000000   4076598   4089338   4101838   4114107   4126167  
  4440.000000   4138051   4149809   4161469   4173081   4184642  
  4430.000000   4196185   4207679   4219142   4230520   4241818  
  4420.000000   4252956   4263917   4274599   4284968   4294915  
  4410.000000   4304407   4313348   4321717   4329436   4336505  
  4400.000000   4342876   4348582   4353626   4358091   4362026  
  4390.000000   4365547   4368726   4371674   4374450   4377143  
  4380.000000   4379800   4382491   4385260   4388173   4391274  
  4370.000000   4394617   4398239   4402175   4406443   4411051  
  4360.000000   4415993   4421248   4426774   4432522   4438413  
  4350.000000   4444383   4450339   4456239   4462016   4467672  
  4340.000000   4473172   4478527   4483671   4488534   4492938  
  4330.000000   4496686   4499511   4501201   4501583   4500645  
  4320.000000   4498496   4495431   4491810   4488066   4484550  
  4310.000000   4481553   4479191   4477496   4476367   4475690  
  4300.000000   4475321   4475167   4475151   4475236   4475402  
  4290.000000   4475624   4475892   4476186   4476510   4476876  
  4280.000000   4477312   4477855   4478525   4479344   4480288  
  4270.000000   4481336   4482414   4483449   4484315   4484886  
  4260.000000   4484996   4484500   4483256   4481203   4478334  
  4250.000000   4474757   4470631   4466195   4461665   4457262  
  4240.000000   4453115   4449315   4445848   4442685   4439736  
  4230.000000   4436930   4434184   4431437   4428635   4425738  
  4220.000000   4422725   4419576   4416317   4412967   4409598  
  4210.000000   4406264   4403055   4400025   4397242   4394726  
  4200.000000   4392510   4390579   4388940   4387555   4386422  
  4190.000000   4385497   4384783   4384239   4383891   4383711  
  4180.000000   4383743   4383970   4384446   4385154   4386160  
  4170.000000   4387457   4389127   4391180   4393703   4396699  
  4160.000000   4400231   4404263   4408822   4413839   4419332  
  4150.000000   4425234   4431581   4438323   4445510   4453098  
  4140.000000   4461139   4469592   4478519   4487891   4497778  
  4130.000000   4508154   4519074   4530491   4542431   4554832  
  4120.000000   4567714   4581032   4594830   4609092   4623873  
  4110.000000   4639150   4654942   4671180   4687824   4704764  
  4100.000000   4721937   4739247   4756661   4774143   4791713  
  4090.000000   4809386   4827196   4845162   4863286   4881560  
  4080.000000   4899945   4918421   4936933   4955462   4973942  
  4070.000000   4992348   5010590   5028641   5046407   5063886  
  4060.000000   5081004   5097784   5114151   5130120   5145587  
  4050.000000   5160560   5174936   5188760   5201956   5214599  
  4040.000000   5226603   5238014   5248698   5258679   5267823  
  4030.000000   5276193   5283706   5290456   5296369   5301499  
  4020.000000   5305704   5309014   5311354   5312790   5313258  
  4010.000000   5312921   5311873   5310172   5307608   5304289  
  4000.000000   5300590  
##END= 
