##TITLE= Sample 022 By ssteindl date Montag, November 19 2018
##JCAMP-DX= 4.24
##DATA TYPE= INFRARED SPECTRUM
##ORIGIN= Exported PE Spectrum Data File
##OWNER= Sandra Steindl
##DATE= 18/11/19
##TIME= 17:49:22.00
##SPECTROMETER/DATA SYSTEM= PERKIN-ELMER Frontier FT-IR/NIR IR
##INSTRUMENT PARAMETERS=
  APODIZATION=stark
  DETECTOR=INGAAS
##RESOLUTION= 16.000000
##DELTAX= -2.000000
##XUNITS= 1/CM
##YUNITS= A
##XFACTOR= 1.00
##YFACTOR= 0.00000011920928955078
##FIRSTX= 10000.00
##LASTX= 4000.00
##NPOINTS= 3001
##FIRSTY= 0.195492
##MAXY= 0.627952
##MINY= 0.170670
##XYDATA= (X++(Y..Y))
 10000.000000   1639904   1639776   1640297   1642006   1644277  
  9990.000000   1645743   1645465   1643243   1639369   1634414  
  9980.000000   1629100   1624037   1619422   1615241   1611532  
  9970.000000   1608684   1607294   1608031   1611113   1616097  
  9960.000000   1621764   1626501   1628849   1627993   1624124  
  9950.000000   1618202   1611614   1605467   1600253   1595738  
  9940.000000   1591303   1586448   1581177   1576165   1572463  
  9930.000000   1571075   1572396   1576017   1580765   1585139  
  9920.000000   1587828   1588090   1585964   1582052   1577301  
  9910.000000   1572599   1568630   1565762   1564134   1563678  
  9900.000000   1564231   1565473   1567024   1568394   1569143  
  9890.000000   1568931   1567650   1565440   1562693   1559921  
  9880.000000   1557689   1556474   1556655   1558453   1561934  
  9870.000000   1566968   1573180   1579960   1586507   1592013  
  9860.000000   1595860   1597819   1598113   1597319   1596160  
  9850.000000   1595258   1594967   1595331   1596117   1596992  
  9840.000000   1597564   1597563   1596796   1595251   1593034  
  9830.000000   1590377   1587598   1585010   1582871   1581238  
  9820.000000   1579944   1578586   1576697   1573986   1570555  
  9810.000000   1567037   1564403   1563718   1565655   1570268  
  9800.000000   1576866   1584239   1591028   1596088   1598807  
  9790.000000   1599113   1597421   1594316   1590393   1586064  
  9780.000000   1581603   1577215   1573128   1569647   1567038  
  9770.000000   1565515   1565056   1565530   1566637   1568107  
  9760.000000   1569670   1571105   1572187   1572637   1572183  
  9750.000000   1570596   1567852   1564167   1560029   1556057  
  9740.000000   1552860   1550826   1550056   1550329   1551238  
  9730.000000   1552285   1553041   1553182   1552532   1551069  
  9720.000000   1548910   1546377   1543933   1542194   1541744  
  9710.000000   1543011   1546084   1550634   1555976   1561181  
  9700.000000   1565339   1567689   1567808   1565565   1561193  
  9690.000000   1555138   1548137   1541056   1534883   1530515  
  9680.000000   1528575   1529243   1532148   1536519   1541373  
  9670.000000   1545924   1549742   1552928   1555864   1559027  
  9660.000000   1562615   1566471   1570123   1573013   1574805  
  9650.000000   1575481   1575359   1574803   1573989   1572681  
  9640.000000   1570294   1566158   1559882   1551702   1542500  
  9630.000000   1533645   1526499   1522065   1520641   1521900  
  9620.000000   1525017   1529053   1533159   1536740   1539444  
  9610.000000   1541060   1541511   1540777   1539052   1536657  
  9600.000000   1534145   1532014   1530655   1530084   1529993  
  9590.000000   1529867   1529234   1527972   1526344   1525012  
  9580.000000   1524672   1525852   1528577   1532421   1536572  
  9570.000000   1540175   1542558   1543419   1542828   1541081  
  9560.000000   1538567   1535580   1532313   1528811   1525067  
  9550.000000   1521026   1516665   1511977   1507041   1502053  
  9540.000000   1497352   1493413   1490735   1489713   1490477  
  9530.000000   1492810   1496192   1499921   1503368   1506132  
  9520.000000   1508180   1509756   1511266   1513032   1515190  
  9510.000000   1517632   1520094   1522291   1524009   1525190  
  9500.000000   1525859   1526118   1526026   1525616   1524868  
  9490.000000   1523739   1522177   1520093   1517385   1513918  
  9480.000000   1509636   1504607   1499130   1493733   1489084  
  9470.000000   1485855   1484501   1485160   1487585   1491286  
  9460.000000   1495671   1500248   1504694   1508845   1512619  
  9450.000000   1515888   1518487   1520187   1520861   1520493  
  9440.000000   1519278   1517510   1515516   1513520   1511589  
  9430.000000   1509695   1507752   1505783   1503868   1502202  
  9420.000000   1500919   1500083   1499595   1499283   1498968  
  9410.000000   1498547   1498024   1497439   1496817   1496069  
  9400.000000   1495041   1493547   1491543   1489173   1486834  
  9390.000000   1485008   1484119   1484305   1485388   1486917  
  9380.000000   1488359   1489304   1489590   1489371   1489025  
  9370.000000   1489013   1489709   1491257   1493567   1496328  
  9360.000000   1499125   1501490   1503004   1503340   1502357  
  9350.000000   1500170   1497153   1493921   1491140   1489408  
  9340.000000   1489003   1489871   1491579   1493515   1495053  
  9330.000000   1495781   1495563   1494517   1492871   1490811  
  9320.000000   1488423   1485670   1482531   1479052   1475472  
  9310.000000   1472141   1469449   1467669   1466865   1466902  
  9300.000000   1467507   1468421   1469470   1470619   1471888  
  9290.000000   1473283   1474714   1475996   1476942   1477429  
  9280.000000   1477515   1477360   1477193   1477114   1477064  
  9270.000000   1476790   1475959   1474303   1471748   1468539  
  9260.000000   1465184   1462354   1460626   1460363   1461577  
  9250.000000   1463969   1466974   1469915   1472165   1473277  
  9240.000000   1473087   1471693   1469428   1466747   1464141  
  9230.000000   1462009   1460580   1459873   1459759   1460033  
  9220.000000   1460513   1461069   1461621   1462101   1462414  
  9210.000000   1462435   1462036   1461143   1459817   1458292  
  9200.000000   1456952   1456208   1456349   1457446   1459341  
  9190.000000   1461700   1464131   1466269   1467879   1468852  
  9180.000000   1469177   1468871   1467940   1466437   1464517  
  9170.000000   1462500   1460826   1459967   1460254   1461769  
  9160.000000   1464220   1467021   1469400   1470681   1470478  
  9150.000000   1468789   1465973   1462600   1459303   1456559  
  9140.000000   1454579   1453297   1452456   1451758   1450954  
  9130.000000   1449980   1448942   1448104   1447736   1448035  
  9120.000000   1449006   1450430   1451916   1452972   1453204  
  9110.000000   1452380   1450556   1448027   1445274   1442787  
  9100.000000   1440938   1439898   1439647   1440012   1440745  
  9090.000000   1441606   1442410   1443030   1443370   1443369  
  9080.000000   1443028   1442423   1441727   1441164   1440968  
  9070.000000   1441272   1442057   1443136   1444226   1445064  
  9060.000000   1445503   1445584   1445478   1445415   1445536  
  9050.000000   1445846   1446207   1446430   1446380   1446058  
  9040.000000   1445611   1445237   1445076   1445096   1445116  
  9030.000000   1444853   1444085   1442758   1441039   1439279  
  9020.000000   1437850   1437059   1437015   1437685   1438918  
  9010.000000   1440562   1442498   1444639   1446860   1448910  
  9000.000000   1450413   1450936   1450162   1448008   1444727  
  8990.000000   1440856   1437099   1434103   1432270   1431680  
  8980.000000   1432110   1433179   1434458   1435630   1436514  
  8970.000000   1437071   1437327   1437327   1437135   1436812  
  8960.000000   1436465   1436197   1436123   1436277   1436625  
  8950.000000   1437049   1437415   1437650   1437774   1437912  
  8940.000000   1438216   1438781   1439571   1440402   1441020  
  8930.000000   1441190   1440832   1440035   1439065   1438223  
  8920.000000   1437750   1437718   1438023   1438448   1438779  
  8910.000000   1438922   1438946   1439061   1439516   1440501  
  8900.000000   1442049   1444036   1446208   1448280   1450017  
  8890.000000   1451292   1452098   1452514   1452653   1452629  
  8880.000000   1452523   1452380   1452225   1452056   1451872  
  8870.000000   1451647   1451357   1450958   1450415   1449715  
  8860.000000   1448881   1447989   1447162   1446554   1446340  
  8850.000000   1446661   1447611   1449189   1451304   1453775  
  8840.000000   1456382   1458901   1461157   1463058   1464621  
  8830.000000   1465931   1467122   1468305   1469547   1470836  
  8820.000000   1472096   1473220   1474114   1474734   1475091  
  8810.000000   1475256   1475318   1475368   1475452   1475580  
  8800.000000   1475715   1475813   1475836   1475794   1475738  
  8790.000000   1475771   1475993   1476497   1477304   1478383  
  8780.000000   1479630   1480918   1482122   1483156   1483990  
  8770.000000   1484631   1485102   1485404   1485522   1485413  
  8760.000000   1485063   1484489   1483790   1483099   1482572  
  8750.000000   1482311   1482350   1482636   1483077   1483592  
  8740.000000   1484170   1484888   1485892   1487324   1489259  
  8730.000000   1491643   1494320   1497053   1499628   1501886  
  8720.000000   1503790   1505384   1506767   1508019   1509200  
  8710.000000   1510330   1511448   1512605   1513887   1515356  
  8700.000000   1517012   1518753   1520397   1521746   1522688  
  8690.000000   1523272   1523727   1524408   1525666   1527716  
  8680.000000   1530529   1533850   1537275   1540412   1543019  
  8670.000000   1545077   1546770   1548374   1550116   1552064  
  8660.000000   1554097   1555974   1557447   1558385   1558838  
  8650.000000   1559024   1559230   1559710   1560583   1561805  
  8640.000000   1563209   1564571   1565707   1566502   1566951  
  8630.000000   1567113   1567104   1567065   1567161   1567578  
  8620.000000   1568513   1570149   1572587   1575799   1579587  
  8610.000000   1583623   1587520   1590935   1593676   1595732  
  8600.000000   1597269   1598523   1599706   1600906   1602082  
  8590.000000   1603097   1603816   1604201   1604361   1604541  
  8580.000000   1605008   1605980   1607496   1609441   1611552  
  8570.000000   1613547   1615228   1616543   1617592   1618553  
  8560.000000   1619587   1620761   1622011   1623200   1624187  
  8550.000000   1624935   1625537   1626209   1627189   1628645  
  8540.000000   1630574   1632781   1634921   1636611   1637565  
  8530.000000   1637670   1637024   1635891   1634620   1633539  
  8520.000000   1632869   1632713   1633061   1633844   1634970  
  8510.000000   1636348   1637904   1639551   1641182   1642663  
  8500.000000   1643877   1644736   1645240   1645463   1645582  
  8490.000000   1645799   1646317   1647282   1648759   1650726  
  8480.000000   1653076   1655651   1658267   1660749   1662940  
  8470.000000   1664734   1666082   1667011   1667606   1668005  
  8460.000000   1668355   1668799   1669431   1670289   1671339  
  8450.000000   1672507   1673684   1674758   1675620   1676177  
  8440.000000   1676367   1676152   1675541   1674595   1673459  
  8430.000000   1672334   1671456   1671049   1671274   1672194  
  8420.000000   1673742   1675758   1678010   1680279   1682380  
  8410.000000   1684210   1685742   1687007   1688064   1688959  
  8400.000000   1689735   1690389   1690909   1691245   1691348  
  8390.000000   1691164   1690663   1689850   1688785   1687595  
  8380.000000   1686455   1685563   1685083   1685108   1685627  
  8370.000000   1686541   1687687   1688912   1690108   1691251  
  8360.000000   1692383   1693576   1694881   1696281   1697686  
  8350.000000   1698946   1699918   1700494   1700642   1700402  
  8340.000000   1699867   1699163   1698405   1697712   1697173  
  8330.000000   1696891   1696929   1697327   1698035   1698933  
  8320.000000   1699826   1700495   1700755   1700500   1699745  
  8310.000000   1698594   1697218   1695775   1694390   1693139  
  8300.000000   1692074   1691262   1690790   1690773   1691281  
  8290.000000   1692315   1693748   1695348   1696834   1697943  
  8280.000000   1698521   1698532   1698072   1697284   1696319  
  8270.000000   1695268   1694182   1693095   1692079   1691259  
  8260.000000   1690784   1690788   1691289   1692194   1693268  
  8250.000000   1694248   1694908   1695167   1695097   1694876  
  8240.000000   1694693   1694651   1694713   1694719   1694456  
  8230.000000   1693761   1692597   1691077   1689415   1687845  
  8220.000000   1686518   1685478   1684642   1683883   1683067  
  8210.000000   1682139   1681103   1680034   1679011   1678106  
  8200.000000   1677340   1676707   1676183   1675726   1675281  
  8190.000000   1674750   1674005   1672898   1671323   1669271  
  8180.000000   1666867   1664367   1662087   1660325   1659248  
  8170.000000   1658857   1658963   1659283   1659514   1659461  
  8160.000000   1659060   1658391   1657593   1656801   1656078  
  8150.000000   1655387   1654626   1653660   1652393   1650778  
  8140.000000   1648837   1646630   1644237   1641746   1639247  
  8130.000000   1636845   1634644   1632755   1631244   1630135  
  8120.000000   1629380   1628886   1628545   1628262   1627991  
  8110.000000   1627707   1627400   1627021   1626484   1625669  
  8100.000000   1624483   1622902   1621025   1619061   1617286  
  8090.000000   1615950   1615183   1614948   1615043   1615177  
  8080.000000   1615063   1614512   1613486   1612075   1610453  
  8070.000000   1608791   1607203   1605727   1604344   1603031  
  8060.000000   1601801   1600725   1599906   1599441   1599361  
  8050.000000   1599600   1599999   1600337   1600400   1600024  
  8040.000000   1599151   1597819   1596167   1594381   1592669  
  8030.000000   1591223   1590180   1589615   1589506   1589754  
  8020.000000   1590181   1590579   1590742   1590532   1589902  
  8010.000000   1588915   1587709   1586454   1585294   1584301  
  8000.000000   1583470   1582725   1581973   1581129   1580161  
  7990.000000   1579077   1577919   1576727   1575527   1574325  
  7980.000000   1573125   1571953   1570873   1569987   1569415  
  7970.000000   1569254   1569547   1570255   1571264   1572402  
  7960.000000   1573478   1574315   1574787   1574830   1574453  
  7950.000000   1573732   1572792   1571795   1570906   1570263  
  7940.000000   1569943   1569941   1570164   1570452   1570609  
  7930.000000   1570463   1569899   1568899   1567543   1565991  
  7920.000000   1564441   1563086   1562075   1561486   1561321  
  7910.000000   1561504   1561911   1562388   1562790   1563007  
  7900.000000   1562992   1562766   1562410   1562043   1561786  
  7890.000000   1561719   1561866   1562182   1562582   1562957  
  7880.000000   1563224   1563332   1563276   1563078   1562764  
  7870.000000   1562350   1561830   1561198   1560461   1559660  
  7860.000000   1558874   1558208   1557753   1557565   1557628  
  7850.000000   1557865   1558146   1558340   1558348   1558130  
  7840.000000   1557716   1557171   1556578   1555996   1555445  
  7830.000000   1554917   1554388   1553853   1553336   1552898  
  7820.000000   1552610   1552531   1552659   1552936   1553236  
  7810.000000   1553406   1553306   1552847   1552025   1550910  
  7800.000000   1549627   1548315   1547085   1545998   1545065  
  7790.000000   1544269   1543584   1543007   1542547   1542224  
  7780.000000   1542037   1541952   1541887   1541740   1541408  
  7770.000000   1540824   1539986   1538949   1537815   1536696  
  7760.000000   1535680   1534810   1534079   1533448   1532862  
  7750.000000   1532287   1531707   1531138   1530605   1530130  
  7740.000000   1529718   1529346   1528976   1528555   1528046  
  7730.000000   1527426   1526705   1525921   1525135   1524416  
  7720.000000   1523825   1523404   1523160   1523066   1523065  
  7710.000000   1523084   1523046   1522890   1522580   1522108  
  7700.000000   1521496   1520786   1520038   1519308   1518648  
  7690.000000   1518082   1517611   1517198   1516790   1516324  
  7680.000000   1515758   1515088   1514360   1513661   1513097  
  7670.000000   1512753   1512667   1512807   1513088   1513384  
  7660.000000   1513583   1513603   1513429   1513104   1512708  
  7650.000000   1512333   1512061   1511944   1512012   1512270  
  7640.000000   1512708   1513298   1513983   1514677   1515270  
  7630.000000   1515649   1515737   1515515   1515048   1514458  
  7620.000000   1513904   1513519   1513376   1513460   1513687  
  7610.000000   1513937   1514103   1514141   1514077   1514003  
  7600.000000   1514031   1514247   1514685   1515304   1516016  
  7590.000000   1516695   1517238   1517569   1517678   1517595  
  7580.000000   1517400   1517180   1517027   1517008   1517170  
  7570.000000   1517528   1518074   1518772   1519580   1520441  
  7560.000000   1521311   1522148   1522934   1523659   1524341  
  7550.000000   1525009   1525713   1526505   1527446   1528571  
  7540.000000   1529901   1531410   1533046   1534715   1536321  
  7530.000000   1537767   1539002   1540017   1540865   1541632  
  7520.000000   1542428   1543347   1544455   1545766   1547253  
  7510.000000   1548859   1550520   1552182   1553821   1555430  
  7500.000000   1557027   1558621   1560219   1561802   1563349  
  7490.000000   1564828   1566232   1567573   1568902   1570278  
  7480.000000   1571771   1573424   1575255   1577242   1579347  
  7470.000000   1581514   1583706   1585895   1588082   1590271  
  7460.000000   1592474   1594690   1596917   1599149   1601396  
  7450.000000   1603683   1606050   1608545   1611206   1614048  
  7440.000000   1617049   1620152   1623278   1626339   1629257  
  7430.000000   1631968   1634441   1636671   1638684   1640530  
  7420.000000   1642279   1644006   1645787   1647687   1649742  
  7410.000000   1651964   1654334   1656813   1659349   1661891  
  7400.000000   1664393   1666829   1669192   1671496   1673778  
  7390.000000   1676086   1678475   1680981   1683621   1686368  
  7380.000000   1689163   1691926   1694583   1697092   1699458  
  7370.000000   1701733   1703993   1706312   1708727   1711227  
  7360.000000   1713755   1716235   1718602   1720827   1722925  
  7350.000000   1724954   1726984   1729081   1731276   1733576  
  7340.000000   1735959   1738406   1740896   1743415   1745944  
  7330.000000   1748455   1750896   1753217   1755367   1757330  
  7320.000000   1759117   1760777   1762360   1763916   1765460  
  7310.000000   1766985   1768459   1769854   1771153   1772373  
  7300.000000   1773543   1774711   1775903   1777136   1778392  
  7290.000000   1779647   1780871   1782045   1783166   1784249  
  7280.000000   1785310   1786370   1787436   1788510   1789587  
  7270.000000   1790659   1791726   1792792   1793868   1794968  
  7260.000000   1796103   1797274   1798476   1799689   1800896  
  7250.000000   1802074   1803225   1804361   1805522   1806751  
  7240.000000   1808103   1809602   1811266   1813065   1814972  
  7230.000000   1816938   1818942   1820962   1823013   1825102  
  7220.000000   1827257   1829490   1831834   1834306   1836955  
  7210.000000   1839811   1842913   1846247   1849778   1853414  
  7200.000000   1857062   1860628   1864084   1867447   1870814  
  7190.000000   1874290   1877992   1881960   1886191   1890587  
  7180.000000   1895040   1899421   1903671   1907766   1911764  
  7170.000000   1915735   1919784   1923983   1928404   1933067  
  7160.000000   1937990   1943145   1948510   1954026   1959646  
  7150.000000   1965309   1970992   1976677   1982402   1988200  
  7140.000000   1994131   2000205   2006425   2012735   2019098  
  7130.000000   2025463   2031842   2038256   2044783   2051474  
  7120.000000   2058378   2065482   2072756   2080125   2087543  
  7110.000000   2094965   2102399   2109857   2117382   2124990  
  7100.000000   2132700   2140496   2148371   2156295   2164259  
  7090.000000   2172237   2180225   2188206   2196183   2204163  
  7080.000000   2212178   2220264   2228469   2236821   2245331  
  7070.000000   2253971   2262695   2271435   2280132   2288737  
  7060.000000   2297228   2305599   2313866   2322055   2330201  
  7050.000000   2338342   2346510   2354726   2362987   2371278  
  7040.000000   2379555   2387786   2395941   2404028   2412059  
  7030.000000   2420074   2428077   2436056   2443938   2451638  
  7020.000000   2459049   2466116   2472814   2479200   2485352  
  7010.000000   2491384   2497375   2503392   2509441   2515523  
  7000.000000   2521592   2527623   2533563   2539388   2545053  
  6990.000000   2550554   2555882   2561074   2566163   2571203  
  6980.000000   2576203   2581152   2585976   2590604   2594951  
  6970.000000   2599004   2602791   2606423   2610006   2613655  
  6960.000000   2617398   2621218   2625011   2628674   2632093  
  6950.000000   2635225   2638060   2640650   2643048   2645324  
  6940.000000   2647508   2649627   2651672   2653636   2655496  
  6930.000000   2657241   2658851   2660337   2661714   2663043  
  6920.000000   2664381   2665804   2667354   2669043   2670828  
  6910.000000   2672638   2674386   2676008   2677466   2678770  
  6900.000000   2679955   2681070   2682164   2683276   2684432  
  6890.000000   2685657   2686962   2688344   2689772   2691190  
  6880.000000   2692525   2693716   2694732   2695600   2696391  
  6870.000000   2697197   2698090   2699089   2700153   2701195  
  6860.000000   2702129   2702911   2703559   2704153   2704788  
  6850.000000   2705543   2706434   2707422   2708430   2709387  
  6840.000000   2710258   2711062   2711842   2712643   2713472  
  6830.000000   2714297   2715053   2715680   2716151   2716491  
  6820.000000   2716758   2717024   2717336   2717713   2718133  
  6810.000000   2718576   2719017   2719466   2719932   2720427  
  6800.000000   2720927   2721390   2721744   2721940   2721948  
  6790.000000   2721791   2721514   2721177   2720815   2720443  
  6780.000000   2720046   2719610   2719126   2718613   2718086  
  6770.000000   2717565   2717037   2716480   2715860   2715166  
  6760.000000   2714421   2713682   2713011   2712458   2712018  
  6750.000000   2711646   2711264   2710805   2710237   2709578  
  6740.000000   2708875   2708185   2707534   2706912   2706276  
  6730.000000   2705581   2704804   2703961   2703089   2702234  
  6720.000000   2701409   2700595   2699740   2698799   2697751  
  6710.000000   2696622   2695463   2694336   2693272   2692263  
  6700.000000   2691261   2690214   2689087   2687890   2686660  
  6690.000000   2685454   2684298   2683186   2682060   2680856  
  6680.000000   2679514   2678021   2676402   2674721   2673036  
  6670.000000   2671391   2669787   2668200   2666585   2664906  
  6660.000000   2663129   2661243   2659239   2657118   2654890  
  6650.000000   2652591   2650275   2648021   2645901   2643969  
  6640.000000   2642223   2640621   2639077   2637505   2635839  
  6630.000000   2634059   2632179   2630237   2628265   2626277  
  6620.000000   2624265   2622214   2620123   2618013   2615919  
  6610.000000   2613881   2611916   2610010   2608117   2606188  
  6600.000000   2604182   2602095   2599952   2597792   2595653  
  6590.000000   2593547   2591466   2589388   2587298   2585195  
  6580.000000   2583099   2581033   2579017   2577050   2575121  
  6570.000000   2573216   2571335   2569493   2567723   2566052  
  6560.000000   2564490   2563012   2561578   2560136   2558656  
  6550.000000   2557131   2555588   2554061   2552579   2551150  
  6540.000000   2549767   2548411   2547079   2545784   2544554  
  6530.000000   2543409   2542347   2541331   2540298   2539183  
  6520.000000   2537950   2536606   2535205   2533828   2532550  
  6510.000000   2531414   2530421   2529535   2528705   2527887  
  6500.000000   2527059   2526214   2525356   2524478   2523560  
  6490.000000   2522572   2521490   2520310   2519052   2517764  
  6480.000000   2516496   2515294   2514182   2513162   2512218  
  6470.000000   2511328   2510466   2509610   2508731   2507801  
  6460.000000   2506788   2505670   2504443   2503127   2501768  
  6450.000000   2500423   2499146   2497977   2496926   2495979  
  6440.000000   2495102   2494257   2493403   2492510   2491554  
  6430.000000   2490527   2489430   2488280   2487111   2485963  
  6420.000000   2484876   2483876   2482966   2482124   2481314  
  6410.000000   2480493   2479632   2478723   2477779   2476825  
  6400.000000   2475894   2475010   2474191   2473445   2472773  
  6390.000000   2472168   2471616   2471090   2470556   2469980  
  6380.000000   2469342   2468644   2467917   2467212   2466580  
  6370.000000   2466050   2465608   2465203   2464753   2464184  
  6360.000000   2463448   2462549   2461535   2460484   2459471  
  6350.000000   2458546   2457721   2456975   2456261   2455537  
  6340.000000   2454763   2453926   2453021   2452067   2451082  
  6330.000000   2450097   2449132   2448214   2447347   2446527  
  6320.000000   2445721   2444890   2443987   2442980   2441853  
  6310.000000   2440621   2439306   2437938   2436527   2435078  
  6300.000000   2433571   2431999   2430351   2428647   2426897  
  6290.000000   2425128   2423336   2421519   2419649   2417710  
  6280.000000   2415689   2413597   2411443   2409244   2406993  
  6270.000000   2404675   2402258   2399725   2397074   2394336  
  6260.000000   2391558   2388800   2386098   2383470   2380894  
  6250.000000   2378347   2375797   2373238   2370673   2368126  
  6240.000000   2365607   2363113   2360619   2358087   2355479  
  6230.000000   2352776   2349982   2347126   2344248   2341386  
  6220.000000   2338565   2335796   2333071   2330375   2327692  
  6210.000000   2325010   2322323   2319633   2316951   2314297  
  6200.000000   2311694   2309165   2306724   2304368   2302078  
  6190.000000   2299814   2297536   2295207   2292814   2290361  
  6180.000000   2287879   2285405   2282977   2280622   2278351  
  6170.000000   2276164   2274050   2271995   2269983   2267994  
  6160.000000   2266008   2264004   2261969   2259897   2257799  
  6150.000000   2255695   2253614   2251574   2249589   2247651  
  6140.000000   2245748   2243865   2241994   2240138   2238313  
  6130.000000   2236531   2234807   2233138   2231518   2229933  
  6120.000000   2228373   2226831   2225316   2223832   2222391  
  6110.000000   2220992   2219640   2218325   2217050   2215809  
  6100.000000   2214608   2213448   2212338   2211278   2210280  
  6090.000000   2209348   2208497   2207730   2207058   2206470  
  6080.000000   2205958   2205497   2205074   2204671   2204297  
  6070.000000   2203959   2203684   2203485   2203383   2203370  
  6060.000000   2203449   2203600   2203822   2204103   2204457  
  6050.000000   2204885   2205411   2206040   2206796   2207676  
  6040.000000   2208689   2209818   2211051   2212359   2213726  
  6030.000000   2215134   2216593   2218115   2219733   2221463  
  6020.000000   2223314   2225261   2227263   2229261   2231208  
  6010.000000   2233068   2234840   2236542   2238212   2239881  
  6000.000000   2241577   2243307   2245073   2246864   2248680  
  5990.000000   2250515   2252370   2254238   2256118   2258002  
  5980.000000   2259898   2261816   2263789   2265846   2268015  
  5970.000000   2270303   2272700   2275174   2277695   2280232  
  5960.000000   2282780   2285340   2287924   2290531   2293154  
  5950.000000   2295760   2298318   2300799   2303199   2305528  
  5940.000000   2307823   2310117   2312446   2314827   2317271  
  5930.000000   2319784   2322374   2325051   2327828   2330704  
  5920.000000   2333661   2336662   2339659   2342602   2345459  
  5910.000000   2348211   2350866   2353438   2355951   2358424  
  5900.000000   2360880   2363343   2365844   2368416   2371087  
  5890.000000   2373874   2376764   2379724   2382703   2385648  
  5880.000000   2388517   2391290   2393963   2396544   2399045  
  5870.000000   2401466   2403810   2406073   2408270   2410424  
  5860.000000   2412575   2414758   2417006   2419330   2421730  
  5850.000000   2424195   2426719   2429305   2431967   2434725  
  5840.000000   2437595   2440578   2443663   2446828   2450044  
  5830.000000   2453287   2456532   2459763   2462957   2466090  
  5820.000000   2469132   2472056   2474835   2477458   2479910  
  5810.000000   2482195   2484301   2486238   2487996   2489603  
  5800.000000   2491066   2492434   2493718   2494954   2496115  
  5790.000000   2497189   2498103   2498818   2499260   2499408  
  5780.000000   2499221   2498700   2497831   2496631   2495109  
  5770.000000   2493317   2491313   2489192   2487044   2484958  
  5760.000000   2482986   2481156   2479461   2477886   2476418  
  5750.000000   2475059   2473829   2472748   2471836   2471089  
  5740.000000   2470493   2470011   2469617   2469282   2469006  
  5730.000000   2468782   2468626   2468532   2468510   2468543  
  5720.000000   2468631   2468761   2468935   2469143   2469388  
  5710.000000   2469661   2469968   2470311   2470709   2471179  
  5700.000000   2471739   2472395   2473135   2473935   2474764  
  5690.000000   2475597   2476421   2477243   2478070   2478913  
  5680.000000   2479758   2480580   2481331   2481968   2482446  
  5670.000000   2482746   2482852   2482771   2482498   2482044  
  5660.000000   2481411   2480627   2479726   2478770   2477813  
  5650.000000   2476912   2476087   2475339   2474638   2473952  
  5640.000000   2473250   2472524   2471779   2471034   2470302  
  5630.000000   2469585   2468878   2468168   2467452   2466738  
  5620.000000   2466044   2465394   2464802   2464274   2463799  
  5610.000000   2463367   2462965   2462589   2462238   2461912  
  5600.000000   2461597   2461271   2460899   2460455   2459918  
  5590.000000   2459293   2458591   2457838   2457046   2456225  
  5580.000000   2455365   2454460   2453500   2452489   2451433  
  5570.000000   2450341   2449212   2448041   2446816   2445534  
  5560.000000   2444202   2442845   2441494   2440181   2438920  
  5550.000000   2437714   2436546   2435400   2434268   2433152  
  5540.000000   2432064   2431013   2429999   2429006   2428012  
  5530.000000   2427000   2425967   2424927   2423907   2422932  
  5520.000000   2422012   2421135   2420274   2419401   2418495  
  5510.000000   2417558   2416603   2415652   2414711   2413770  
  5500.000000   2412802   2411777   2410669   2409481   2408224  
  5490.000000   2406928   2405609   2404273   2402904   2401485  
  5480.000000   2399995   2398435   2396811   2395144   2393437  
  5470.000000   2391692   2389888   2388008   2386035   2383976  
  5460.000000   2381843   2379662   2377448   2375211   2372948  
  5450.000000   2370657   2368345   2366031   2363739   2361490  
  5440.000000   2359290   2357128   2354988   2352853   2350730  
  5430.000000   2348642   2346627   2344709   2342901   2341178  
  5420.000000   2339520   2337893   2336307   2334786   2333392  
  5410.000000   2332170   2331159   2330341   2329687   2329136  
  5400.000000   2328666   2328254   2327933   2327723   2327669  
  5390.000000   2327768   2328026   2328409   2328917   2329536  
  5380.000000   2330306   2331239   2332379   2333712   2335247  
  5370.000000   2336934   2338773   2340725   2342819   2345041  
  5360.000000   2347439   2349998   2352771   2355746   2358999  
  5350.000000   2362540   2366470   2370799   2375611   2380869  
  5340.000000   2386621   2392808   2399486   2406617   2414284  
  5330.000000   2422450   2431191   2440440   2450254   2460564  
  5320.000000   2471461   2482917   2495072   2507911   2521569  
  5310.000000   2535991   2551264   2567295   2584162   2601797  
  5300.000000   2620316   2639698   2660090   2681483   2704003  
  5290.000000   2727593   2752292   2777948   2804493   2831715  
  5280.000000   2859537   2887827   2916631   2945970   2975985  
  5270.000000   3006721   3038199   3070278   3102736   3135288  
  5260.000000   3167667   3199722   3231381   3262708   3293728  
  5250.000000   3324497   3354893   3384812   3413986   3442301  
  5240.000000   3469573   3495866   3521153   3545618   3569251  
  5230.000000   3592186   3614310   3635652   3656026   3675451  
  5220.000000   3693786   3711137   3727458   3742932   3757548  
  5210.000000   3771471   3784628   3797085   3808678   3819421  
  5200.000000   3829159   3837972   3845806   3852824   3859015  
  5190.000000   3864524   3869288   3873381   3876701   3879313  
  5180.000000   3881156   3882341   3882845   3882781   3882102  
  5170.000000   3880877   3879041   3876668   3873734   3870355  
  5160.000000   3866544   3862408   3857927   3853146   3847999  
  5150.000000   3842508   3836625   3830402   3823833   3816992  
  5140.000000   3809882   3802564   3795034   3787346   3779507  
  5130.000000   3771573   3763552   3755482   3747348   3739161  
  5120.000000   3730899   3722579   3714206   3705824   3697454  
  5110.000000   3689126   3680836   3672575   3664314   3656040  
  5100.000000   3647745   3639447   3631167   3622935   3614763  
  5090.000000   3606659   3598609   3590604   3582632   3574695  
  5080.000000   3566796   3558944   3551135   3543362   3535600  
  5070.000000   3527827   3520020   3512168   3504266   3496324  
  5060.000000   3488350   3480359   3472361   3464368   3456389  
  5050.000000   3448431   3440499   3432594   3424714   3416852  
  5040.000000   3409006   3401179   3393383   3385635   3377964  
  5030.000000   3370386   3362919   3355562   3348319   3341176  
  5020.000000   3334141   3327209   3320405   3313732   3307218  
  5010.000000   3300858   3294669   3288630   3282758   3277034  
  5000.000000   3271488   3266113   3260949   3255985   3251257  
  4990.000000   3246748   3242491   3238473   3234741   3231291  
  4980.000000   3228180   3225396   3222984   3220910   3219203  
  4970.000000   3217817   3216779   3216045   3215651   3215561  
  4960.000000   3215818   3216390   3217330   3218614   3220305  
  4950.000000   3222385   3224914   3227858   3231250   3235035  
  4940.000000   3239225   3243758   3248651   3253856   3259403  
  4930.000000   3265254   3271440   3277917   3284710   3291773  
  4920.000000   3299130   3306740   3314624   3322743   3331110  
  4910.000000   3339686   3348482   3357468   3366662   3376048  
  4900.000000   3385639   3395415   3405371   3415469   3425684  
  4890.000000   3435977   3446317   3456674   3467012   3477302  
  4880.000000   3487498   3497566   3507456   3517147   3526601  
  4870.000000   3535820   3544784   3553506   3561964   3570168  
  4860.000000   3578088   3585733   3593074   3600133   3606898  
  4850.000000   3613410   3619675   3625747   3631640   3637410  
  4840.000000   3643060   3648630   3654105   3659502   3664789  
  4830.000000   3669971   3675017   3679934   3684700   3689330  
  4820.000000   3693805   3698136   3702302   3706310   3710138  
  4810.000000   3713796   3717268   3720574   3723707   3726696  
  4800.000000   3729543   3732282   3734921   3737490   3739990  
  4790.000000   3742442   3744831   3747165   3749420   3751600  
  4780.000000   3753683   3755678   3757571   3759371   3761064  
  4770.000000   3762659   3764142   3765525   3766795   3767968  
  4760.000000   3769030   3769987   3770811   3771496   3772005  
  4750.000000   3772331   3772447   3772365   3772076   3771608  
  4740.000000   3770959   3770159   3769200   3768101   3766845  
  4730.000000   3765447   3763891   3762189   3760335   3758348  
  4720.000000   3756228   3754002   3751676   3749275   3746805  
  4710.000000   3744281   3741705   3739087   3736428   3733746  
  4700.000000   3731053   3728374   3725728   3723138   3720612  
  4690.000000   3718159   3715772   3713443   3711157   3708903  
  4680.000000   3706666   3704429   3702178   3699888   3697546  
  4670.000000   3695132   3692649   3690105   3687535   3684976  
  4660.000000   3682484   3680099   3677867   3675805   3673928  
  4650.000000   3672229   3670705   3669344   3668143   3667093  
  4640.000000   3666195   3665438   3664817   3664311   3663907  
  4630.000000   3663575   3663296   3663039   3662782   3662499  
  4620.000000   3662172   3661780   3661314   3660766   3660136  
  4610.000000   3659429   3658658   3657842   3657007   3656183  
  4600.000000   3655398   3654678   3654034   3653472   3652974  
  4590.000000   3652519   3652073   3651609   3651100   3650531  
  4580.000000   3649892   3649183   3648405   3647564   3646667  
  4570.000000   3645727   3644756   3643773   3642789   3641814  
  4560.000000   3640845   3639876   3638892   3637877   3636821  
  4550.000000   3635718   3634570   3633378   3632153   3630896  
  4540.000000   3629628   3628357   3627123   3625949   3624889  
  4530.000000   3623964   3623216   3622637   3622247   3622014  
  4520.000000   3621959   3622062   3622379   3622911   3623748  
  4510.000000   3624900   3626462   3628432   3630902   3633861  
  4500.000000   3637399   3641501   3646257   3651640   3657730  
  4490.000000   3664483   3671967   3680132   3689040   3698637  
  4480.000000   3708981   3720018   3731793   3744243   3757393  
  4470.000000   3771161   3785533   3800401   3815716   3831353  
  4460.000000   3847246   3863283   3879409   3895541   3911644  
  4450.000000   3927662   3943567   3959324   3974913   3990326  
  4440.000000   4005550   4020608   4035486   4050221   4064783  
  4430.000000   4079210   4093451   4107538   4121397   4135047  
  4420.000000   4148381   4161388   4173924   4185950   4197298  
  4410.000000   4207923   4217665   4226496   4234291   4241062  
  4400.000000   4246735   4251377   4254977   4257651   4259444  
  4390.000000   4260508   4260923   4260846   4260369   4259637  
  4380.000000   4258736   4257790   4256883   4256129   4255623  
  4370.000000   4255478   4255799   4256683   4258217   4260440  
  4360.000000   4263379   4266997   4271244   4276022   4281234  
  4350.000000   4286765   4292518   4298410   4304385   4310415  
  4340.000000   4316483   4322581   4328669   4334665   4340419  
  4330.000000   4345720   4350308   4353935   4356401   4357640  
  4320.000000   4357717   4356877   4355451   4353852   4352421  
  4310.000000   4351449   4351047   4351242   4351913   4352933  
  4300.000000   4354127   4355388   4356621   4357789   4358863  
  4290.000000   4359829   4360672   4361378   4361940   4362368  
  4280.000000   4362683   4362932   4363147   4363390   4363679  
  4270.000000   4364055   4364499   4364998   4365464   4365798  
  4260.000000   4365839   4365432   4364411   4362679   4360191  
  4250.000000   4357013   4353271   4349172   4344922   4340732  
  4240.000000   4336744   4333061   4329697   4326641   4323828  
  4230.000000   4321201   4318687   4316232   4313785   4311300  
  4220.000000   4308748   4306101   4303362   4300536   4297672  
  4210.000000   4294811   4292030   4289383   4286936   4284722  
  4200.000000   4282773   4281082   4279646   4278423   4277389  
  4190.000000   4276478   4275668   4274891   4274148   4273398  
  4180.000000   4272682   4271997   4271431   4271016   4270876  
  4170.000000   4271065   4271725   4272908   4274739   4277236  
  4160.000000   4280473   4284406   4289057   4294333   4300230  
  4150.000000   4306648   4313595   4320988   4328863   4337159  
  4140.000000   4345938   4355162   4364906   4375140   4385937  
  4130.000000   4397251   4409127   4421499   4434391   4447734  
  4120.000000   4461556   4475809   4490535   4505704   4521354  
  4110.000000   4537446   4553998   4570954   4588305   4605981  
  4100.000000   4623954   4642153   4660550   4679093   4697773  
  4090.000000   4716571   4735493   4754538   4773704   4792982  
  4080.000000   4812347   4831787   4851261   4870759   4890230  
  4070.000000   4909661   4928978   4948166   4967141   4985906  
  4060.000000   5004390   5022618   5040516   5058103   5075272  
  4050.000000   5092029   5108248   5123954   5139037   5153547  
  4040.000000   5167371   5180549   5192937   5204561   5215275  
  4030.000000   5225132   5234010   5241973   5248905   5254840  
  4020.000000   5259620   5263294   5265805   5267266   5267640  
  4010.000000   5267130   5265843   5263860   5260988   5257358  
  4000.000000   5253346  
##END= 
