##TITLE= Sample 013 By ssteindl date Donnerstag, November 22 2018
##JCAMP-DX= 4.24
##DATA TYPE= INFRARED SPECTRUM
##ORIGIN= Exported PE Spectrum Data File
##OWNER= Sandra Steindl
##DATE= 18/11/22
##TIME= 12:50:59.00
##SPECTROMETER/DATA SYSTEM= PERKIN-ELMER Frontier FT-IR/NIR IR
##INSTRUMENT PARAMETERS=
  APODIZATION=stark
  DETECTOR=INGAAS
##RESOLUTION= 16.000000
##DELTAX= -2.000000
##XUNITS= 1/CM
##YUNITS= A
##XFACTOR= 1.00
##YFACTOR= 0.00000011920928955078
##FIRSTX= 10000.00
##LASTX= 4000.00
##NPOINTS= 3001
##FIRSTY= 0.226548
##MAXY= 0.600482
##MINY= 0.192374
##XYDATA= (X++(Y..Y))
 10000.000000   1900420   1897074   1893610   1889915   1886187  
  9990.000000   1882813   1880215   1878787   1878850   1880408  
  9980.000000   1882940   1885457   1886939   1886682   1884664  
  9970.000000   1881510   1878283   1875968   1875037   1875247  
  9960.000000   1875826   1875901   1875004   1873331   1871635  
  9950.000000   1870809   1871341   1873019   1874974   1876100  
  9940.000000   1875606   1873385   1870094   1866812   1864514  
  9930.000000   1863631   1863829   1864300   1864188   1863124  
  9920.000000   1861429   1859942   1859565   1860691   1862951  
  9910.000000   1865262   1866327   1865150   1861520   1856036  
  9900.000000   1849914   1844475   1840755   1839254   1839932  
  9890.000000   1842432   1846240   1850886   1855873   1860704  
  9880.000000   1864778   1867545   1868664   1868208   1866751  
  9870.000000   1865118   1864114   1864016   1864485   1864586  
  9860.000000   1863218   1859633   1853738   1846352   1838818  
  9850.000000   1832759   1829390   1829320   1832317   1837507  
  9840.000000   1843621   1849278   1853242   1854500   1852431  
  9830.000000   1846816   1838062   1827151   1815691   1805478  
  9820.000000   1798178   1794718   1795107   1798408   1803105  
  9810.000000   1807661   1810952   1812675   1813257   1813682  
  9800.000000   1814993   1817925   1822639   1828700   1835294  
  9790.000000   1841452   1846359   1849444   1850453   1849412  
  9780.000000   1846531   1842212   1836900   1831109   1825280  
  9770.000000   1819764   1814799   1810473   1806794   1803669  
  9760.000000   1800930   1798348   1795612   1792446   1788689  
  9750.000000   1784458   1780271   1776993   1775700   1777297  
  9740.000000   1782160   1789860   1799151   1808291   1815550  
  9730.000000   1819769   1820741   1819209   1816596   1814374  
  9720.000000   1813567   1814314   1815928   1817156   1816764  
  9710.000000   1814010   1808939   1802398   1795630   1789969  
  9700.000000   1786271   1784887   1785546   1787661   1790537  
  9690.000000   1793583   1796388   1798660   1800125   1800494  
  9680.000000   1799471   1796917   1792981   1788158   1783279  
  9670.000000   1779238   1776805   1776279   1777422   1779448  
  9660.000000   1781266   1781805   1780338   1776733   1771472  
  9650.000000   1765560   1760203   1756531   1755288   1756680  
  9640.000000   1760375   1765590   1771323   1776526   1780304  
  9630.000000   1782030   1781438   1778667   1774255   1769044  
  9620.000000   1764026   1760095   1757865   1757479   1758635  
  9610.000000   1760666   1762771   1764247   1764644   1763870  
  9600.000000   1762106   1759733   1757169   1754793   1752928  
  9590.000000   1751827   1751723   1752760   1754952   1758073  
  9580.000000   1761630   1764939   1767260   1768062   1767169  
  9570.000000   1764869   1761813   1758814   1756603   1755597  
  9560.000000   1755822   1756938   1758364   1759479   1759739  
  9550.000000   1758859   1756795   1753809   1750344   1746978  
  9540.000000   1744270   1742635   1742228   1742846   1743984  
  9530.000000   1744910   1744918   1743499   1740571   1736466  
  9520.000000   1731913   1727758   1724781   1723410   1723668  
  9510.000000   1725196   1727412   1729761   1731843   1733589  
  9500.000000   1735192   1737075   1739670   1743266   1747805  
  9490.000000   1752829   1757532   1760947   1762232   1760914  
  9480.000000   1757069   1751332   1744710   1738360   1733179  
  9470.000000   1729626   1727542   1726335   1725237   1723631  
  9460.000000   1721285   1718329   1715138   1712071   1709315  
  9450.000000   1706806   1704342   1701742   1699085   1696764  
  9440.000000   1695472   1695929   1698601   1703453   1709867  
  9430.000000   1716827   1723164   1727894   1730425   1730654  
  9420.000000   1728960   1726020   1722647   1719537   1717145  
  9410.000000   1715570   1714593   1713745   1712446   1710202  
  9400.000000   1706744   1702210   1697105   1692238   1688436  
  9390.000000   1686307   1686030   1687306   1689495   1691843  
  9380.000000   1693727   1694846   1695236   1695240   1695292  
  9370.000000   1695778   1696889   1698573   1700624   1702680  
  9360.000000   1704393   1705350   1705192   1703561   1700231  
  9350.000000   1695203   1688809   1681768   1675045   1669687  
  9340.000000   1666519   1665987   1668006   1672020   1677110  
  9330.000000   1682236   1686465   1689163   1690083   1689334  
  9320.000000   1687328   1684633   1681904   1679714   1678495  
  9310.000000   1678403   1679349   1681011   1682940   1684682  
  9300.000000   1685830   1686144   1685510   1684012   1681836  
  9290.000000   1679260   1676604   1674200   1672385   1671424  
  9280.000000   1671418   1672212   1673372   1674309   1674438  
  9270.000000   1673376   1671089   1667927   1664597   1661871  
  9260.000000   1660380   1660295   1661346   1662884   1664164  
  9250.000000   1664589   1663915   1662401   1660695   1659678  
  9240.000000   1660092   1662383   1666517   1672032   1678107  
  9230.000000   1683747   1688015   1690222   1690083   1687713  
  9220.000000   1683569   1678325   1672739   1667477   1662994  
  9210.000000   1659470   1656847   1654924   1653430   1652156  
  9200.000000   1650963   1649864   1648955   1648392   1648292  
  9190.000000   1648691   1649536   1650673   1651914   1653056  
  9180.000000   1653975   1654634   1655132   1655631   1656309  
  9170.000000   1657232   1658309   1659272   1659770   1659453  
  9160.000000   1658126   1655833   1652887   1649775   1646993  
  9150.000000   1644938   1643799   1643561   1644026   1644935  
  9140.000000   1646037   1647163   1648162   1648932   1649352  
  9130.000000   1649356   1648943   1648222   1647424   1646800  
  9120.000000   1646578   1646750   1647075   1647077   1646238  
  9110.000000   1644162   1640754   1636337   1631609   1627459  
  9100.000000   1624672   1623753   1624780   1627423   1631003  
  9090.000000   1634730   1637905   1640068   1641062   1640993  
  9080.000000   1640189   1639029   1637875   1636921   1636238  
  9070.000000   1635722   1635206   1634511   1633537   1632336  
  9060.000000   1631064   1630017   1629453   1629600   1630495  
  9050.000000   1632057   1634060   1636199   1638147   1639599  
  9040.000000   1640354   1640240   1639182   1637140   1634227  
  9030.000000   1630629   1626642   1622622   1618973   1616093  
  9020.000000   1614279   1613749   1614588   1616781   1620150  
  9010.000000   1624380   1629024   1633527   1637317   1639878  
  9000.000000   1640919   1640411   1638637   1636116   1633488  
  8990.000000   1631358   1630149   1630060   1631031   1632813  
  8980.000000   1634986   1637094   1638661   1639294   1638692  
  8970.000000   1636746   1633587   1629583   1625292   1621332  
  8960.000000   1618257   1616385   1615728   1616013   1616803  
  8950.000000   1617660   1618273   1618546   1618591   1618626  
  8940.000000   1618860   1619377   1620141   1620996   1621789  
  8930.000000   1622399   1622824   1623124   1623420   1623804  
  8920.000000   1624321   1624950   1625624   1626256   1626780  
  8910.000000   1627149   1627354   1627409   1627344   1627222  
  8900.000000   1627131   1627191   1627523   1628232   1629363  
  8890.000000   1630882   1632652   1634476   1636122   1637392  
  8880.000000   1638152   1638365   1638106   1637532   1636856  
  8870.000000   1636272   1635902   1635758   1635724   1635620  
  8860.000000   1635260   1634558   1633568   1632502   1631650  
  8850.000000   1631284   1631527   1632289   1633284   1634119  
  8840.000000   1634462   1634152   1633278   1632128   1631089  
  8830.000000   1630506   1630554   1631212   1632294   1633556  
  8820.000000   1634794   1635902   1636867   1637716   1638462  
  8810.000000   1639049   1639390   1639372   1638954   1638163  
  8800.000000   1637137   1636040   1635037   1634238   1633703  
  8790.000000   1633480   1633621   1634231   1635421   1637287  
  8780.000000   1639827   1642911   1646286   1649603   1652520  
  8770.000000   1654740   1656116   1656617   1656376   1655605  
  8760.000000   1654589   1653625   1652992   1652920   1653530  
  8750.000000   1654842   1656727   1658981   1661325   1663516  
  8740.000000   1665361   1666784   1667788   1668445   1668839  
  8730.000000   1669034   1669059   1668920   1668623   1668198  
  8720.000000   1667701   1667201   1666762   1666417   1666151  
  8710.000000   1665910   1665614   1665192   1664593   1663818  
  8700.000000   1662930   1662049   1661352   1661025   1661251  
  8690.000000   1662122   1663636   1665637   1667880   1670045  
  8680.000000   1671855   1673119   1673827   1674127   1674303  
  8670.000000   1674675   1675517   1676983   1679073   1681664  
  8660.000000   1684544   1687481   1690258   1692706   1694706  
  8650.000000   1696187   1697111   1697466   1697284   1696634  
  8640.000000   1695662   1694553   1693537   1692836   1692629  
  8630.000000   1693012   1693947   1695305   1696871   1698443  
  8620.000000   1699867   1701105   1702243   1703443   1704889  
  8610.000000   1706670   1708751   1710934   1712933   1714457  
  8600.000000   1715331   1715565   1715369   1715095   1715127  
  8590.000000   1715761   1717121   1719110   1721457   1723784  
  8580.000000   1725722   1726992   1727476   1727248   1726562  
  8570.000000   1725804   1725401   1725729   1727018   1729281  
  8560.000000   1732282   1735604   1738743   1741266   1742927  
  8550.000000   1743751   1744017   1744138   1744515   1745367  
  8540.000000   1746672   1748161   1749449   1750181   1750187  
  8530.000000   1749549   1748562   1747660   1747246   1747593  
  8520.000000   1748750   1750569   1752764   1755007   1757019  
  8510.000000   1758614   1759738   1760447   1760868   1761170  
  8500.000000   1761522   1762070   1762909   1764061   1765489  
  8490.000000   1767083   1768696   1770166   1771350   1772158  
  8480.000000   1772566   1772626   1772464   1772244   1772155  
  8470.000000   1772356   1772950   1773957   1775304   1776866  
  8460.000000   1778498   1780101   1781639   1783158   1784755  
  8450.000000   1786517   1788465   1790502   1792432   1794003  
  8440.000000   1794983   1795246   1794813   1793877   1792751  
  8430.000000   1791800   1791341   1791580   1792560   1794145  
  8420.000000   1796029   1797823   1799128   1799653   1799267  
  8410.000000   1798099   1796499   1794985   1794056   1794075  
  8400.000000   1795140   1797035   1799274   1801248   1802409  
  8390.000000   1802429   1801265   1799152   1796505   1793793  
  8380.000000   1791405   1789588   1788425   1787889   1787882  
  8370.000000   1788281   1788936   1789698   1790401   1790906  
  8360.000000   1791098   1790945   1790495   1789868   1789203  
  8350.000000   1788602   1788103   1787678   1787263   1786803  
  8340.000000   1786281   1785724   1785176   1784653   1784118  
  8330.000000   1783471   1782593   1781388   1779851   1778067  
  8320.000000   1776204   1774464   1773031   1772038   1771547  
  8310.000000   1771569   1772062   1772955   1774139   1775460  
  8300.000000   1776725   1777720   1778262   1778247   1777688  
  8290.000000   1776712   1775523   1774345   1773358   1772666  
  8280.000000   1772274   1772124   1772112   1772140   1772105  
  8270.000000   1771927   1771521   1770827   1769805   1768485  
  8260.000000   1766954   1765363   1763882   1762657   1761775  
  8250.000000   1761235   1760959   1760808   1760625   1760264  
  8240.000000   1759611   1758607   1757246   1755597   1753797  
  8230.000000   1752058   1750622   1749704   1749406   1749684  
  8220.000000   1750318   1750988   1751348   1751143   1750281  
  8210.000000   1748848   1747062   1745161   1743317   1741572  
  8200.000000   1739863   1738076   1736137   1734073   1732011  
  8190.000000   1730156   1728684   1727710   1727211   1727074  
  8180.000000   1727120   1727171   1727085   1726755   1726115  
  8170.000000   1725094   1723646   1721739   1719419   1716810  
  8160.000000   1714126   1711610   1709481   1707871   1706793  
  8150.000000   1706157   1705799   1705560   1705307   1704978  
  8140.000000   1704547   1704026   1703433   1702787   1702125  
  8130.000000   1701486   1700923   1700455   1700062   1699635  
  8120.000000   1699011   1697997   1696456   1694358   1691828  
  8110.000000   1689123   1686561   1684442   1682954   1682143  
  8100.000000   1681911   1682077   1682440   1682838   1683181  
  8090.000000   1683432   1683584   1683609   1683453   1683040  
  8080.000000   1682318   1681292   1680058   1678787   1677695  
  8070.000000   1676975   1676737   1676975   1677544   1678209  
  8060.000000   1678677   1678697   1678100   1676871   1675133  
  8050.000000   1673133   1671170   1669516   1668350   1667710  
  8040.000000   1667496   1667490   1667435   1667088   1666283  
  8030.000000   1664970   1663214   1661181   1659098   1657212  
  8020.000000   1655742   1654837   1654550   1654814   1655454  
  8010.000000   1656217   1656825   1657047   1656756   1655967  
  8000.000000   1654828   1653562   1652411   1651535   1650987  
  7990.000000   1650685   1650470   1650155   1649603   1648768  
  7980.000000   1647709   1646565   1645498   1644652   1644105  
  7970.000000   1643859   1643853   1643981   1644127   1644182  
  7960.000000   1644068   1643741   1643209   1642517   1641761  
  7950.000000   1641046   1640480   1640124   1639990   1640022  
  7940.000000   1640130   1640219   1640238   1640201   1640194  
  7930.000000   1640335   1640736   1641443   1642419   1643536  
  7920.000000   1644620   1645504   1646079   1646336   1646359  
  7910.000000   1646301   1646329   1646573   1647084   1647819  
  7900.000000   1648658   1649430   1649967   1650138   1649881  
  7890.000000   1649215   1648232   1647084   1645944   1644981  
  7880.000000   1644318   1644028   1644107   1644506   1645127  
  7870.000000   1645875   1646652   1647391   1648042   1648576  
  7860.000000   1648970   1649201   1649256   1649128   1648839  
  7850.000000   1648419   1647918   1647379   1646833   1646293  
  7840.000000   1645757   1645233   1644739   1644323   1644043  
  7830.000000   1643956   1644081   1644402   1644848   1645332  
  7820.000000   1645770   1646113   1646358   1646543   1646719  
  7810.000000   1646919   1647136   1647319   1647384   1647257  
  7800.000000   1646894   1646310   1645570   1644769   1643998  
  7790.000000   1643317   1642730   1642196   1641640   1640984  
  7780.000000   1640178   1639208   1638113   1636964   1635848  
  7770.000000   1634842   1633995   1633323   1632809   1632427  
  7760.000000   1632156   1632001   1631999   1632195   1632628  
  7750.000000   1633281   1634081   1634872   1635471   1635691  
  7740.000000   1635421   1634649   1633487   1632145   1630873  
  7730.000000   1629905   1629386   1629362   1629762   1630446  
  7720.000000   1631228   1631935   1632423   1632596   1632402  
  7710.000000   1631836   1630936   1629779   1628482   1627176  
  7700.000000   1625997   1625044   1624366   1623949   1623724  
  7690.000000   1623603   1623496   1623355   1623170   1622969  
  7680.000000   1622791   1622660   1622578   1622516   1622440  
  7670.000000   1622325   1622175   1622019   1621900   1621854  
  7660.000000   1621886   1621971   1622057   1622089   1622033  
  7650.000000   1621890   1621702   1621524   1621406   1621361  
  7640.000000   1621358   1621325   1621174   1620841   1620315  
  7630.000000   1619651   1618967   1618406   1618095   1618102  
  7620.000000   1618416   1618952   1619578   1620156   1620583  
  7610.000000   1620804   1620826   1620690   1620452   1620153  
  7600.000000   1619819   1619458   1619083   1618722   1618422  
  7590.000000   1618244   1618245   1618452   1618857   1619405  
  7580.000000   1620018   1620604   1621090   1621425   1621600  
  7570.000000   1621637   1621600   1621565   1621626   1621861  
  7560.000000   1622324   1623027   1623936   1624973   1626042  
  7550.000000   1627047   1627923   1628647   1629238   1629730  
  7540.000000   1630158   1630524   1630812   1630983   1631019  
  7530.000000   1630929   1630776   1630653   1630663   1630887  
  7520.000000   1631358   1632059   1632936   1633921   1634958  
  7510.000000   1636012   1637073   1638134   1639191   1640224  
  7500.000000   1641220   1642169   1643091   1644015   1644987  
  7490.000000   1646034   1647162   1648337   1649507   1650612  
  7480.000000   1651618   1652525   1653373   1654219   1655126  
  7470.000000   1656129   1657237   1658420   1659635   1660831  
  7460.000000   1661976   1663055   1664083   1665094   1666136  
  7450.000000   1667260   1668507   1669899   1671442   1673109  
  7440.000000   1674868   1676669   1678479   1680268   1682024  
  7430.000000   1683731   1685377   1686942   1688415   1689804  
  7420.000000   1691149   1692529   1694046   1695789   1697796  
  7410.000000   1700032   1702381   1704670   1706724   1708415  
  7400.000000   1709716   1710690   1711477   1712235   1713100  
  7390.000000   1714152   1715403   1716830   1718398   1720101  
  7380.000000   1721945   1723950   1726102   1728352   1730594  
  7370.000000   1732700   1734545   1736048   1737202   1738063  
  7360.000000   1738743   1739363   1740033   1740823   1741760  
  7350.000000   1742835   1744021   1745295   1746639   1748056  
  7340.000000   1749554   1751152   1752860   1754670   1756549  
  7330.000000   1758435   1760253   1761920   1763380   1764615  
  7320.000000   1765665   1766616   1767579   1768658   1769920  
  7310.000000   1771371   1772956   1774571   1776104   1777468  
  7300.000000   1778625   1779605   1780488   1781382   1782391  
  7290.000000   1783587   1784992   1786577   1788267   1789972  
  7280.000000   1791608   1793114   1794464   1795663   1796739  
  7270.000000   1797730   1798668   1799569   1800452   1801327  
  7260.000000   1802226   1803182   1804244   1805439   1806781  
  7250.000000   1808239   1809769   1811308   1812822   1814301  
  7240.000000   1815783   1817315   1818954   1820718   1822605  
  7230.000000   1824575   1826608   1828689   1830855   1833147  
  7220.000000   1835615   1838264   1841070   1843957   1846857  
  7210.000000   1849708   1852513   1855302   1858145   1861082  
  7200.000000   1864126   1867231   1870337   1873387   1876377  
  7190.000000   1879353   1882410   1885637   1889087   1892732  
  7180.000000   1896477   1900184   1903732   1907045   1910131  
  7170.000000   1913047   1915896   1918760   1921701   1924725  
  7160.000000   1927817   1930943   1934095   1937277   1940531  
  7150.000000   1943899   1947438   1951183   1955167   1959390  
  7140.000000   1963842   1968474   1973239   1978068   1982919  
  7130.000000   1987761   1992616   1997515   2002525   2007671  
  7120.000000   2012966   2018346   2023732   2029016   2034131  
  7110.000000   2039052   2043833   2048569   2053390   2058407  
  7100.000000   2063704   2069311   2075213   2081354   2087656  
  7090.000000   2094024   2100362   2106578   2112600   2118383  
  7080.000000   2123925   2129260   2134455   2139581   2144710  
  7070.000000   2149879   2155106   2160380   2165683   2170990  
  7060.000000   2176278   2181524   2186700   2191785   2196772  
  7050.000000   2201688   2206598   2211593   2216769   2222187  
  7040.000000   2227846   2233669   2239524   2245263   2250766  
  7030.000000   2255980   2260932   2265712   2270430   2275183  
  7020.000000   2280008   2284889   2289757   2294532   2299136  
  7010.000000   2303530   2307701   2311680   2315507   2319249  
  7000.000000   2322957   2326689   2330472   2334320   2338210  
  6990.000000   2342107   2345952   2349705   2353328   2356819  
  6980.000000   2360180   2363432   2366577   2369616   2372534  
  6970.000000   2375331   2378009   2380603   2383149   2385689  
  6960.000000   2388236   2390788   2393309   2395769   2398130  
  6950.000000   2400388   2402546   2404628   2406642   2408606  
  6940.000000   2410516   2412384   2414217   2416044   2417878  
  6930.000000   2419721   2421536   2423257   2424801   2426107  
  6920.000000   2427149   2427967   2428647   2429310   2430062  
  6910.000000   2430977   2432077   2433345   2434728   2436175  
  6900.000000   2437630   2439052   2440405   2441664   2442811  
  6890.000000   2443854   2444824   2445771   2446751   2447793  
  6880.000000   2448891   2449991   2451014   2451886   2452568  
  6870.000000   2453092   2453541   2454042   2454702   2455591  
  6860.000000   2456705   2457981   2459313   2460591   2461729  
  6850.000000   2462684   2463448   2464044   2464506   2464876  
  6840.000000   2465193   2465498   2465830   2466226   2466707  
  6830.000000   2467282   2467930   2468622   2469311   2469957  
  6820.000000   2470523   2470988   2471345   2471597   2471762  
  6810.000000   2471862   2471927   2471986   2472059   2472156  
  6800.000000   2472268   2472383   2472486   2472584   2472692  
  6790.000000   2472851   2473089   2473425   2473844   2474304  
  6780.000000   2474739   2475085   2475292   2475339   2475226  
  6770.000000   2474973   2474607   2474160   2473671   2473192  
  6760.000000   2472787   2472525   2472454   2472587   2472883  
  6750.000000   2473252   2473582   2473773   2473771   2473589  
  6740.000000   2473297   2472999   2472804   2472784   2472971  
  6730.000000   2473348   2473871   2474480   2475116   2475719  
  6720.000000   2476233   2476609   2476812   2476836   2476713  
  6710.000000   2476515   2476333   2476260   2476352   2476619  
  6700.000000   2477016   2477471   2477896   2478229   2478434  
  6690.000000   2478514   2478485   2478373   2478192   2477954  
  6680.000000   2477662   2477329   2476968   2476597   2476227  
  6670.000000   2475864   2475492   2475101   2474671   2474203  
  6660.000000   2473696   2473164   2472611   2472041   2471443  
  6650.000000   2470810   2470133   2469416   2468664   2467890  
  6640.000000   2467094   2466279   2465436   2464564   2463665  
  6630.000000   2462753   2461836   2460923   2460001   2459052  
  6620.000000   2458045   2456967   2455815   2454610   2453378  
  6610.000000   2452147   2450921   2449694   2448441   2447149  
  6600.000000   2445820   2444482   2443172   2441925   2440745  
  6590.000000   2439608   2438457   2437230   2435880   2434395  
  6580.000000   2432794   2431122   2429424   2427737   2426071  
  6570.000000   2424431   2422816   2421239   2419724   2418303  
  6560.000000   2416996   2415800   2414686   2413602   2412495  
  6550.000000   2411324   2410070   2408742   2407367   2405975  
  6540.000000   2404594   2403237   2401908   2400605   2399319  
  6530.000000   2398044   2396768   2395481   2394173   2392834  
  6520.000000   2391460   2390053   2388621   2387176   2385730  
  6510.000000   2384297   2382891   2381530   2380232   2379013  
  6500.000000   2377875   2376810   2375785   2374760   2373691  
  6490.000000   2372548   2371319   2370018   2368671   2367309  
  6480.000000   2365952   2364603   2363251   2361875   2360456  
  6470.000000   2358981   2357453   2355881   2354287   2352697  
  6460.000000   2351141   2349652   2348261   2346989   2345839  
  6450.000000   2344792   2343812   2342850   2341871   2340856  
  6440.000000   2339818   2338788   2337807   2336893   2336050  
  6430.000000   2335242   2334428   2333564   2332635   2331651  
  6420.000000   2330654   2329695   2328821   2328060   2327422  
  6410.000000   2326894   2326465   2326114   2325833   2325607  
  6400.000000   2325429   2325287   2325176   2325095   2325049  
  6390.000000   2325043   2325077   2325136   2325190   2325200  
  6380.000000   2325135   2324977   2324736   2324443   2324136  
  6370.000000   2323845   2323574   2323310   2323022   2322687  
  6360.000000   2322298   2321872   2321434   2321008   2320596  
  6350.000000   2320177   2319711   2319163   2318516   2317782  
  6340.000000   2316996   2316210   2315461   2314773   2314144  
  6330.000000   2313562   2313004   2312462   2311928   2311402  
  6320.000000   2310875   2310332   2309746   2309094   2308354  
  6310.000000   2307525   2306615   2305648   2304641   2303616  
  6300.000000   2302585   2301565   2300567   2299607   2298685  
  6290.000000   2297790   2296891   2295950   2294924   2293795  
  6280.000000   2292565   2291269   2289952   2288662   2287423  
  6270.000000   2286238   2285089   2283953   2282815   2281675  
  6260.000000   2280544   2279433   2278335   2277229   2276076  
  6250.000000   2274838   2273500   2272072   2270596   2269125  
  6240.000000   2267712   2266388   2265160   2264013   2262917  
  6230.000000   2261846   2260771   2259671   2258526   2257315  
  6220.000000   2256025   2254649   2253205   2251723   2250249  
  6210.000000   2248827   2247488   2246238   2245065   2243945  
  6200.000000   2242856   2241789   2240749   2239745   2238790  
  6190.000000   2237882   2237011   2236156   2235309   2234464  
  6180.000000   2233637   2232847   2232114   2231445   2230833  
  6170.000000   2230258   2229695   2229122   2228524   2227896  
  6160.000000   2227238   2226550   2225834   2225091   2224325  
  6150.000000   2223546   2222766   2221999   2221257   2220546  
  6140.000000   2219863   2219206   2218567   2217942   2217325  
  6130.000000   2216707   2216076   2215417   2214720   2213982  
  6120.000000   2213216   2212447   2211712   2211038   2210450  
  6110.000000   2209948   2209526   2209166   2208859   2208601  
  6100.000000   2208404   2208281   2208248   2208299   2208424  
  6090.000000   2208589   2208767   2208922   2209042   2209116  
  6080.000000   2209164   2209201   2209261   2209368   2209552  
  6070.000000   2209825   2210199   2210666   2211217   2211828  
  6060.000000   2212490   2213186   2213924   2214705   2215556  
  6050.000000   2216484   2217510   2218633   2219864   2221195  
  6040.000000   2222636   2224181   2225837   2227594   2229449  
  6030.000000   2231382   2233385   2235438   2237548   2239706  
  6020.000000   2241929   2244212   2246564   2248971   2251431  
  6010.000000   2253928   2256466   2259036   2261654   2264318  
  6000.000000   2267043   2269825   2272677   2275598   2278600  
  5990.000000   2281684   2284858   2288107   2291424   2294783  
  5980.000000   2298175   2301587   2305036   2308536   2312116  
  5970.000000   2315786   2319551   2323383   2327256   2331127  
  5960.000000   2334978   2338795   2342595   2346395   2350227  
  5950.000000   2354105   2358048   2362054   2366129   2370274  
  5940.000000   2374494   2378799   2383195   2387684   2392256  
  5930.000000   2396892   2401556   2406209   2410793   2415256  
  5920.000000   2419541   2423607   2427422   2430986   2434314  
  5910.000000   2437446   2440418   2443275   2446037   2448731  
  5900.000000   2451360   2453947   2456497   2459045   2461597  
  5890.000000   2464172   2466752   2469322   2471844   2474296  
  5880.000000   2476653   2478914   2481071   2483123   2485055  
  5870.000000   2486847   2488478   2489942   2491259   2492472  
  5860.000000   2493643   2494840   2496119   2497514   2499042  
  5850.000000   2500698   2502477   2504365   2506356   2508433  
  5840.000000   2510580   2512776   2515007   2517265   2519571  
  5830.000000   2521948   2524434   2527048   2529791   2532629  
  5820.000000   2535513   2538379   2541181   2543888   2546500  
  5810.000000   2549031   2551502   2553941   2556360   2558786  
  5800.000000   2561227   2563721   2566274   2568915   2571614  
  5790.000000   2574352   2577046   2579628   2581984   2584032  
  5780.000000   2585655   2586777   2587302   2587189   2586413  
  5770.000000   2585028   2583124   2580864   2578406   2575926  
  5760.000000   2573528   2571294   2569221   2567305   2565503  
  5750.000000   2563810   2562210   2560713   2559307   2557980  
  5740.000000   2556695   2555414   2554110   2552768   2551396  
  5730.000000   2550005   2548613   2547220   2545825   2544417  
  5720.000000   2542997   2541572   2540164   2538789   2537458  
  5710.000000   2536165   2534893   2533619   2532332   2531034  
  5700.000000   2529740   2528471   2527241   2526057   2524911  
  5690.000000   2523803   2522731   2521715   2520769   2519911  
  5680.000000   2519128   2518394   2517649   2516833   2515878  
  5670.000000   2514741   2513382   2511786   2509936   2507830  
  5660.000000   2505474   2502900   2500161   2497342   2494530  
  5650.000000   2491810   2489229   2486802   2484501   2482290  
  5640.000000   2480126   2477990   2475882   2473817   2471814  
  5630.000000   2469881   2468024   2466235   2464520   2462882  
  5620.000000   2461343   2459912   2458598   2457378   2456227  
  5610.000000   2455102   2453978   2452838   2451695   2450566  
  5600.000000   2449481   2448459   2447517   2446656   2445883  
  5590.000000   2445194   2444589   2444054   2443569   2443099  
  5580.000000   2442610   2442073   2441481   2440845   2440191  
  5570.000000   2439546   2438924   2438317   2437700   2437041  
  5560.000000   2436315   2435514   2434645   2433729   2432786  
  5550.000000   2431828   2430859   2429883   2428906   2427947  
  5540.000000   2427029   2426175   2425391   2424666   2423970  
  5530.000000   2423268   2422534   2421756   2420941   2420104  
  5520.000000   2419258   2418404   2417529   2416618   2415654  
  5510.000000   2414639   2413582   2412506   2411428   2410361  
  5500.000000   2409307   2408264   2407224   2406192   2405163  
  5490.000000   2404138   2403102   2402038   2400917   2399729  
  5480.000000   2398469   2397159   2395827   2394506   2393209  
  5470.000000   2391933   2390654   2389343   2387977   2386548  
  5460.000000   2385061   2383525   2381943   2380306   2378601  
  5450.000000   2376820   2374972   2373090   2371226   2369435  
  5440.000000   2367760   2366214   2364791   2363463   2362209  
  5430.000000   2361007   2359850   2358726   2357628   2356531  
  5420.000000   2355421   2354282   2353134   2352007   2350963  
  5410.000000   2350046   2349295   2348704   2348264   2347939  
  5400.000000   2347725   2347614   2347637   2347798   2348113  
  5390.000000   2348551   2349092   2349692   2350352   2351078  
  5380.000000   2351930   2352946   2354181   2355627   2357282  
  5370.000000   2359082   2361004   2362994   2365068   2367209  
  5360.000000   2369469   2371843   2374394   2377125   2380118  
  5350.000000   2383396   2387058   2391120   2395652   2400616  
  5340.000000   2406035   2411837   2418053   2424634   2431647  
  5330.000000   2439059   2446937   2455227   2463975   2473116  
  5320.000000   2482725   2492776   2503396   2514589   2526494  
  5310.000000   2539092   2552478   2566581   2581460   2597035  
  5300.000000   2613374   2630425   2648286   2666934   2686474  
  5290.000000   2706862   2728143   2750195   2772966   2796273  
  5280.000000   2820050   2844177   2868703   2893645   2919144  
  5270.000000   2945244   2971988   2999267   3026917   3054714  
  5260.000000   3082473   3110097   3137578   3164998   3192418  
  5250.000000   3219870   3247240   3274374   3300998   3326944  
  5240.000000   3352035   3376306   3399773   3422619   3444905  
  5230.000000   3466770   3488154   3509060   3529312   3548863  
  5220.000000   3567565   3585466   3602538   3618945   3634722  
  5210.000000   3650031   3664837   3679181   3692901   3705959  
  5200.000000   3718193   3729645   3740274   3750234   3759543  
  5190.000000   3768337   3776562   3784255   3791294   3797701  
  5180.000000   3803400   3808484   3812945   3816902   3820328  
  5170.000000   3823285   3825697   3827596   3828921   3829741  
  5160.000000   3830039   3829910   3829339   3828397   3827050  
  5150.000000   3825355   3823290   3820927   3818258   3815343  
  5140.000000   3812153   3808711   3804969   3800947   3796625  
  5130.000000   3792056   3787254   3782277   3777137   3771868  
  5120.000000   3766466   3760957   3755352   3749695   3744012  
  5110.000000   3738345   3732707   3727112   3721556   3716045  
  5100.000000   3710582   3705186   3699874   3694664   3689559  
  5090.000000   3684553   3679629   3674770   3669958   3665186  
  5080.000000   3660439   3655709   3650971   3646205   3641379  
  5070.000000   3636480   3631489   3626413   3621248   3616004  
  5060.000000   3610673   3605255   3599734   3594114   3588389  
  5050.000000   3582579   3576686   3570728   3564696   3558591  
  5040.000000   3552393   3546101   3539709   3533236   3526702  
  5030.000000   3520139   3513569   3507017   3500493   3494004  
  5020.000000   3487553   3481141   3474773   3468451   3462188  
  5010.000000   3455989   3449875   3443854   3437954   3432179  
  5000.000000   3426554   3421074   3415754   3410575   3405551  
  4990.000000   3400666   3395947   3391388   3387027   3382861  
  4980.000000   3378925   3375206   3371734   3368490   3365508  
  4970.000000   3362771   3360323   3358147   3356285   3354709  
  4960.000000   3353453   3352481   3351825   3351452   3351401  
  4950.000000   3351641   3352214   3353086   3354297   3355811  
  4940.000000   3357674   3359857   3362415   3365328   3368650  
  4930.000000   3372354   3376486   3381009   3385960   3391302  
  4920.000000   3397069   3403226   3409797   3416736   3424055  
  4910.000000   3431700   3439673   3447928   3456466   3465250  
  4900.000000   3474274   3483501   3492904   3502439   3512055  
  4890.000000   3521707   3531328   3540868   3550245   3559407  
  4880.000000   3568260   3576761   3584816   3592402   3599434  
  4870.000000   3605907   3611741   3616947   3621455   3625298  
  4860.000000   3628430   3630912   3632722   3633939   3634557  
  4850.000000   3634660   3634254   3633428   3632207   3630685  
  4840.000000   3628900   3626944   3624853   3622706   3620530  
  4830.000000   3618383   3616284   3614270   3612347   3610529  
  4820.000000   3608818   3607213   3605720   3604341   3603096  
  4810.000000   3601989   3601040   3600242   3599603   3599103  
  4800.000000   3598748   3598520   3598437   3598495   3598714  
  4790.000000   3599085   3599612   3600266   3601034   3601886  
  4780.000000   3602821   3603830   3604930   3606124   3607422  
  4770.000000   3608809   3610269   3611768   3613283   3614788  
  4760.000000   3616277   3617747   3619206   3620653   3622089  
  4750.000000   3623503   3624883   3626220   3627512   3628769  
  4740.000000   3630010   3631257   3632537   3633867   3635260  
  4730.000000   3636712   3638213   3639740   3641273   3642784  
  4720.000000   3644266   3645709   3647139   3648574   3650069  
  4710.000000   3651660   3653406   3655334   3657482   3659853  
  4700.000000   3662462   3665296   3668361   3671641   3675143  
  4690.000000   3678856   3682785   3686911   3691230   3695702  
  4680.000000   3700302   3704968   3709659   3714309   3718893  
  4670.000000   3723370   3727755   3732054   3736314   3740566  
  4660.000000   3744865   3749240   3753739   3758387   3763223  
  4650.000000   3768272   3773562   3779104   3784891   3790901  
  4640.000000   3797089   3803405   3809789   3816196   3822572  
  4630.000000   3828885   3835083   3841131   3846968   3852550  
  4620.000000   3857808   3862707   3867191   3871256   3874875  
  4610.000000   3878077   3880864   3883298   3885400   3887247  
  4600.000000   3888862   3890315   3891609   3892791   3893834  
  4590.000000   3894761   3895523   3896120   3896494   3896629  
  4580.000000   3896466   3895997   3895189   3894065   3892639  
  4570.000000   3890975   3889117   3887141   3885078   3882972  
  4560.000000   3880820   3878632   3876389   3874098   3871751  
  4550.000000   3869370   3866959   3864537   3862103   3859661  
  4540.000000   3857198   3854712   3852202   3849674   3847145  
  4530.000000   3844628   3842140   3839683   3837265   3834869  
  4520.000000   3832498   3830132   3827790   3825464   3823198  
  4510.000000   3821000   3818943   3817052   3815422   3814086  
  4500.000000   3813150   3812634   3812631   3813134   3814213  
  4490.000000   3815840   3818081   3820906   3824392   3828511  
  4480.000000   3833341   3838843   3845079   3851989   3859618  
  4470.000000   3867894   3876848   3886401   3896572   3907269  
  4460.000000   3918496   3930157   3942245   3954675   3967446  
  4450.000000   3980492   3993820   4007383   4021186   4035188  
  4440.000000   4049379   4063714   4078158   4092664   4107176  
  4430.000000   4121655   4136042   4150313   4164409   4178322  
  4420.000000   4191988   4205397   4218472   4231196   4243479  
  4410.000000   4255292   4266535   4277177   4287126   4296372  
  4400.000000   4304863   4312645   4319734   4326249   4332272  
  4390.000000   4337966   4343438   4348847   4354268   4359803  
  4380.000000   4365459   4371264   4377169   4383162   4389188  
  4370.000000   4395244   4401303   4407378   4413456   4419539  
  4360.000000   4425591   4431594   4437487   4443257   4448831  
  4350.000000   4454223   4459353   4464262   4468881   4473289  
  4340.000000   4477454   4481472   4485280   4488844   4491890  
  4330.000000   4494084   4494892   4493809   4490365   4484361  
  4320.000000   4475882   4465382   4453561   4441279   4429340  
  4310.000000   4418408   4408866   4400866   4394335   4389099  
  4300.000000   4384946   4381693   4379220   4377426   4376272  
  4290.000000   4375672   4375604   4375982   4376810   4378036  
  4280.000000   4379681   4381708   4384095   4386771   4389655  
  4270.000000   4392661   4395693   4398664   4401442   4403865  
  4260.000000   4405692   4406652   4406452   4404882   4401835  
  4250.000000   4397402   4391814   4385467   4378778   4372180  
  4240.000000   4365968   4360351   4355352   4350929   4346935  
  4230.000000   4343235   4339690   4336205   4332726   4329222  
  4220.000000   4325714   4322216   4318803   4315524   4312494  
  4210.000000   4309785   4307507   4305704   4304426   4303645  
  4200.000000   4303328   4303379   4303725   4304253   4304902  
  4190.000000   4305589   4306300   4306990   4307681   4308349  
  4180.000000   4309033   4309720   4310463   4311270   4312218  
  4170.000000   4313339   4314723   4316407   4318463   4320898  
  4160.000000   4323754   4327001   4330662   4334696   4339130  
  4150.000000   4343926   4349118   4354670   4360616   4366914  
  4140.000000   4373602   4380640   4388075   4395867   4404061  
  4130.000000   4412604   4421527   4430771   4440368   4450283  
  4120.000000   4460579   4471263   4482429   4494105   4506376  
  4110.000000   4519244   4532743   4546816   4561433   4576487  
  4100.000000   4591908   4607585   4623454   4639445   4655535  
  4090.000000   4671705   4687948   4704257   4720606   4736974  
  4080.000000   4753308   4769590   4785758   4801797   4817619  
  4070.000000   4833180   4848341   4863030   4877097   4890513  
  4060.000000   4903193   4915199   4926510   4937229   4947333  
  4050.000000   4956911   4965915   4974423   4982385   4989874  
  4040.000000   4996823   5003275   5009129   5014410   5019029  
  4030.000000   5023052   5026453   5029339   5031716   5033669  
  4020.000000   5035160   5036244   5036908   5037206   5037102  
  4010.000000   5036685   5035995   5035017   5033562   5031640  
  4000.000000   5029478  
##END= 
