##TITLE= Sample 005 By ssteindl date Dienstag, November 20 2018
##JCAMP-DX= 4.24
##DATA TYPE= INFRARED SPECTRUM
##ORIGIN= Exported PE Spectrum Data File
##OWNER= Sandra Steindl
##DATE= 18/11/20
##TIME= 16:10:40.00
##SPECTROMETER/DATA SYSTEM= PERKIN-ELMER Frontier FT-IR/NIR IR
##INSTRUMENT PARAMETERS=
  APODIZATION=stark
  DETECTOR=INGAAS
##RESOLUTION= 16.000000
##DELTAX= -2.000000
##XUNITS= 1/CM
##YUNITS= A
##XFACTOR= 1.00
##YFACTOR= 0.00000011920928955078
##FIRSTX= 10000.00
##LASTX= 4000.00
##NPOINTS= 3001
##FIRSTY= 0.254559
##MAXY= 0.652349
##MINY= 0.200953
##XYDATA= (X++(Y..Y))
 10000.000000   2135397   2135324   2133822   2129329   2122338  
  9990.000000   2114861   2108610   2104621   2103644   2105984  
  9980.000000   2110982   2117127   2122690   2126106   2126264  
  9970.000000   2122749   2115987   2107070   2097462   2088686  
  9960.000000   2082035   2078332   2077877   2080352   2084938  
  9950.000000   2090395   2095294   2098330   2098593   2095873  
  9940.000000   2090680   2084188   2077902   2073283   2071364  
  9930.000000   2072479   2076229   2081606   2087265   2091857  
  9920.000000   2094285   2093913   2090662   2084953   2077660  
  9910.000000   2069831   2062574   2056694   2052623   2050244  
  9900.000000   2049070   2048434   2047828   2047162   2046761  
  9890.000000   2047302   2049364   2053228   2058587   2064686  
  9880.000000   2070586   2075503   2079148   2081658   2083486  
  9870.000000   2084950   2086033   2086234   2084846   2081299  
  9860.000000   2075568   2068331   2060789   2054354   2050044  
  9850.000000   2048314   2048805   2050758   2053231   2055580  
  9840.000000   2057523   2059090   2060378   2061276   2061418  
  9830.000000   2060226   2057219   2052211   2045539   2037982  
  9820.000000   2030623   2024514   2020444   2018749   2019318  
  9810.000000   2021637   2024957   2028365   2030986   2032071  
  9800.000000   2031220   2028502   2024507   2020286   2017071  
  9790.000000   2016011   2017807   2022570   2029760   2038371  
  9780.000000   2047142   2054841   2060441   2063227   2062862  
  9770.000000   2059345   2053092   2044827   2035613   2026621  
  9760.000000   2018950   2013368   2010104   2008929   2009193  
  9750.000000   2010279   2011679   2013321   2015318   2017894  
  9740.000000   2021041   2024407   2027360   2029133   2029199  
  9730.000000   2027362   2023913   2019384   2014399   2009405  
  9720.000000   2004633   2000156   1996033   1992451   1989681  
  9710.000000   1988003   1987459   1987795   1988444   1988775  
  9700.000000   1988329   1987037   1985264   1983590   1982593  
  9690.000000   1982481   1983083   1983851   1984196   1983708  
  9680.000000   1982348   1980432   1978443   1976864   1975970  
  9670.000000   1975842   1976410   1977561   1979204   1981199  
  9660.000000   1983314   1985102   1985981   1985362   1982905  
  9650.000000   1978733   1973494   1968255   1964167   1962137  
  9640.000000   1962493   1964961   1968745   1972873   1976448  
  9630.000000   1978880   1979910   1979542   1977926   1975255  
  9620.000000   1971760   1967725   1963534   1959635   1956443  
  9610.000000   1954237   1953050   1952722   1952914   1953298  
  9600.000000   1953570   1953557   1953154   1952291   1950901  
  9590.000000   1948883   1946213   1942943   1939335   1935749  
  9580.000000   1932620   1930257   1928774   1928061   1927843  
  9570.000000   1927849   1927884   1927953   1928168   1928716  
  9560.000000   1929714   1931152   1932901   1934707   1936321  
  9550.000000   1937465   1937937   1937530   1936107   1933590  
  9540.000000   1930061   1925808   1921365   1917439   1914766  
  9530.000000   1913917   1915079   1918006   1921982   1926087  
  9520.000000   1929384   1931257   1931561   1930658   1929290  
  9510.000000   1928251   1928142   1929076   1930696   1932234  
  9500.000000   1932837   1931838   1929049   1924850   1920108  
  9490.000000   1915946   1913340   1912876   1914490   1917611  
  9480.000000   1921285   1924602   1926891   1927979   1928105  
  9470.000000   1927812   1927647   1927928   1928598   1929193  
  9460.000000   1929046   1927456   1924000   1918639   1911781  
  9450.000000   1904186   1896748   1890355   1885610   1882825  
  9440.000000   1881897   1882462   1883957   1885805   1887514  
  9430.000000   1888736   1889284   1889071   1888089   1886332  
  9420.000000   1883857   1880740   1877223   1873630   1870413  
  9410.000000   1867968   1866563   1866213   1866663   1867468  
  9400.000000   1868111   1868194   1867557   1866338   1864914  
  9390.000000   1863753   1863250   1863598   1864756   1866489  
  9380.000000   1868442   1870254   1871618   1872359   1872444  
  9370.000000   1871971   1871118   1870059   1868926   1867734  
  9360.000000   1866411   1864781   1862666   1859957   1856717  
  9350.000000   1853243   1849992   1847513   1846207   1846263  
  9340.000000   1847538   1849677   1852193   1854658   1856759  
  9330.000000   1858362   1859415   1859900   1859752   1858859  
  9320.000000   1857182   1854784   1851950   1849013   1846289  
  9310.000000   1843848   1841492   1838823   1835412   1831074  
  9300.000000   1826021   1820977   1816992   1815112   1815964  
  9290.000000   1819479   1824885   1830916   1836203   1839627  
  9280.000000   1840643   1839388   1836604   1833333   1830575  
  9270.000000   1829022   1828964   1830281   1832539   1835088  
  9260.000000   1837218   1838314   1837965   1836058   1832763  
  9250.000000   1828538   1824022   1819903   1816732   1814786  
  9240.000000   1814005   1814072   1814523   1814962   1815150  
  9230.000000   1815117   1815074   1815286   1815896   1816820  
  9220.000000   1817764   1818277   1817930   1816458   1813914  
  9210.000000   1810645   1807213   1804236   1802215   1801391  
  9200.000000   1801668   1802652   1803782   1804483   1804337  
  9190.000000   1803152   1801016   1798247   1795313   1792690  
  9180.000000   1790744   1789652   1789429   1789940   1790984  
  9170.000000   1792319   1793741   1795082   1796227   1797072  
  9160.000000   1797525   1797534   1797125   1796416   1795612  
  9150.000000   1794971   1794764   1795200   1796340   1798070  
  9140.000000   1800096   1802032   1803486   1804156   1803906  
  9130.000000   1802791   1801035   1798931   1796749   1794663  
  9120.000000   1792747   1791012   1789458   1788137   1787151  
  9110.000000   1786662   1786764   1787461   1788564   1789786  
  9100.000000   1790789   1791324   1791309   1790836   1790138  
  9090.000000   1789430   1788820   1788222   1787407   1786107  
  9080.000000   1784163   1781627   1778783   1776075   1773950  
  9070.000000   1772704   1772362   1772690   1773282   1773700  
  9060.000000   1773611   1772875   1771584   1769984   1768396  
  9050.000000   1767118   1766380   1766277   1766786   1767748  
  9040.000000   1768938   1770068   1770878   1771178   1770927  
  9030.000000   1770230   1769308   1768428   1767832   1767666  
  9020.000000   1767951   1768608   1769504   1770516   1771538  
  9010.000000   1772501   1773313   1773881   1774088   1773856  
  9000.000000   1773172   1772134   1770925   1769754   1768777  
  8990.000000   1768009   1767327   1766503   1765309   1763625  
  8980.000000   1761490   1759111   1756781   1754801   1753377  
  8970.000000   1752600   1752441   1752802   1753562   1754592  
  8960.000000   1755752   1756874   1757772   1758267   1758262  
  8950.000000   1757766   1756947   1756037   1755290   1754835  
  8940.000000   1754663   1754599   1754405   1753883   1752986  
  8930.000000   1751866   1750815   1750181   1750214   1750996  
  8920.000000   1752398   1754136   1755864   1757272   1758167  
  8910.000000   1758500   1758350   1757876   1757258   1756664  
  8900.000000   1756215   1755979   1755963   1756128   1756395  
  8890.000000   1756674   1756875   1756933   1756810   1756489  
  8880.000000   1755957   1755184   1754144   1752814   1751243  
  8870.000000   1749534   1747869   1746457   1745500   1745127  
  8860.000000   1745361   1746148   1747374   1748936   1750740  
  8850.000000   1752722   1754817   1756927   1758921   1760625  
  8840.000000   1761909   1762671   1762912   1762669   1762031  
  8830.000000   1761070   1759844   1758417   1756907   1755533  
  8820.000000   1754592   1754412   1755207   1756999   1759528  
  8810.000000   1762326   1764816   1766519   1767194   1766921  
  8800.000000   1766060   1765104   1764509   1764522   1765125  
  8790.000000   1766056   1766949   1767445   1767332   1766567  
  8780.000000   1765276   1763686   1762046   1760587   1759480  
  8770.000000   1758853   1758788   1759317   1760415   1761990  
  8760.000000   1763891   1765935   1767934   1769743   1771282  
  8750.000000   1772532   1773524   1774290   1774855   1775219  
  8740.000000   1775382   1775355   1775194   1774991   1774867  
  8730.000000   1774926   1775219   1775709   1776270   1776718  
  8720.000000   1776867   1776592   1775902   1774931   1773955  
  8710.000000   1773285   1773216   1773908   1775353   1777362  
  8700.000000   1779635   1781873   1783876   1785634   1787301  
  8690.000000   1789161   1791489   1794453   1798014   1801916  
  8680.000000   1805745   1809017   1811322   1812405   1812228  
  8670.000000   1810945   1808851   1806327   1803758   1801492  
  8660.000000   1799775   1798748   1798431   1798758   1799567  
  8650.000000   1800667   1801848   1802946   1803856   1804545  
  8640.000000   1805049   1805439   1805825   1806317   1807038  
  8630.000000   1808076   1809485   1811244   1813267   1815385  
  8620.000000   1817395   1819087   1820323   1821066   1821402  
  8610.000000   1821494   1821528   1821655   1821955   1822447  
  8600.000000   1823116   1823969   1825055   1826457   1828233  
  8590.000000   1830369   1832740   1835108   1837199   1838767  
  8580.000000   1839709   1840087   1840117   1840092   1840284  
  8570.000000   1840889   1841969   1843502   1845400   1847577  
  8560.000000   1849957   1852474   1855021   1857431   1859475  
  8550.000000   1860912   1861564   1861398   1860563   1859365  
  8540.000000   1858190   1857398   1857226   1857735   1858794  
  8530.000000   1860154   1861527   1862679   1863460   1863836  
  8520.000000   1863853   1863617   1863248   1862876   1862636  
  8510.000000   1862657   1863061   1863914   1865210   1866827  
  8500.000000   1868546   1870090   1871211   1871760   1871754  
  8490.000000   1871367   1870904   1870688   1870969   1871833  
  8480.000000   1873188   1874808   1876427   1877843   1878989  
  8470.000000   1879944   1880880   1881970   1883289   1884775  
  8460.000000   1886234   1887430   1888183   1888453   1888364  
  8450.000000   1888173   1888158   1888534   1889350   1890495  
  8440.000000   1891734   1892808   1893528   1893825   1893770  
  8430.000000   1893516   1893225   1893002   1892864   1892766  
  8420.000000   1892652   1892519   1892447   1892598   1893160  
  8410.000000   1894278   1895947   1898012   1900165   1902049  
  8400.000000   1903342   1903876   1903684   1902992   1902138  
  8390.000000   1901449   1901129   1901180   1901398   1901458  
  8380.000000   1901040   1899965   1898256   1896161   1894055  
  8370.000000   1892332   1891255   1890900   1891132   1891692  
  8360.000000   1892293   1892717   1892874   1892798   1892595  
  8350.000000   1892372   1892181   1892014   1891840   1891638  
  8340.000000   1891439   1891300   1891286   1891400   1891568  
  8330.000000   1891624   1891371   1890655   1889442   1887847  
  8320.000000   1886105   1884504   1883296   1882634   1882530  
  8310.000000   1882885   1883527   1884288   1885030   1885666  
  8300.000000   1886140   1886413   1886452   1886230   1885754  
  8290.000000   1885063   1884244   1883397   1882598   1881881  
  8280.000000   1881211   1880542   1879820   1879064   1878334  
  8270.000000   1877745   1877390   1877290   1877341   1877327  
  8260.000000   1876973   1876045   1874432   1872196   1869559  
  8250.000000   1866852   1864408   1862496   1861235   1860604  
  8240.000000   1860452   1860573   1860740   1860753   1860446  
  8230.000000   1859706   1858472   1856753   1854644   1852303  
  8220.000000   1849944   1847765   1845917   1844444   1843277  
  8210.000000   1842267   1841245   1840109   1838848   1837567  
  8200.000000   1836414   1835533   1834980   1834709   1834581  
  8190.000000   1834417   1834068   1833453   1832577   1831495  
  8180.000000   1830276   1828954   1827527   1825968   1824271  
  8170.000000   1822467   1820639   1818895   1817327   1815977  
  8160.000000   1814822   1813799   1812839   1811913   1811038  
  8150.000000   1810273   1809671   1809243   1808928   1808610  
  8140.000000   1808163   1807496   1806596   1805513   1804348  
  8130.000000   1803184   1802055   1800930   1799734   1798399  
  8120.000000   1796903   1795303   1793714   1792286   1791134  
  8110.000000   1790313   1789786   1789452   1789173   1788811  
  8100.000000   1788265   1787472   1786418   1785113   1783594  
  8090.000000   1781908   1780114   1778278   1776472   1774768  
  8080.000000   1773226   1771892   1770790   1769922   1769260  
  8070.000000   1768758   1768343   1767928   1767429   1766778  
  8060.000000   1765949   1764963   1763892   1762828   1761863  
  8050.000000   1761051   1760401   1759872   1759398   1758904  
  8040.000000   1758338   1757671   1756896   1756023   1755070  
  8030.000000   1754068   1753062   1752118   1751309   1750691  
  8020.000000   1750282   1750034   1749850   1749600   1749174  
  8010.000000   1748520   1747658   1746681   1745704   1744835  
  8000.000000   1744131   1743602   1743221   1742955   1742779  
  7990.000000   1742676   1742613   1742521   1742287   1741784  
  7980.000000   1740919   1739688   1738211   1736701   1735413  
  7970.000000   1734534   1734123   1734079   1734183   1734190  
  7960.000000   1733924   1733349   1732575   1731802   1731231  
  7950.000000   1730975   1731025   1731252   1731474   1731521  
  7940.000000   1731301   1730813   1730132   1729361   1728599  
  7930.000000   1727906   1727311   1726813   1726403   1726052  
  7920.000000   1725722   1725358   1724903   1724324   1723638  
  7910.000000   1722925   1722315   1721947   1721919   1722237  
  7900.000000   1722815   1723488   1724083   1724464   1724588  
  7890.000000   1724495   1724284   1724064   1723909   1723841  
  7880.000000   1723844   1723887   1723961   1724080   1724277  
  7870.000000   1724575   1724956   1725358   1725680   1725834  
  7860.000000   1725767   1725503   1725132   1724792   1724622  
  7850.000000   1724720   1725111   1725736   1726462   1727116  
  7840.000000   1727520   1727535   1727097   1726232   1725062  
  7830.000000   1723778   1722598   1721712   1721223   1721131  
  7820.000000   1721322   1721620   1721834   1721838   1721593  
  7810.000000   1721162   1720668   1720234   1719933   1719748  
  7800.000000   1719589   1719327   1718861   1718160   1717286  
  7790.000000   1716374   1715573   1715002   1714693   1714598  
  7780.000000   1714600   1714577   1714441   1714173   1713816  
  7770.000000   1713451   1713145   1712925   1712754   1712554  
  7760.000000   1712236   1711739   1711055   1710234   1709355  
  7750.000000   1708504   1707725   1707031   1706384   1705743  
  7740.000000   1705077   1704388   1703706   1703062   1702470  
  7730.000000   1701896   1701269   1700499   1699521   1698326  
  7720.000000   1696982   1695623   1694414   1693508   1693000  
  7710.000000   1692912   1693189   1693721   1694372   1695002  
  7700.000000   1695494   1695753   1695729   1695405   1694823  
  7690.000000   1694063   1693250   1692518   1691983   1691709  
  7680.000000   1691689   1691852   1692084   1692271   1692330  
  7670.000000   1692232   1691995   1691666   1691294   1690916  
  7660.000000   1690550   1690200   1689873   1689587   1689369  
  7650.000000   1689238   1689197   1689217   1689248   1689232  
  7640.000000   1689124   1688913   1688624   1688306   1688016  
  7630.000000   1687795   1687658   1687590   1687563   1687542  
  7620.000000   1687502   1687427   1687310   1687145   1686933  
  7610.000000   1686676   1686395   1686117   1685889   1685745  
  7600.000000   1685716   1685801   1685982   1686220   1686484  
  7590.000000   1686752   1687030   1687345   1687738   1688250  
  7580.000000   1688907   1689710   1690639   1691650   1692690  
  7570.000000   1693693   1694598   1695348   1695906   1696261  
  7560.000000   1696435   1696477   1696457   1696443   1696497  
  7550.000000   1696645   1696887   1697195   1697539   1697890  
  7540.000000   1698244   1698616   1699041   1699555   1700197  
  7530.000000   1700984   1701927   1703010   1704213   1705495  
  7520.000000   1706821   1708141   1709416   1710611   1711715  
  7510.000000   1712735   1713706   1714681   1715723   1716882  
  7500.000000   1718195   1719658   1721233   1722851   1724435  
  7490.000000   1725912   1727235   1728395   1729423   1730374  
  7480.000000   1731319   1732310   1733382   1734533   1735744  
  7470.000000   1736986   1738237   1739490   1740757   1742053  
  7460.000000   1743394   1744780   1746202   1747636   1749071  
  7450.000000   1750497   1751927   1753378   1754878   1756450  
  7440.000000   1758116   1759890   1761784   1763799   1765933  
  7430.000000   1768158   1770429   1772682   1774855   1776902  
  7420.000000   1778820   1780646   1782456   1784330   1786328  
  7410.000000   1788463   1790701   1792961   1795155   1797206  
  7400.000000   1799074   1800757   1802285   1803706   1805077  
  7390.000000   1806460   1807927   1809548   1811389   1813490  
  7380.000000   1815841   1818370   1820954   1823454   1825754  
  7370.000000   1827818   1829692   1831499   1833391   1835496  
  7360.000000   1837864   1840448   1843116   1845689   1848007  
  7350.000000   1849964   1851539   1852793   1853844   1854830  
  7340.000000   1855864   1857024   1858343   1859830   1861467  
  7330.000000   1863237   1865115   1867084   1869108   1871154  
  7320.000000   1873169   1875103   1876903   1878525   1879952  
  7310.000000   1881192   1882293   1883324   1884367   1885493  
  7300.000000   1886745   1888128   1889612   1891150   1892685  
  7290.000000   1894176   1895593   1896927   1898176   1899350  
  7280.000000   1900467   1901566   1902704   1903946   1905346  
  7270.000000   1906915   1908612   1910329   1911930   1913285  
  7260.000000   1914336   1915106   1915727   1916369   1917213  
  7250.000000   1918363   1919843   1921573   1923441   1925330  
  7240.000000   1927196   1929057   1931002   1933118   1935471  
  7230.000000   1938055   1940825   1943694   1946610   1949525  
  7220.000000   1952449   1955378   1958323   1961249   1964136  
  7210.000000   1966954   1969731   1972527   1975454   1978610  
  7200.000000   1982068   1985830   1989848   1994032   1998305  
  7190.000000   2002609   2006938   2011295   2015694   2020097  
  7180.000000   2024452   2028662   2032666   2036435   2040029  
  7170.000000   2043552   2047165   2051004   2055179   2059709  
  7160.000000   2064561   2069635   2074836   2080069   2085295  
  7150.000000   2090496   2095704   2100948   2106281   2111719  
  7140.000000   2117287   2122969   2128769   2134671   2140696  
  7130.000000   2146856   2153188   2159697   2166385   2173204  
  7120.000000   2180098   2186984   2193814   2200556   2207241  
  7110.000000   2213911   2220636   2227456   2234405   2241472  
  7100.000000   2248655   2255938   2263333   2270840   2278464  
  7090.000000   2286170   2293902   2301575   2309125   2316519  
  7080.000000   2323784   2330992   2338245   2345618   2353146  
  7070.000000   2360798   2368503   2376176   2383753   2391206  
  7060.000000   2398541   2405781   2412935   2420002   2426965  
  7050.000000   2433824   2440600   2447357   2454172   2461114  
  7040.000000   2468206   2475418   2482660   2489823   2496801  
  7030.000000   2503529   2509991   2516223   2522286   2528254  
  7020.000000   2534192   2540164   2546207   2552355   2558604  
  7010.000000   2564940   2571307   2577652   2583907   2590042  
  7000.000000   2596036   2601902   2607638   2613236   2618646  
  6990.000000   2623812   2628682   2633260   2637595   2641807  
  6980.000000   2646015   2650332   2654781   2659337   2663896  
  6970.000000   2668368   2672666   2676779   2680721   2684545  
  6960.000000   2688274   2691917   2695436   2698802   2701985  
  6950.000000   2705004   2707886   2710687   2713427   2716120  
  6940.000000   2718741   2721280   2723726   2726107   2728445  
  6930.000000   2730773   2733078   2735333   2737481   2739484  
  6920.000000   2741328   2743047   2744687   2746303   2747910  
  6910.000000   2749499   2751032   2752495   2753894   2755294  
  6900.000000   2756762   2758359   2760078   2761851   2763549  
  6890.000000   2765039   2766226   2767091   2767689   2768126  
  6880.000000   2768517   2768947   2769460   2770067   2770758  
  6870.000000   2771532   2772385   2773321   2774320   2775354  
  6860.000000   2776375   2777357   2778293   2779219   2780177  
  6850.000000   2781199   2782274   2783335   2784286   2785031  
  6840.000000   2785523   2785781   2785884   2785943   2786052  
  6830.000000   2786263   2786572   2786945   2787342   2787749  
  6820.000000   2788169   2788625   2789111   2789602   2790034  
  6810.000000   2790353   2790522   2790562   2790530   2790503  
  6800.000000   2790528   2790603   2790668   2790640   2790443  
  6790.000000   2790061   2789533   2788947   2788391   2787926  
  6780.000000   2787554   2787233   2786895   2786490   2785999  
  6770.000000   2785444   2784860   2784284   2783733   2783208  
  6760.000000   2782705   2782233   2781815   2781484   2781257  
  6750.000000   2781115   2781003   2780838   2780540   2780061  
  6740.000000   2779408   2778634   2777824   2777066   2776421  
  6730.000000   2775915   2775539   2775263   2775045   2774845  
  6720.000000   2774623   2774346   2773984   2773523   2772970  
  6710.000000   2772359   2771741   2771175   2770696   2770314  
  6700.000000   2769993   2769675   2769293   2768796   2768157  
  6690.000000   2767386   2766508   2765561   2764574   2763574  
  6680.000000   2762573   2761591   2760636   2759720   2758839  
  6670.000000   2757982   2757117   2756209   2755221   2754129  
  6660.000000   2752917   2751588   2750149   2748620   2747027  
  6650.000000   2745409   2743811   2742289   2740882   2739614  
  6640.000000   2738471   2737412   2736373   2735294   2734127  
  6630.000000   2732856   2731487   2730042   2728539   2726988  
  6620.000000   2725384   2723724   2722009   2720260   2718502  
  6610.000000   2716770   2715077   2713429   2711809   2710198  
  6600.000000   2708578   2706946   2705302   2703650   2701981  
  6590.000000   2700274   2698504   2696651   2694712   2692707  
  6580.000000   2690670   2688638   2686634   2684667   2682735  
  6570.000000   2680841   2678998   2677243   2675614   2674142  
  6560.000000   2672825   2671618   2670445   2669216   2667856  
  6550.000000   2666329   2664649   2662869   2661069   2659325  
  6540.000000   2657698   2656218   2654887   2653683   2652565  
  6530.000000   2651484   2650391   2649249   2648037   2646766  
  6520.000000   2645468   2644190   2642974   2641836   2640759  
  6510.000000   2639692   2638569   2637327   2635936   2634406  
  6500.000000   2632786   2631143   2629545   2628042   2626656  
  6490.000000   2625388   2624220   2623128   2622085   2621057  
  6480.000000   2620013   2618919   2617750   2616498   2615179  
  6470.000000   2613826   2612479   2611175   2609931   2608746  
  6460.000000   2607603   2606482   2605371   2604266   2603171  
  6450.000000   2602085   2601002   2599907   2598792   2597654  
  6440.000000   2596515   2595402   2594345   2593352   2592410  
  6430.000000   2591481   2590534   2589555   2588571   2587645  
  6420.000000   2586858   2586272   2585910   2585734   2585666  
  6410.000000   2585608   2585484   2585251   2584913   2584495  
  6400.000000   2584036   2583555   2583059   2582540   2581995  
  6390.000000   2581433   2580878   2580354   2579872   2579424  
  6380.000000   2578984   2578525   2578032   2577520   2577024  
  6370.000000   2576593   2576257   2576017   2575830   2575632  
  6360.000000   2575350   2574931   2574353   2573630   2572800  
  6350.000000   2571910   2570997   2570093   2569212   2568371  
  6340.000000   2567575   2566834   2566145   2565505   2564896  
  6330.000000   2564300   2563693   2563058   2562374   2561630  
  6320.000000   2560810   2559910   2558929   2557882   2556794  
  6310.000000   2555705   2554643   2553627   2552647   2551677  
  6300.000000   2550673   2549603   2548443   2547194   2545866  
  6290.000000   2544479   2543042   2541561   2540036   2538483  
  6280.000000   2536924   2535401   2533947   2532583   2531295  
  6270.000000   2530041   2528760   2527398   2525924   2524345  
  6260.000000   2522692   2521010   2519330   2517661   2515986  
  6250.000000   2514282   2512533   2510747   2508953   2507189  
  6240.000000   2505485   2503848   2502260   2500687   2499094  
  6230.000000   2497461   2495786   2494083   2492370   2490661  
  6220.000000   2488962   2487273   2485595   2483935   2482309  
  6210.000000   2480729   2479202   2477718   2476258   2474798  
  6200.000000   2473328   2471853   2470396   2468986   2467645  
  6190.000000   2466374   2465151   2463939   2462697   2461397  
  6180.000000   2460029   2458601   2457137   2455658   2454185  
  6170.000000   2452734   2451315   2449938   2448614   2447350  
  6160.000000   2446148   2444999   2443887   2442792   2441698  
  6150.000000   2440597   2439494   2438400   2437330   2436297  
  6140.000000   2435306   2434357   2433446   2432561   2431693  
  6130.000000   2430822   2429935   2429013   2428046   2427033  
  6120.000000   2425991   2424944   2423927   2422966   2422087  
  6110.000000   2421297   2420598   2419980   2419440   2418967  
  6100.000000   2418555   2418191   2417866   2417564   2417283  
  6090.000000   2417025   2416812   2416665   2416613   2416660  
  6080.000000   2416802   2417005   2417241   2417469   2417681  
  6070.000000   2417871   2418064   2418272   2418518   2418805  
  6060.000000   2419143   2419533   2419996   2420553   2421240  
  6050.000000   2422076   2423072   2424208   2425459   2426782  
  6040.000000   2428153   2429550   2430983   2432457   2433993  
  6030.000000   2435593   2437265   2438997   2440792   2442643  
  6020.000000   2444558   2446533   2448572   2450658   2452781  
  6010.000000   2454916   2457054   2459180   2461295   2463392  
  6000.000000   2465477   2467541   2469593   2471638   2473705  
  5990.000000   2475821   2478022   2480329   2482753   2485278  
  5980.000000   2487883   2490534   2493213   2495908   2498629  
  5970.000000   2501382   2504185   2507039   2509957   2512933  
  5960.000000   2515984   2519112   2522331   2525630   2529001  
  5950.000000   2532406   2535821   2539221   2542614   2546025  
  5940.000000   2549505   2553105   2556861   2560784   2564854  
  5930.000000   2569026   2573244   2577453   2581601   2585643  
  5920.000000   2589537   2593246   2596738   2600001   2603044  
  5910.000000   2605900   2608622   2611265   2613873   2616477  
  5900.000000   2619082   2621698   2624325   2626990   2629715  
  5890.000000   2632539   2635470   2638508   2641617   2644749  
  5880.000000   2647848   2650865   2653765   2656523   2659122  
  5870.000000   2661546   2663788   2665845   2667742   2669524  
  5860.000000   2671258   2673021   2674875   2676862   2678986  
  5850.000000   2681233   2683566   2685955   2688376   2690816  
  5840.000000   2693271   2695740   2698219   2700704   2703195  
  5830.000000   2705692   2708206   2710738   2713288   2715839  
  5820.000000   2718369   2720851   2723267   2725617   2727915  
  5810.000000   2730187   2732453   2734737   2737031   2739344  
  5800.000000   2741654   2743975   2746295   2748635   2750967  
  5790.000000   2753279   2755497   2757558   2759353   2760800  
  5780.000000   2761796   2762286   2762214   2761584   2760417  
  5770.000000   2758800   2756839   2754685   2752469   2750324  
  5760.000000   2748314   2746477   2744784   2743209   2741704  
  5750.000000   2740265   2738894   2737623   2736478   2735476  
  5740.000000   2734611   2733856   2733175   2732525   2731877  
  5730.000000   2731204   2730495   2729740   2728940   2728100  
  5720.000000   2727241   2726386   2725565   2724800   2724104  
  5710.000000   2723467   2722877   2722311   2721756   2721208  
  5700.000000   2720671   2720153   2719656   2719179   2718712  
  5690.000000   2718259   2717823   2717429   2717092   2716826  
  5680.000000   2716612   2716414   2716162   2715790   2715231  
  5670.000000   2714444   2713405   2712116   2710582   2708823  
  5660.000000   2706859   2704730   2702484   2700197   2697937  
  5650.000000   2695776   2693749   2691869   2690113   2688446  
  5640.000000   2686830   2685241   2683672   2682124   2680608  
  5630.000000   2679126   2677683   2676274   2674907   2673584  
  5620.000000   2672320   2671113   2669960   2668841   2667737  
  5610.000000   2666632   2665532   2664455   2663433   2662489  
  5600.000000   2661631   2660842   2660091   2659341   2658569  
  5590.000000   2657774   2656975   2656198   2655461   2654768  
  5580.000000   2654099   2653426   2652719   2651961   2651149  
  5570.000000   2650290   2649386   2648437   2647433   2646366  
  5560.000000   2645233   2644049   2642836   2641623   2640426  
  5550.000000   2639250   2638084   2636912   2635720   2634512  
  5540.000000   2633299   2632102   2630937   2629807   2628704  
  5530.000000   2627617   2626539   2625474   2624437   2623444  
  5520.000000   2622502   2621604   2620726   2619839   2618912  
  5510.000000   2617927   2616878   2615769   2614608   2613403  
  5500.000000   2612161   2610893   2609616   2608356   2607133  
  5490.000000   2605959   2604818   2603685   2602516   2601281  
  5480.000000   2599961   2598571   2597132   2595676   2594216  
  5470.000000   2592746   2591238   2589666   2588012   2586283  
  5460.000000   2584501   2582699   2580896   2579095   2577280  
  5450.000000   2575430   2573536   2571607   2569677   2567783  
  5440.000000   2565961   2564219   2562553   2560941   2559371  
  5430.000000   2557838   2556357   2554937   2553591   2552305  
  5420.000000   2551071   2549863   2548691   2547567   2546540  
  5410.000000   2545643   2544912   2544336   2543900   2543554  
  5400.000000   2543282   2543057   2542903   2542828   2542872  
  5390.000000   2543039   2543352   2543799   2544407   2545180  
  5380.000000   2546164   2547364   2548807   2550456   2552301  
  5370.000000   2554276   2556380   2558578   2560915   2563391  
  5360.000000   2566073   2568956   2572099   2575489   2579196  
  5350.000000   2583222   2587656   2592496   2597815   2603566  
  5340.000000   2609781   2616387   2623427   2630849   2638730  
  5330.000000   2647035   2655844   2665105   2674886   2685136  
  5320.000000   2695957   2707338   2719428   2732228   2745874  
  5310.000000   2760315   2775623   2791689   2808560   2826144  
  5300.000000   2844537   2863710   2883819   2904869   2927008  
  5290.000000   2950194   2974474   2999695   3025782   3052521  
  5280.000000   3079836   3107604   3135885   3164711   3194238  
  5270.000000   3224510   3255558   3287244   3319370   3351673  
  5260.000000   3383934   3416033   3447946   3479751   3511493  
  5250.000000   3543203   3574747   3605968   3636574   3666407  
  5240.000000   3695274   3723232   3750283   3776630   3802313  
  5230.000000   3827480   3852042   3875999   3899137   3921408  
  5220.000000   3942629   3962860   3982053   4000400   4017933  
  5210.000000   4034854   4051125   4066815   4081746   4095891  
  5200.000000   4109058   4121293   4132527   4142922   4152476  
  5190.000000   4161338   4169449   4176874   4183503   4189400  
  5180.000000   4194507   4198952   4202725   4205951   4208581  
  5170.000000   4210669   4212122   4212984   4213203   4212881  
  5160.000000   4212021   4210735   4208999   4206872   4204288  
  5150.000000   4201283   4197817   4193964   4189727   4185194  
  5140.000000   4180361   4175284   4169929   4164335   4158481  
  5130.000000   4152416   4146141   4139704   4133098   4126351  
  5120.000000   4119446   4112412   4105255   4098022   4090735  
  5110.000000   4083437   4076131   4068836   4061545   4054275  
  5100.000000   4047031   4039839   4032706   4025639   4018616  
  5090.000000   4011614   4004601   3997563   3990499   3983427  
  5080.000000   3976366   3969334   3962326   3955333   3948328  
  5070.000000   3941298   3934231   3927138   3920024   3912901  
  5060.000000   3905760   3898590   3891363   3884064   3876681  
  5050.000000   3869227   3861714   3854168   3846601   3839022  
  5040.000000   3831426   3823812   3816174   3808522   3800868  
  5030.000000   3793230   3785626   3778067   3770562   3763114  
  5020.000000   3755730   3748410   3741169   3734007   3726945  
  5010.000000   3719983   3713146   3706437   3699885   3693491  
  5000.000000   3687278   3681230   3675358   3669634   3664074  
  4990.000000   3658661   3653438   3648411   3643639   3639127  
  4980.000000   3634918   3630991   3627365   3624002   3620923  
  4970.000000   3618100   3615572   3613323   3611398   3609776  
  4960.000000   3608496   3607529   3606919   3606641   3606752  
  4950.000000   3607231   3608130   3609414   3611112   3613170  
  4940.000000   3615608   3618370   3621488   3624922   3628717  
  4930.000000   3632843   3637348   3642200   3647443   3653042  
  4920.000000   3659030   3665368   3672075   3679104   3686465  
  4910.000000   3694115   3702068   3710293   3718805   3727575  
  4900.000000   3736594   3745817   3755205   3764704   3774263  
  4890.000000   3783839   3793388   3802878   3812260   3821505  
  4880.000000   3830549   3839365   3847887   3856098   3863928  
  4870.000000   3871364   3878327   3884803   3890719   3896084  
  4860.000000   3900862   3905108   3908825   3912090   3914910  
  4850.000000   3917352   3919409   3921134   3922526   3923653  
  4840.000000   3924532   3925237   3925786   3926234   3926580  
  4830.000000   3926858   3927067   3927241   3927403   3927595  
  4820.000000   3927848   3928194   3928647   3929210   3929879  
  4810.000000   3930642   3931490   3932408   3933390   3934419  
  4800.000000   3935494   3936604   3937757   3938960   3940233  
  4790.000000   3941588   3943042   3944594   3946239   3947962  
  4780.000000   3949749   3951585   3953463   3955376   3957315  
  4770.000000   3959265   3961202   3963097   3964917   3966640  
  4760.000000   3968254   3969764   3971185   3972545   3973865  
  4750.000000   3975165   3976449   3977718   3978953   3980142  
  4740.000000   3981262   3982304   3983259   3984135   3984940  
  4730.000000   3985691   3986401   3987081   3987737   3988372  
  4720.000000   3988989   3989593   3990200   3990825   3991491  
  4710.000000   3992214   3993009   3993877   3994825   3995848  
  4700.000000   3996956   3998158   3999476   4000926   4002529  
  4690.000000   4004287   4006201   4008253   4010423   4012677  
  4680.000000   4014990   4017320   4019639   4021904   4024093  
  4670.000000   4026174   4028148   4030014   4031803   4033542  
  4660.000000   4035279   4037050   4038900   4040859   4042961  
  4650.000000   4045226   4047671   4050303   4053114   4056090  
  4640.000000   4059201   4062415   4065695   4069012   4072331  
  4630.000000   4075625   4078854   4081983   4084959   4087743  
  4620.000000   4090283   4092556   4094535   4096227   4097630  
  4610.000000   4098775   4099674   4100372   4100892   4101289  
  4600.000000   4101590   4101853   4102088   4102334   4102567  
  4590.000000   4102788   4102941   4102998   4102892   4102591  
  4580.000000   4102039   4101223   4100115   4098730   4097075  
  4570.000000   4095195   4093122   4090912   4088597   4086220  
  4560.000000   4083793   4081335   4078842   4076323   4073772  
  4550.000000   4071201   4068612   4066018   4063421   4060828  
  4540.000000   4058241   4055663   4053098   4050548   4048019  
  4530.000000   4045507   4043020   4040547   4038103   4035683  
  4520.000000   4033319   4031013   4028809   4026706   4024748  
  4510.000000   4022929   4021304   4019876   4018733   4017898  
  4500.000000   4017483   4017509   4018080   4019186   4020907  
  4490.000000   4023211   4026171   4029759   4034059   4039048  
  4480.000000   4044806   4051291   4058560   4066544   4075277  
  4470.000000   4084675   4094754   4105415   4116652   4128348  
  4460.000000   4140477   4152927   4165675   4178638   4191817  
  4450.000000   4205157   4218666   4232298   4246050   4259882  
  4440.000000   4273784   4287736   4301734   4315782   4329869  
  4430.000000   4344004   4358149   4372294   4386364   4400331  
  4420.000000   4414090   4427604   4440754   4453500   4465716  
  4410.000000   4477359   4488307   4498525   4507915   4516483  
  4400.000000   4524188   4531101   4537251   4542767   4547722  
  4390.000000   4552265   4556475   4560484   4564351   4568178  
  4380.000000   4572000   4575890   4579863   4583969   4588216  
  4370.000000   4592640   4597247   4602060   4607079   4612312  
  4360.000000   4617741   4623359   4629122   4635014   4640960  
  4350.000000   4646936   4652839   4658649   4664264   4669689  
  4340.000000   4674847   4679748   4684292   4688393   4691808  
  4330.000000   4694273   4695406   4694885   4692442   4688028  
  4320.000000   4681793   4674157   4665679   4657023   4648774  
  4310.000000   4641412   4635190   4630200   4626356   4623506  
  4300.000000   4621462   4620059   4619181   4618730   4618666  
  4290.000000   4618929   4619516   4620393   4621588   4623096  
  4280.000000   4624948   4627129   4629614   4632342   4635224  
  4270.000000   4638171   4641072   4643831   4646310   4648365  
  4260.000000   4649795   4650399   4649971   4648387   4645606  
  4250.000000   4641746   4637023   4631775   4626336   4621053  
  4240.000000   4616147   4611781   4607963   4604655   4601730  
  4230.000000   4599067   4596532   4594019   4591455   4588789  
  4220.000000   4586026   4583174   4580308   4577483   4574812  
  4210.000000   4572354   4570203   4568382   4566933   4565839  
  4200.000000   4565104   4564689   4564589   4564757   4565185  
  4190.000000   4565821   4566657   4567642   4568784   4570041  
  4180.000000   4571445   4572966   4574646   4576465   4578473  
  4170.000000   4580664   4583109   4585821   4588888   4592330  
  4160.000000   4596224   4600563   4605396   4610685   4616457  
  4150.000000   4622656   4629305   4636346   4643803   4651619  
  4140.000000   4659830   4668392   4677361   4686709   4696503  
  4130.000000   4706712   4717386   4728476   4740013   4751944  
  4120.000000   4764307   4777075   4790314   4804026   4818284  
  4110.000000   4833085   4848471   4864395   4880839   4897710  
  4100.000000   4914945   4932438   4950132   4967959   4985903  
  4090.000000   5003953   5022115   5040391   5058760   5077205  
  4080.000000   5095667   5114119   5132498   5150791   5168929  
  4070.000000   5186895   5204584   5221953   5238870   5255302  
  4060.000000   5271144   5286416   5301054   5315116   5328543  
  4050.000000   5341400   5353624   5365297   5376371   5386941  
  4040.000000   5396950   5406464   5415382   5423734   5431401  
  4030.000000   5438428   5444730   5450379   5455327   5459639  
  4020.000000   5463244   5466210   5468525   5470273   5471411  
  4010.000000   5472064   5472295   5472105   5471265   5469809  
  4000.000000   5468042  
##END= 
