##TITLE= Sample 015 By ssteindl date Dienstag, November 20 2018
##JCAMP-DX= 4.24
##DATA TYPE= INFRARED SPECTRUM
##ORIGIN= Exported PE Spectrum Data File
##OWNER= Sandra Steindl
##DATE= 18/11/20
##TIME= 17:08:44.00
##SPECTROMETER/DATA SYSTEM= PERKIN-ELMER Frontier FT-IR/NIR IR
##INSTRUMENT PARAMETERS=
  APODIZATION=stark
  DETECTOR=INGAAS
##RESOLUTION= 16.000000
##DELTAX= -2.000000
##XUNITS= 1/CM
##YUNITS= A
##XFACTOR= 1.00
##YFACTOR= 0.00000011920928955078
##FIRSTX= 10000.00
##LASTX= 4000.00
##NPOINTS= 3001
##FIRSTY= 0.380200
##MAXY= 0.620456
##MINY= 0.291578
##XYDATA= (X++(Y..Y))
 10000.000000   3189351   3195121   3200051   3203205   3204557  
  9990.000000   3204874   3204591   3203850   3202706   3201421  
  9980.000000   3200185   3199188   3198509   3197958   3196875  
  9970.000000   3194310   3189377   3181699   3171618   3160242  
  9960.000000   3149078   3139661   3133113   3129963   3130058  
  9950.000000   3132694   3136782   3141143   3144738   3146872  
  9940.000000   3147258   3145963   3143388   3140102   3136878  
  9930.000000   3134371   3133102   3133086   3133946   3134878  
  9920.000000   3135038   3133803   3131072   3127307   3123405  
  9910.000000   3120350   3118963   3119615   3122273   3126471  
  9900.000000   3131558   3136775   3141468   3145206   3147886  
  9890.000000   3149839   3151691   3154287   3158315   3164157  
  9880.000000   3171650   3180149   3188610   3195860   3200828  
  9870.000000   3202883   3201854   3198144   3192345   3185195  
  9860.000000   3177276   3169125   3161256   3154203   3148488  
  9850.000000   3144334   3141533   3139254   3136266   3131278  
  9840.000000   3123510   3113070   3101120   3089646   3080937  
  9830.000000   3076989   3078895   3086621   3098948   3113903  
  9820.000000   3129273   3143167   3154387   3162388   3167186  
  9810.000000   3168947   3167988   3164525   3158947   3151659  
  9800.000000   3143336   3134733   3126691   3119993   3115108  
  9790.000000   3112311   3111429   3112276   3114453   3117734  
  9780.000000   3121841   3126554   3131575   3136484   3140817  
  9770.000000   3143979   3145491   3144867   3141920   3136641  
  9760.000000   3129472   3121161   3112796   3105558   3100474  
  9750.000000   3098220   3098911   3102192   3107256   3113185  
  9740.000000   3119072   3124322   3128642   3132078   3134826  
  9730.000000   3137099   3139022   3140570   3141671   3142215  
  9720.000000   3142160   3141475   3140125   3138036   3135090  
  9710.000000   3131250   3126589   3121415   3116156   3111337  
  9700.000000   3107349   3104407   3102457   3101260   3100492  
  9690.000000   3099877   3099288   3098711   3098215   3097781  
  9680.000000   3097323   3096624   3095547   3094061   3092395  
  9670.000000   3090940   3090157   3090405   3091792   3094184  
  9660.000000   3097222   3100515   3103736   3106722   3109412  
  9650.000000   3111765   3113626   3114699   3114603   3113021  
  9640.000000   3109900   3105510   3100467   3095512   3091308  
  9630.000000   3088205   3086127   3084665   3083226   3081367  
  9620.000000   3078939   3076232   3073810   3072356   3072355  
  9610.000000   3073940   3076815   3080327   3083698   3086189  
  9600.000000   3087347   3087030   3085411   3082850   3079747  
  9590.000000   3076471   3073312   3070523   3068364   3067061  
  9580.000000   3066755   3067359   3068501   3069546   3069729  
  9570.000000   3068399   3065241   3060458   3054798   3049385  
  9560.000000   3045431   3043834   3044886   3048149   3052599  
  9550.000000   3056967   3060170   3061623   3061364   3059914  
  9540.000000   3058033   3056395   3055402   3055076   3055186  
  9530.000000   3055367   3055376   3055133   3054748   3054399  
  9520.000000   3054183   3054099   3054012   3053810   3053448  
  9510.000000   3053023   3052725   3052744   3053196   3054046  
  9500.000000   3055112   3056116   3056745   3056742   3055987  
  9490.000000   3054520   3052579   3050515   3048726   3047538  
  9480.000000   3047081   3047293   3047858   3048383   3048468  
  9470.000000   3047958   3046999   3046071   3045757   3046483  
  9460.000000   3048214   3050376   3051978   3051964   3049635  
  9450.000000   3044946   3038566   3031671   3025524   3021055  
  9440.000000   3018573   3017707   3017678   3017612   3016922  
  9430.000000   3015401   3013193   3010580   3007821   3005075  
  9420.000000   3002486   3000301   2998985   2999118   3001196  
  9410.000000   3005312   3010994   3017221   3022753   3026519  
  9400.000000   3028071   3027646   3026121   3024493   3023520  
  9390.000000   3023334   3023512   3023377   3022410   3020642  
  9380.000000   3018613   3017291   3017563   3019998   3024484  
  9370.000000   3030354   3036521   3041870   3045524   3046963  
  9360.000000   3046058   3042936   3037966   3031684   3024789  
  9350.000000   3018103   3012415   3008374   3006241   3005917  
  9340.000000   3006878   3008488   3010109   3011393   3012227  
  9330.000000   3012653   3012684   3012114   3010630   3007845  
  9320.000000   3003631   2998138   2991909   2985680   2980217  
  9310.000000   2976076   2973513   2972504   2972875   2974435  
  9300.000000   2976986   2980280   2983887   2987211   2989581  
  9290.000000   2990510   2989931   2988294   2986491   2985515  
  9280.000000   2986101   2988295   2991435   2994325   2995789  
  9270.000000   2995060   2992051   2987311   2981749   2976348  
  9260.000000   2971819   2968566   2966669   2966129   2966919  
  9250.000000   2969066   2972454   2976692   2981035   2984535  
  9240.000000   2986346   2985992   2983559   2979591   2974927  
  9230.000000   2970325   2966290   2962951   2960238   2958083  
  9220.000000   2956571   2955979   2956511   2958161   2960485  
  9210.000000   2962764   2964213   2964331   2963144   2961187  
  9200.000000   2959330   2958274   2958275   2958946   2959514  
  9190.000000   2959110   2957223   2953942   2949988   2946412  
  9180.000000   2944147   2943691   2944946   2947375   2950231  
  9170.000000   2952905   2955077   2956742   2958042   2959123  
  9160.000000   2960004   2960615   2960851   2960677   2960177  
  9150.000000   2959481   2958690   2957745   2956431   2954458  
  9140.000000   2951612   2947907   2943623   2939256   2935368  
  9130.000000   2932403   2930560   2929764   2929740   2930133  
  9120.000000   2930634   2931051   2931362   2931652   2932087  
  9110.000000   2932804   2933890   2935331   2937018   2938752  
  9100.000000   2940309   2941499   2942269   2942717   2943073  
  9090.000000   2943595   2944428   2945508   2946520   2946993  
  9080.000000   2946472   2944727   2941876   2938409   2935017  
  9070.000000   2932395   2930970   2930804   2931560   2932692  
  9060.000000   2933623   2933966   2933582   2932585   2931233  
  9050.000000   2929814   2928548   2927534   2926785   2926232  
  9040.000000   2925797   2925344   2924752   2923883   2922678  
  9030.000000   2921174   2919536   2918034   2916958   2916538  
  9020.000000   2916837   2917763   2919104   2920657   2922274  
  9010.000000   2923932   2925635   2927394   2929104   2930530  
  9000.000000   2931355   2931283   2930218   2928241   2925635  
  8990.000000   2922705   2919694   2916661   2913472   2909983  
  8980.000000   2906153   2902239   2898720   2896284   2895527  
  8970.000000   2896767   2899787   2903909   2908139   2911416  
  8960.000000   2912919   2912235   2909540   2905393   2900603  
  8950.000000   2895918   2891922   2888879   2886760   2885344  
  8940.000000   2884372   2883683   2883226   2883105   2883453  
  8930.000000   2884383   2885844   2887639   2889451   2890911  
  8920.000000   2891734   2891750   2891016   2889716   2888142  
  8910.000000   2886556   2885182   2884123   2883394   2882929  
  8900.000000   2882618   2882347   2881999   2881522   2880924  
  8890.000000   2880336   2879965   2880078   2880882   2882436  
  8880.000000   2884557   2886838   2888740   2889762   2889613  
  8870.000000   2888329   2886268   2883975   2881974   2880574  
  8860.000000   2879774   2879291   2878701   2877651   2876003  
  8850.000000   2873900   2871667   2869692   2868251   2867436  
  8840.000000   2867154   2867196   2867358   2867485   2867511  
  8830.000000   2867399   2867116   2866615   2865864   2864916  
  8820.000000   2863937   2863195   2862974   2863446   2864571  
  8810.000000   2866065   2867466   2868288   2868182   2867069  
  8800.000000   2865153   2862840   2860590   2858757   2857506  
  8790.000000   2856796   2856441   2856193   2855834   2855218  
  8780.000000   2854283   2853052   2851602   2850078   2848660  
  8770.000000   2847562   2846970   2846998   2847627   2848689  
  8760.000000   2849902   2850931   2851499   2851431   2850724  
  8750.000000   2849482   2847899   2846153   2844381   2842659  
  8740.000000   2841023   2839530   2838269   2837388   2837050  
  8730.000000   2837392   2838462   2840179   2842307   2844484  
  8720.000000   2846288   2847320   2847325   2846244   2844285  
  8710.000000   2841872   2839565   2837909   2837271   2837746  
  8700.000000   2839103   2840901   2842606   2843796   2844257  
  8690.000000   2844046   2843406   2842644   2841967   2841408  
  8680.000000   2840816   2839956   2838631   2836807   2834656  
  8670.000000   2832512   2830756   2829684   2829399   2829774  
  8660.000000   2830486   2831114   2831274   2830703   2829356  
  8650.000000   2827378   2825110   2822961   2821339   2820540  
  8640.000000   2820692   2821728   2823402   2825375   2827303  
  8630.000000   2828952   2830229   2831199   2832012   2832804  
  8620.000000   2833628   2834378   2834856   2834788   2833998  
  8610.000000   2832428   2830230   2827696   2825195   2823070  
  8600.000000   2821540   2820699   2820505   2820872   2821690  
  8590.000000   2822900   2824468   2826374   2828540   2830832  
  8580.000000   2833044   2834945   2836333   2837080   2837186  
  8570.000000   2836753   2835979   2835069   2834199   2833452  
  8560.000000   2832806   2832153   2831331   2830201   2828674  
  8550.000000   2826785   2824659   2822537   2820681   2819351  
  8540.000000   2818703   2818782   2819483   2820587   2821786  
  8530.000000   2822767   2823279   2823180   2822477   2821285  
  8520.000000   2819823   2818306   2816922   2815739   2814750  
  8510.000000   2813852   2812946   2811948   2810852   2809742  
  8500.000000   2808755   2808068   2807810   2808089   2808934  
  8490.000000   2810333   2812211   2814458   2816932   2819431  
  8480.000000   2821711   2823483   2824502   2824576   2823658  
  8470.000000   2821837   2819379   2816645   2814023   2811853  
  8460.000000   2810342   2809588   2809516   2809997   2810820  
  8450.000000   2811827   2812888   2813942   2814965   2815935  
  8440.000000   2816814   2817469   2817706   2817266   2815957  
  8430.000000   2813708   2810666   2807207   2803890   2801343  
  8420.000000   2800049   2800239   2801769   2804207   2806916  
  8410.000000   2809267   2810784   2811266   2810794   2809626  
  8400.000000   2808087   2806427   2804814   2803286   2801848  
  8390.000000   2800482   2799220   2798114   2797197   2796473  
  8380.000000   2795893   2795419   2795025   2794764   2794716  
  8370.000000   2794981   2795583   2796450   2797398   2798196  
  8360.000000   2798653   2798682   2798326   2797706   2796949  
  8350.000000   2796096   2795085   2793763   2791987   2789702  
  8340.000000   2787020   2784202   2781581   2779473   2778058  
  8330.000000   2777373   2777291   2777640   2778229   2778947  
  8320.000000   2779731   2780563   2781415   2782206   2782816  
  8310.000000   2783077   2782854   2782046   2780643   2778695  
  8300.000000   2776329   2773721   2771090   2768682   2766711  
  8290.000000   2765348   2764631   2764490   2764713   2765041  
  8280.000000   2765216   2765079   2764593   2763833   2762928  
  8270.000000   2761969   2760972   2759842   2758451   2756691  
  8260.000000   2754578   2752261   2750000   2748082   2746720  
  8250.000000   2745991   2745804   2745953   2746182   2746272  
  8240.000000   2746097   2745634   2744941   2744111   2743246  
  8230.000000   2742421   2741689   2741067   2740552   2740110  
  8220.000000   2739687   2739219   2738638   2737915   2737047  
  8210.000000   2736095   2735137   2734266   2733531   2732933  
  8200.000000   2732412   2731871   2731201   2730304   2729102  
  8190.000000   2727554   2725650   2723440   2721024   2718571  
  8180.000000   2716275   2714329   2712854   2711860   2711214  
  8170.000000   2710678   2709963   2708841   2707218   2705176  
  8160.000000   2702945   2700802   2698985   2697584   2696532  
  8150.000000   2695621   2694600   2693269   2691572   2689618  
  8140.000000   2687650   2685957   2684780   2684230   2684256  
  8130.000000   2684665   2685186   2685535   2685501   2684978  
  8120.000000   2683988   2682668   2681216   2679851   2678740  
  8110.000000   2677972   2677533   2677324   2677192   2676974  
  8100.000000   2676535   2675803   2674758   2673435   2671887  
  8090.000000   2670177   2668364   2666515   2664709   2663041  
  8080.000000   2661610   2660492   2659705   2659204   2658870  
  8070.000000   2658554   2658108   2657432   2656492   2655321  
  8060.000000   2654001   2652620   2651251   2649923   2648634  
  8050.000000   2647359   2646071   2644758   2643423   2642089  
  8040.000000   2640782   2639533   2638372   2637322   2636405  
  8030.000000   2635614   2634920   2634245   2633486   2632530  
  8020.000000   2631306   2629814   2628162   2626540   2625187  
  8010.000000   2624306   2623999   2624221   2624781   2625404  
  8000.000000   2625816   2625833   2625412   2624659   2623769  
  7990.000000   2622951   2622349   2621991   2621800   2621630  
  7980.000000   2621336   2620823   2620073   2619131   2618062  
  7970.000000   2616931   2615761   2614570   2613371   2612218  
  7960.000000   2611188   2610375   2609832   2609537   2609378  
  7950.000000   2609179   2608759   2607983   2606827   2605361  
  7940.000000   2603730   2602084   2600536   2599126   2597847  
  7930.000000   2596684   2595652   2594824   2594300   2594175  
  7920.000000   2594459   2595068   2595810   2596448   2596763  
  7910.000000   2596621   2596014   2595032   2593834   2592574  
  7900.000000   2591363   2590249   2589231   2588288   2587403  
  7890.000000   2586576   2585814   2585121   2584475   2583842  
  7880.000000   2583178   2582462   2581708   2580960   2580283  
  7870.000000   2579722   2579286   2578939   2578612   2578233  
  7860.000000   2577755   2577185   2576574   2576007   2575563  
  7850.000000   2575291   2575178   2575157   2575115   2574920  
  7840.000000   2574466   2573683   2572571   2571186   2569630  
  7830.000000   2568025   2566477   2565065   2563823   2562758  
  7820.000000   2561857   2561120   2560557   2560203   2560082  
  7810.000000   2560198   2560497   2560873   2561180   2561258  
  7800.000000   2560993   2560332   2559318   2558065   2556736  
  7790.000000   2555492   2554449   2553660   2553099   2552691  
  7780.000000   2552328   2551918   2551395   2550745   2549992  
  7770.000000   2549189   2548384   2547598   2546813   2545963  
  7760.000000   2544969   2543759   2542315   2540685   2538992  
  7750.000000   2537402   2536075   2535117   2534543   2534278  
  7740.000000   2534171   2534062   2533819   2533388   2532786  
  7730.000000   2532089   2531388   2530745   2530173   2529626  
  7720.000000   2529030   2528297   2527369   2526213   2524849  
  7710.000000   2523320   2521692   2520045   2518453   2516998  
  7700.000000   2515745   2514753   2514050   2513644   2513501  
  7690.000000   2513559   2513723   2513880   2513907   2513687  
  7680.000000   2513130   2512183   2510864   2509251   2507484  
  7670.000000   2505732   2504156   2502873   2501917   2501252  
  7660.000000   2500771   2500355   2499895   2499341   2498691  
  7650.000000   2497989   2497287   2496618   2495979   2495333  
  7640.000000   2494625   2493805   2492852   2491774   2490612  
  7630.000000   2489424   2488268   2487196   2486237   2485407  
  7620.000000   2484699   2484095   2483558   2483047   2482516  
  7610.000000   2481926   2481253   2480490   2479655   2478771  
  7600.000000   2477876   2476994   2476146   2475335   2474556  
  7590.000000   2473796   2473041   2472294   2471567   2470904  
  7580.000000   2470356   2469984   2469826   2469880   2470089  
  7570.000000   2470332   2470460   2470320   2469815   2468927  
  7560.000000   2467735   2466382   2465036   2463838   2462859  
  7550.000000   2462101   2461500   2460980   2460480   2459992  
  7540.000000   2459544   2459189   2458958   2458853   2458824  
  7530.000000   2458788   2458659   2458361   2457864   2457165  
  7520.000000   2456302   2455321   2454282   2453238   2452247  
  7510.000000   2451357   2450605   2450012   2449574   2449274  
  7500.000000   2449085   2448989   2448982   2449073   2449272  
  7490.000000   2449567   2449914   2450230   2450416   2450379  
  7480.000000   2450077   2449531   2448829   2448102   2447495  
  7470.000000   2447119   2447027   2447197   2447550   2447967  
  7460.000000   2448327   2448529   2448520   2448304   2447937  
  7450.000000   2447513   2447137   2446895   2446837   2446970  
  7440.000000   2447253   2447624   2448022   2448414   2448790  
  7430.000000   2449154   2449509   2449830   2450066   2450141  
  7420.000000   2449993   2449589   2448960   2448188   2447392  
  7410.000000   2446694   2446188   2445933   2445945   2446214  
  7400.000000   2446710   2447391   2448193   2449032   2449796  
  7390.000000   2450381   2450714   2450790   2450684   2450534  
  7380.000000   2450507   2450726   2451230   2451946   2452721  
  7370.000000   2453372   2453751   2453794   2453535   2453091  
  7360.000000   2452610   2452235   2452056   2452116   2452401  
  7350.000000   2452868   2453455   2454094   2454712   2455242  
  7340.000000   2455634   2455866   2455950   2455927   2455854  
  7330.000000   2455776   2455712   2455647   2455549   2455393  
  7320.000000   2455184   2454972   2454834   2454851   2455063  
  7310.000000   2455459   2455965   2456472   2456875   2457105  
  7300.000000   2457149   2457044   2456854   2456646   2456476  
  7290.000000   2456376   2456368   2456454   2456629   2456864  
  7280.000000   2457109   2457296   2457351   2457230   2456942  
  7270.000000   2456561   2456208   2456010   2456062   2456379  
  7260.000000   2456897   2457483   2457992   2458305   2458380  
  7250.000000   2458245   2457995   2457742   2457594   2457619  
  7240.000000   2457850   2458285   2458910   2459698   2460629  
  7230.000000   2461658   2462740   2463803   2464782   2465607  
  7220.000000   2466254   2466709   2467016   2467232   2467456  
  7210.000000   2467781   2468317   2469145   2470329   2471881  
  7200.000000   2473769   2475916   2478228   2480603   2482970  
  7190.000000   2485283   2487542   2489755   2491945   2494106  
  7180.000000   2496228   2498268   2500207   2502026   2503749  
  7170.000000   2505414   2507091   2508839   2510716   2512753  
  7160.000000   2514966   2517346   2519881   2522545   2525319  
  7150.000000   2528173   2531095   2534067   2537096   2540177  
  7140.000000   2543329   2546543   2549816   2553117   2556433  
  7130.000000   2559737   2563046   2566373   2569769   2573263  
  7120.000000   2576885   2580626   2584467   2588364   2592290  
  7110.000000   2596221   2600169   2604145   2608187   2612310  
  7100.000000   2616537   2620865   2625296   2629806   2634384  
  7090.000000   2638999   2643639   2648290   2652971   2657714  
  7080.000000   2662574   2667592   2672790   2678130   2683531  
  7070.000000   2688872   2694036   2698947   2703607   2708084  
  7060.000000   2712499   2716975   2721604   2726413   2731368  
  7050.000000   2736382   2741358   2746209   2750882   2755359  
  7040.000000   2759660   2763833   2767948   2772097   2776376  
  7030.000000   2780870   2785622   2790616   2795763   2800936  
  7020.000000   2805985   2810810   2815368   2819707   2823916  
  7010.000000   2828101   2832324   2836589   2840831   2844962  
  7000.000000   2848893   2852588   2856053   2859349   2862537  
  6990.000000   2865690   2868844   2872033   2875262   2878544  
  6980.000000   2881865   2885208   2888511   2891709   2894712  
  6970.000000   2897474   2899972   2902254   2904384   2906447  
  6960.000000   2908487   2910516   2912498   2914394   2916161  
  6950.000000   2917802   2919335   2920801   2922213   2923573  
  6940.000000   2924845   2926012   2927064   2928046   2929019  
  6930.000000   2930065   2931231   2932529   2933913   2935314  
  6920.000000   2936648   2937862   2938921   2939824   2940575  
  6910.000000   2941187   2941669   2942042   2942338   2942616  
  6900.000000   2942929   2943328   2943819   2944386   2944975  
  6890.000000   2945544   2946066   2946554   2947037   2947544  
  6880.000000   2948069   2948570   2948976   2949217   2949260  
  6870.000000   2949129   2948893   2948652   2948484   2948432  
  6860.000000   2948485   2948608   2948756   2948909   2949068  
  6850.000000   2949249   2949457   2949672   2949842   2949912  
  6840.000000   2949838   2949619   2949296   2948936   2948603  
  6830.000000   2948337   2948135   2947965   2947781   2947550  
  6820.000000   2947258   2946914   2946529   2946113   2945659  
  6810.000000   2945161   2944612   2944022   2943413   2942811  
  6800.000000   2942226   2941646   2941034   2940351   2939568  
  6790.000000   2938694   2937765   2936849   2936004   2935280  
  6780.000000   2934684   2934199   2933776   2933363   2932903  
  6770.000000   2932348   2931658   2930808   2929795   2928637  
  6760.000000   2927383   2926094   2924831   2923631   2922498  
  6750.000000   2921407   2920318   2919211   2918095   2917024  
  6740.000000   2916065   2915284   2914701   2914288   2913963  
  6730.000000   2913630   2913201   2912629   2911908   2911067  
  6720.000000   2910142   2909158   2908120   2907024   2905860  
  6710.000000   2904636   2903365   2902067   2900746   2899398  
  6700.000000   2898001   2896543   2895025   2893482   2891958  
  6690.000000   2890507   2889149   2887884   2886671   2885471  
  6680.000000   2884248   2882998   2881734   2880483   2879254  
  6670.000000   2878031   2876769   2875418   2873937   2872318  
  6660.000000   2870584   2868782   2866958   2865140   2863335  
  6650.000000   2861533   2859719   2857889   2856046   2854203  
  6640.000000   2852361   2850514   2848647   2846751   2844831  
  6630.000000   2842918   2841051   2839271   2837591   2836000  
  6620.000000   2834453   2832896   2831285   2829596   2827830  
  6610.000000   2825998   2824111   2822165   2820146   2818044  
  6600.000000   2815864   2813641   2811428   2809287   2807257  
  6590.000000   2805353   2803553   2801825   2800130   2798451  
  6580.000000   2796781   2795123   2793470   2791800   2790076  
  6570.000000   2788259   2786326   2784284   2782171   2780040  
  6560.000000   2777948   2775933   2774010   2772174   2770408  
  6550.000000   2768692   2767005   2765328   2763637   2761908  
  6540.000000   2760128   2758301   2756458   2754651   2752939  
  6530.000000   2751357   2749909   2748556   2747231   2745868  
  6520.000000   2744428   2742907   2741336   2739758   2738205  
  6510.000000   2736679   2735154   2733588   2731952   2730243  
  6500.000000   2728489   2726745   2725065   2723493   2722047  
  6490.000000   2720726   2719514   2718387   2717312   2716243  
  6480.000000   2715122   2713882   2712474   2710876   2709126  
  6470.000000   2707306   2705534   2703914   2702511   2701322  
  6460.000000   2700283   2699296   2698271   2697158   2695961  
  6450.000000   2694725   2693511   2692364   2691295   2690281  
  6440.000000   2689283   2688264   2687208   2686117   2685007  
  6430.000000   2683889   2682766   2681632   2680482   2679321  
  6420.000000   2678172   2677064   2676026   2675064   2674163  
  6410.000000   2673283   2672383   2671429   2670415   2669362  
  6400.000000   2668309   2667302   2666375   2665548   2664817  
  6390.000000   2664162   2663549   2662936   2662283   2661553  
  6380.000000   2660729   2659812   2658828   2657821   2656836  
  6370.000000   2655902   2655023   2654168   2653291   2652343  
  6360.000000   2651295   2650156   2648961   2647767   2646622  
  6350.000000   2645557   2644572   2643651   2642765   2641898  
  6340.000000   2641039   2640189   2639342   2638488   2637599  
  6330.000000   2636649   2635615   2634494   2633301   2632065  
  6320.000000   2630815   2629570   2628329   2627081   2625801  
  6310.000000   2624474   2623086   2621643   2620147   2618613  
  6300.000000   2617047   2615469   2613892   2612343   2610840  
  6290.000000   2609393   2607990   2606603   2605185   2603689  
  6280.000000   2602078   2600341   2598488   2596555   2594581  
  6270.000000   2592608   2590668   2588787   2586978   2585249  
  6260.000000   2583589   2581975   2580363   2578701   2576938  
  6250.000000   2575044   2573019   2570901   2568752   2566642  
  6240.000000   2564625   2562723   2560925   2559195   2557486  
  6230.000000   2555760   2553995   2552187   2550339   2548465  
  6220.000000   2546574   2544675   2542777   2540893   2539033  
  6210.000000   2537206   2535410   2533635   2531865   2530086  
  6200.000000   2528292   2526491   2524696   2522921   2521172  
  6190.000000   2519439   2517706   2515954   2514176   2512379  
  6180.000000   2510587   2508828   2507126   2505494   2503931  
  6170.000000   2502426   2500968   2499546   2498155   2496788  
  6160.000000   2495437   2494087   2492725   2491342   2489938  
  6150.000000   2488527   2487131   2485767   2484442   2483146  
  6140.000000   2481859   2480553   2479214   2477839   2476443  
  6130.000000   2475048   2473678   2472343   2471048   2469784  
  6120.000000   2468548   2467332   2466141   2464974   2463835  
  6110.000000   2462716   2461617   2460534   2459480   2458472  
  6100.000000   2457536   2456692   2455952   2455305   2454733  
  6090.000000   2454205   2453701   2453207   2452729   2452274  
  6080.000000   2451858   2451480   2451140   2450822   2450518  
  6070.000000   2450215   2449914   2449614   2449328   2449061  
  6060.000000   2448832   2448654   2448557   2448560   2448689  
  6050.000000   2448951   2449345   2449841   2450413   2451021  
  6040.000000   2451645   2452268   2452900   2453548   2454235  
  6030.000000   2454969   2455767   2456629   2457568   2458583  
  6020.000000   2459673   2460823   2462009   2463192   2464340  
  6010.000000   2465424   2466442   2467409   2468365   2469347  
  6000.000000   2470398   2471537   2472776   2474106   2475523  
  5990.000000   2477010   2478563   2480161   2481793   2483429  
  5980.000000   2485054   2486649   2488221   2489784   2491379  
  5970.000000   2493032   2494777   2496614   2498547   2500551  
  5960.000000   2502620   2504737   2506907   2509127   2511402  
  5950.000000   2513723   2516085   2518480   2520914   2523401  
  5940.000000   2525973   2528655   2531470   2534417   2537474  
  5930.000000   2540601   2543747   2546862   2549902   2552835  
  5920.000000   2555639   2558300   2560815   2563188   2565437  
  5910.000000   2567589   2569671   2571712   2573729   2575735  
  5900.000000   2577735   2579741   2581767   2583842   2585994  
  5890.000000   2588245   2590596   2593032   2595515   2598005  
  5880.000000   2600464   2602869   2605215   2607501   2609736  
  5870.000000   2611913   2614027   2616064   2618020   2619903  
  5860.000000   2621734   2623545   2625372   2627244   2629186  
  5850.000000   2631214   2633340   2635568   2637899   2640316  
  5840.000000   2642791   2645283   2647748   2650151   2652478  
  5830.000000   2654740   2656969   2659204   2661475   2663791  
  5820.000000   2666142   2668499   2670832   2673120   2675353  
  5810.000000   2677541   2679691   2681823   2683932   2686038  
  5800.000000   2688127   2690227   2692328   2694454   2696576  
  5790.000000   2698683   2700695   2702553   2704141   2705372  
  5780.000000   2706132   2706348   2705945   2704910   2703247  
  5770.000000   2701039   2698387   2695449   2692369   2689295  
  5760.000000   2686316   2683506   2680875   2678439   2676188  
  5750.000000   2674137   2672287   2670645   2669195   2667900  
  5740.000000   2666717   2665592   2664496   2663409   2662344  
  5730.000000   2661305   2660315   2659368   2658469   2657605  
  5720.000000   2656793   2656042   2655384   2654834   2654399  
  5710.000000   2654056   2653774   2653515   2653259   2653006  
  5700.000000   2652777   2652597   2652484   2652433   2652416  
  5690.000000   2652399   2652348   2652256   2652122   2651974  
  5680.000000   2651817   2651653   2651442   2651139   2650675  
  5670.000000   2650001   2649074   2647884   2646426   2644722  
  5660.000000   2642794   2640687   2638446   2636140   2633826  
  5650.000000   2631567   2629396   2627329   2625354   2623453  
  5640.000000   2621602   2619791   2618019   2616293   2614626  
  5630.000000   2613019   2611477   2609995   2608579   2607236  
  5620.000000   2605979   2604809   2603723   2602694   2601691  
  5610.000000   2600676   2599631   2598549   2597449   2596353  
  5600.000000   2595286   2594256   2593259   2592279   2591300  
  5590.000000   2590312   2589317   2588325   2587344   2586382  
  5580.000000   2585438   2584507   2583585   2582674   2581776  
  5570.000000   2580894   2580024   2579155   2578273   2577365  
  5560.000000   2576425   2575459   2574477   2573492   2572506  
  5550.000000   2571514   2570498   2569444   2568344   2567204  
  5540.000000   2566038   2564865   2563694   2562529   2561358  
  5530.000000   2560173   2558967   2557749   2556531   2555336  
  5520.000000   2554174   2553050   2551956   2550881   2549809  
  5510.000000   2548733   2547640   2546520   2545359   2544139  
  5500.000000   2542847   2541483   2540058   2538605   2537152  
  5490.000000   2535725   2534320   2532921   2531492   2530008  
  5480.000000   2528452   2526835   2525177   2523507   2521839  
  5470.000000   2520174   2518496   2516789   2515042   2513264  
  5460.000000   2511466   2509663   2507856   2506033   2504175  
  5450.000000   2502267   2500308   2498320   2496341   2494407  
  5440.000000   2492543   2490750   2489021   2487335   2485691  
  5430.000000   2484088   2482540   2481046   2479599   2478167  
  5420.000000   2476728   2475262   2473798   2472380   2471091  
  5410.000000   2469992   2469124   2468466   2467978   2467589  
  5400.000000   2467258   2466951   2466692   2466495   2466406  
  5390.000000   2466432   2466595   2466876   2467293   2467843  
  5380.000000   2468567   2469470   2470578   2471861   2473308  
  5370.000000   2474867   2476538   2478297   2480186   2482207  
  5360.000000   2484413   2486789   2489375   2492148   2495170  
  5350.000000   2498451   2502088   2506102   2510580   2515492  
  5340.000000   2520878   2526674   2532919   2539566   2546687  
  5330.000000   2554246   2562309   2570814   2579804   2589210  
  5320.000000   2599110   2609481   2620458   2632047   2644389  
  5310.000000   2657449   2671311   2685884   2701222   2717240  
  5300.000000   2734025   2751541   2769920   2789160   2809394  
  5290.000000   2830587   2852802   2875917   2899894   2924551  
  5280.000000   2949834   2975627   3001983   3028912   3056549  
  5270.000000   3084918   3114040   3143773   3173927   3204247  
  5260.000000   3234526   3264654   3294621   3324511   3354384  
  5250.000000   3384277   3414059   3443566   3472492   3500655  
  5240.000000   3527845   3554093   3579391   3603931   3627752  
  5230.000000   3651003   3673607   3695582   3716743   3737072  
  5220.000000   3756416   3774846   3792319   3809003   3824906  
  5210.000000   3840188   3854795   3868787   3882010   3894463  
  5200.000000   3905996   3916676   3926451   3935472   3943734  
  5190.000000   3951374   3958340   3964704   3970374   3975417  
  5180.000000   3979774   3983552   3986719   3989371   3991446  
  5170.000000   3992992   3993927   3994303   3994080   3993353  
  5160.000000   3992118   3990468   3988374   3985890   3982966  
  5150.000000   3979655   3975941   3971909   3967567   3962992  
  5140.000000   3958161   3953105   3947779   3942207   3936375  
  5130.000000   3930347   3924143   3917833   3911426   3904955  
  5120.000000   3898400   3891773   3885055   3878262   3871388  
  5110.000000   3864451   3857441   3850365   3843216   3836015  
  5100.000000   3828781   3821557   3814373   3807262   3800226  
  5090.000000   3793266   3786360   3779499   3772674   3765888  
  5080.000000   3759139   3752426   3745726   3739012   3732248  
  5070.000000   3725412   3718490   3711497   3704452   3697386  
  5060.000000   3690314   3683249   3676177   3669089   3661966  
  5050.000000   3654803   3647591   3640338   3633042   3625709  
  5040.000000   3618336   3610927   3603488   3596032   3588578  
  5030.000000   3581147   3573763   3566439   3559192   3552027  
  5020.000000   3544953   3537971   3531091   3524308   3517632  
  5010.000000   3511049   3504569   3498177   3491889   3485699  
  5000.000000   3479634   3473697   3467929   3462334   3456956  
  4990.000000   3451798   3446897   3442245   3437869   3433741  
  4980.000000   3429876   3426234   3422831   3419633   3416676  
  4970.000000   3413945   3411493   3409312   3407454   3405902  
  4960.000000   3404698   3403816   3403297   3403118   3403325  
  4950.000000   3403895   3404865   3406192   3407895   3409914  
  4940.000000   3412261   3414883   3417805   3420989   3424472  
  4930.000000   3428222   3432275   3436599   3441228   3446136  
  4920.000000   3451359   3456876   3462715   3468846   3475278  
  4910.000000   3481970   3488919   3496087   3503472   3511044  
  4900.000000   3518798   3526702   3534736   3542860   3551040  
  4890.000000   3559237   3567413   3575532   3583550   3591438  
  4880.000000   3599148   3606662   3613943   3620991   3627775  
  4870.000000   3634303   3640531   3646451   3652003   3657178  
  4860.000000   3661927   3666269   3670193   3673755   3676969  
  4850.000000   3679900   3682562   3685010   3687250   3689331  
  4840.000000   3691259   3693082   3694806   3696470   3698071  
  4830.000000   3699631   3701139   3702610   3704038   3705436  
  4820.000000   3706806   3708163   3709512   3710863   3712222  
  4810.000000   3713596   3714987   3716400   3717832   3719282  
  4800.000000   3720748   3722228   3723725   3725247   3726802  
  4790.000000   3728396   3730031   3731702   3733394   3735096  
  4780.000000   3736791   3738476   3740147   3741808   3743458  
  4770.000000   3745097   3746710   3748284   3749791   3751218  
  4760.000000   3752543   3753761   3754863   3755858   3756742  
  4750.000000   3757528   3758218   3758827   3759359   3759828  
  4740.000000   3760231   3760575   3760847   3761042   3761146  
  4730.000000   3761155   3761064   3760880   3760611   3760271  
  4720.000000   3759875   3759439   3758981   3758519   3758072  
  4710.000000   3757662   3757308   3757026   3756829   3756719  
  4700.000000   3756701   3756771   3756930   3757175   3757510  
  4690.000000   3757935   3758457   3759071   3759780   3760572  
  4680.000000   3761438   3762355   3763303   3764246   3765163  
  4670.000000   3766022   3766816   3767535   3768201   3768829  
  4660.000000   3769462   3770130   3770877   3771731   3772728  
  4650.000000   3773887   3775233   3776774   3778514   3780440  
  4640.000000   3782528   3784742   3787036   3789366   3791690  
  4630.000000   3793972   3796185   3798311   3800333   3802240  
  4620.000000   3804017   3805652   3807125   3808423   3809528  
  4610.000000   3810440   3811152   3811689   3812071   3812350  
  4600.000000   3812559   3812754   3812951   3813175   3813400  
  4590.000000   3813607   3813740   3813768   3813638   3813337  
  4580.000000   3812844   3812167   3811306   3810279   3809088  
  4570.000000   3807751   3806269   3804664   3802937   3801115  
  4560.000000   3799204   3797231   3795203   3793143   3791055  
  4550.000000   3788953   3786829   3784679   3782487   3780239  
  4540.000000   3777926   3775552   3773136   3770709   3768309  
  4530.000000   3765967   3763708   3761529   3759428   3757371  
  4520.000000   3755354   3753350   3751385   3749458   3747627  
  4510.000000   3745906   3744371   3743040   3742004   3741285  
  4500.000000   3740985   3741123   3741792   3742987   3744778  
  4490.000000   3747131   3750107   3753667   3757880   3762714  
  4480.000000   3768245   3774437   3781352   3788936   3797231  
  4470.000000   3806163   3815754   3825914   3836645   3847843  
  4460.000000   3859496   3871506   3883861   3896485   3909377  
  4450.000000   3922479   3935788   3949252   3962856   3976557  
  4440.000000   3990334   4004163   4018024   4031905   4045775  
  4430.000000   4059618   4073374   4087021   4100476   4113717  
  4420.000000   4126658   4139283   4151502   4163303   4174585  
  4410.000000   4185327   4195422   4204844   4213495   4221372  
  4400.000000   4228418   4234675   4240154   4244964   4249182  
  4390.000000   4252969   4256442   4259770   4263055   4266415  
  4380.000000   4269898   4273551   4277376   4281391   4285601  
  4370.000000   4290040   4294748   4299773   4305163   4310945  
  4360.000000   4317130   4323706   4330630   4337860   4345295  
  4350.000000   4352874   4360454   4367983   4375328   4382494  
  4340.000000   4389415   4396136   4402575   4408650   4414062  
  4330.000000   4418438   4421230   4421932   4420106   4415606  
  4320.000000   4408579   4399558   4389291   4378689   4368562  
  4310.000000   4359576   4352076   4346182   4341758   4338582  
  4300.000000   4336383   4334939   4334099   4333754   4333867  
  4290.000000   4334368   4335253   4336454   4337987   4339815  
  4280.000000   4341970   4344444   4347245   4350356   4353739  
  4270.000000   4357361   4361147   4365017   4368813   4372329  
  4260.000000   4375254   4377248   4377951   4377098   4374556  
  4250.000000   4370412   4364931   4358562   4351797   4345147  
  4240.000000   4338988   4333586   4329005   4325213   4322052  
  4230.000000   4319356   4316941   4314668   4312439   4310192  
  4220.000000   4307929   4305651   4303437   4301332   4299453  
  4210.000000   4297856   4296647   4295850   4295515   4295615  
  4200.000000   4296141   4297022   4298212   4299621   4301199  
  4190.000000   4302858   4304571   4306278   4307992   4309689  
  4180.000000   4311417   4313170   4315007   4316931   4319009  
  4170.000000   4321257   4323764   4326567   4329763   4333383  
  4160.000000   4337495   4342088   4347188   4352744   4358766  
  4150.000000   4365193   4372044   4379265   4386881   4394836  
  4140.000000   4403160   4411805   4420815   4430157   4439891  
  4130.000000   4449993   4460515   4471424   4482758   4494481  
  4120.000000   4506630   4519184   4532192   4545643   4559578  
  4110.000000   4573968   4588819   4604065   4619675   4635557  
  4100.000000   4651663   4667912   4684273   4700707   4717221  
  4090.000000   4733823   4750541   4767397   4784399   4801552  
  4080.000000   4818830   4836220   4853676   4871182   4888674  
  4070.000000   4906122   4923425   4940532   4957318   4973737  
  4060.000000   4989681   5005143   5020049   5034431   5048232  
  4050.000000   5061509   5074223   5086460   5098186   5109488  
  4040.000000   5120297   5130654   5140433   5149642   5158153  
  4030.000000   5166005   5173115   5179555   5185262   5190288  
  4020.000000   5194526   5198019   5200729   5202730   5203983  
  4010.000000   5204631   5204760   5204398   5203329   5201615  
  4000.000000   5199575  
##END= 
