##TITLE= Sample 033 By ssteindl date Montag, November 26 2018
##JCAMP-DX= 4.24
##DATA TYPE= INFRARED SPECTRUM
##ORIGIN= Exported PE Spectrum Data File
##OWNER= Sandra Steindl
##DATE= 18/11/26
##TIME= 11:52:06.00
##SPECTROMETER/DATA SYSTEM= PERKIN-ELMER Frontier FT-IR/NIR IR
##INSTRUMENT PARAMETERS=
  APODIZATION=stark
  DETECTOR=INGAAS
##RESOLUTION= 16.000000
##DELTAX= -2.000000
##XUNITS= 1/CM
##YUNITS= A
##XFACTOR= 1.00
##YFACTOR= 0.00000011920928955078
##FIRSTX= 10000.00
##LASTX= 4000.00
##NPOINTS= 3001
##FIRSTY= 0.283009
##MAXY= 0.673855
##MINY= 0.213010
##XYDATA= (X++(Y..Y))
 10000.000000   2374048   2372426   2368905   2361605   2351711  
  9990.000000   2342256   2335413   2331877   2331684   2334308  
  9980.000000   2338211   2341368   2342257   2340306   2335883  
  9970.000000   2330088   2324400   2320045   2317527   2316500  
  9960.000000   2316054   2315093   2312984   2309704   2305923  
  9950.000000   2302559   2300331   2299362   2299105   2298623  
  9940.000000   2297139   2294467   2291260   2288734   2288150  
  9930.000000   2290224   2294737   2300648   2306489   2310983  
  9920.000000   2313541   2314364   2314285   2314203   2314680  
  9910.000000   2315593   2316283   2315869   2313744   2309895  
  9900.000000   2304933   2299900   2295832   2293507   2293194  
  9890.000000   2294774   2297787   2301665   2305755   2309399  
  9880.000000   2311912   2312684   2311337   2307920   2303035  
  9870.000000   2297754   2293324   2290728   2290294   2291575  
  9860.000000   2293481   2294766   2294453   2292284   2288698  
  9850.000000   2284655   2281115   2278661   2277257   2276326  
  9840.000000   2275070   2272802   2269262   2264645   2259515  
  9830.000000   2254514   2250141   2246601   2243861   2241747  
  9820.000000   2240131   2238950   2238204   2237827   2237650  
  9810.000000   2237425   2236961   2236256   2235597   2235454  
  9800.000000   2236334   2238496   2241798   2245631   2249086  
  9790.000000   2251232   2251491   2249852   2246934   2243745  
  9780.000000   2241311   2240278   2240642   2241804   2242829  
  9770.000000   2242864   2241504   2238936   2235853   2233154  
  9760.000000   2231536   2231245   2231935   2232897   2233377  
  9750.000000   2232963   2231776   2230415   2229661   2230112  
  9740.000000   2231870   2234481   2237102   2238787   2238892  
  9730.000000   2237223   2234148   2230338   2226517   2223197  
  9720.000000   2220547   2218517   2216948   2215818   2215249  
  9710.000000   2215494   2216742   2218993   2221928   2224983  
  9700.000000   2227455   2228732   2228451   2226585   2223440  
  9690.000000   2219533   2215479   2211840   2209041   2207292  
  9680.000000   2206549   2206525   2206732   2206606   2205654  
  9670.000000   2203615   2200562   2196890   2193213   2190137  
  9660.000000   2188105   2187215   2187287   2187922   2188731  
  9650.000000   2189463   2190062   2190653   2191366   2192296  
  9640.000000   2193389   2194535   2195643   2196700   2197815  
  9630.000000   2199060   2200391   2201491   2201810   2200720  
  9620.000000   2197741   2192858   2186573   2179928   2174148  
  9610.000000   2170364   2169194   2170621   2173955   2178051  
  9600.000000   2181615   2183494   2182969   2179813   2174343  
  9590.000000   2167248   2159486   2152058   2145906   2141728  
  9580.000000   2139915   2140469   2143007   2146868   2151193  
  9570.000000   2155189   2158189   2159864   2160184   2159426  
  9560.000000   2158070   2156624   2155556   2155077   2155157  
  9550.000000   2155426   2155318   2154191   2151548   2147237  
  9540.000000   2141541   2135170   2129082   2124235   2121332  
  9530.000000   2120601   2121764   2124097   2126687   2128685  
  9520.000000   2129580   2129317   2128287   2127169   2126693  
  9510.000000   2127424   2129603   2133111   2137521   2142227  
  9500.000000   2146589   2150090   2152399   2153433   2153282  
  9490.000000   2152180   2150366   2148051   2145340   2142277  
  9480.000000   2138840   2135046   2130924   2126630   2122333  
  9470.000000   2118303   2114744   2111836   2109606   2107939  
  9460.000000   2106589   2105181   2103363   2100786   2097303  
  9450.000000   2092901   2087842   2082513   2077458   2073208  
  9440.000000   2070246   2068900   2069317   2071451   2075062  
  9430.000000   2079776   2085101   2090521   2095533   2099739  
  9420.000000   2102890   2104917   2105925   2106100   2105664  
  9410.000000   2104738   2103360   2101438   2098875   2095610  
  9400.000000   2091712   2087380   2082869   2078446   2074273  
  9390.000000   2070469   2067113   2064375   2062508   2061844  
  9380.000000   2062627   2064919   2068441   2072619   2076677  
  9370.000000   2079900   2081860   2082542   2082328   2081770  
  9360.000000   2081388   2081395   2081652   2081677   2080876  
  9350.000000   2078774   2075222   2070467   2065040   2059624  
  9340.000000   2054816   2051081   2048614   2047417   2047258  
  9330.000000   2047784   2048546   2049105   2049115   2048380  
  9320.000000   2046945   2045034   2043022   2041212   2039755  
  9310.000000   2038525   2037248   2035604   2033458   2030945  
  9300.000000   2028496   2026693   2026047   2026741   2028533  
  9290.000000   2030798   2032775   2033811   2033598   2032232  
  9280.000000   2030173   2028063   2026506   2025910   2026392  
  9270.000000   2027847   2030016   2032591   2035238   2037617  
  9260.000000   2039393   2040286   2040097   2038776   2036405  
  9250.000000   2033213   2029542   2025768   2022267   2019316  
  9240.000000   2017094   2015668   2014961   2014773   2014736  
  9230.000000   2014451   2013582   2012024   2009966   2007869  
  9220.000000   2006323   2005832   2006595   2008370   2010526  
  9210.000000   2012263   2012937   2012277   2010483   2008104  
  9200.000000   2005822   2004127   2003147   2002616   2002062  
  9190.000000   2001024   1999254   1996826   1994079   1991484  
  9180.000000   1989428   1988134   1987639   1987853   1988619  
  9170.000000   1989733   1990949   1991953   1992401   1991979  
  9160.000000   1990554   1988265   1985574   1983111   1981481  
  9150.000000   1981019   1981676   1983011   1984356   1985106  
  9140.000000   1984963   1984049   1982810   1981821   1981533  
  9130.000000   1982096   1983300   1984694   1985778   1986187  
  9120.000000   1985805   1984755   1983343   1981917   1980762  
  9110.000000   1980027   1979691   1979605   1979508   1979133  
  9100.000000   1978250   1976803   1974926   1973013   1971563  
  9090.000000   1971054   1971684   1973279   1975276   1976847  
  9080.000000   1977197   1975802   1972678   1968293   1963444  
  9070.000000   1958925   1955313   1952806   1951249   1950327  
  9060.000000   1949787   1949611   1949985   1951198   1953402  
  9050.000000   1956509   1960121   1963642   1966467   1968159  
  9040.000000   1968617   1968009   1966721   1965149   1963605  
  9030.000000   1962239   1961037   1959923   1958805   1957661  
  9020.000000   1956507   1955422   1954478   1953734   1953158  
  9010.000000   1952663   1952089   1951256   1950003   1948268  
  9000.000000   1946143   1943887   1941847   1940392   1939773  
  8990.000000   1940033   1940966   1942180   1943248   1943803  
  8980.000000   1943661   1942808   1941387   1939560   1937451  
  8970.000000   1935122   1932665   1930239   1928123   1926679  
  8960.000000   1926247   1927000   1928796   1931216   1933656  
  8950.000000   1935544   1936508   1936495   1935784   1934815  
  8940.000000   1934018   1933603   1933529   1933518   1933219  
  8930.000000   1932359   1930875   1928936   1926888   1925134  
  8920.000000   1923996   1923627   1923957   1924744   1925647  
  8910.000000   1926339   1926612   1926419   1925918   1925399  
  8900.000000   1925211   1925612   1926663   1928181   1929789  
  8890.000000   1931052   1931619   1931397   1930573   1929595  
  8880.000000   1928976   1929124   1930171   1931897   1933817  
  8870.000000   1935294   1935787   1934942   1932726   1929371  
  8860.000000   1925340   1921211   1917569   1914929   1913642  
  8850.000000   1913884   1915602   1918534   1922222   1926136  
  8840.000000   1929761   1932709   1934763   1935881   1936178  
  8830.000000   1935818   1934995   1933856   1932572   1931307  
  8820.000000   1930237   1929512   1929188   1929219   1929419  
  8810.000000   1929578   1929523   1929238   1928849   1928580  
  8800.000000   1928619   1928997   1929545   1929929   1929812  
  8790.000000   1929002   1927586   1925914   1924486   1923747  
  8780.000000   1923922   1924929   1926446   1928039   1929345  
  8770.000000   1930182   1930570   1930667   1930652   1930656  
  8760.000000   1930729   1930897   1931215   1931785   1932727  
  8750.000000   1934072   1935708   1937335   1938561   1939025  
  8740.000000   1938561   1937273   1935505   1933732   1932372  
  8730.000000   1931690   1931717   1932344   1933392   1934741  
  8720.000000   1936345   1938187   1940185   1942110   1943598  
  8710.000000   1944235   1943738   1942063   1939498   1936571  
  8700.000000   1933924   1932087   1931334   1931636   1932705  
  8690.000000   1934159   1935631   1936906   1937925   1938769  
  8680.000000   1939567   1940422   1941355   1942296   1943129  
  8670.000000   1943711   1943952   1943812   1943355   1942706  
  8660.000000   1942044   1941542   1941325   1941418   1941740  
  8650.000000   1942133   1942441   1942565   1942529   1942469  
  8640.000000   1942593   1943098   1944076   1945501   1947232  
  8630.000000   1949110   1951009   1952912   1954899   1957078  
  8620.000000   1959500   1962078   1964589   1966700   1968097  
  8610.000000   1968544   1968012   1966633   1964709   1962599  
  8600.000000   1960665   1959218   1958470   1958561   1959506  
  8590.000000   1961263   1963675   1966556   1969661   1972794  
  8580.000000   1975796   1978593   1981151   1983428   1985360  
  8570.000000   1986803   1987614   1987648   1986883   1985411  
  8560.000000   1983459   1981314   1979253   1977489   1976136  
  8550.000000   1975251   1974848   1974960   1975614   1976831  
  8540.000000   1978550   1980631   1982846   1984961   1986807  
  8530.000000   1988341   1989668   1990968   1992424   1994101  
  8520.000000   1995927   1997673   1999063   1999849   1999927  
  8510.000000   1999352   1998319   1997096   1995934   1995030  
  8500.000000   1994481   1994324   1994532   1995068   1995871  
  8490.000000   1996880   1998013   1999188   2000325   2001363  
  8480.000000   2002269   2003026   2003632   2004077   2004356  
  8470.000000   2004471   2004472   2004453   2004554   2004911  
  8460.000000   2005614   2006659   2007926   2009221   2010322  
  8450.000000   2011074   2011424   2011449   2011322   2011249  
  8440.000000   2011404   2011866   2012608   2013499   2014360  
  8430.000000   2015015   2015346   2015330   2015038   2014644  
  8420.000000   2014363   2014422   2014966   2016040   2017542  
  8410.000000   2019260   2020912   2022227   2023029   2023266  
  8400.000000   2023025   2022465   2021762   2021037   2020333  
  8390.000000   2019626   2018875   2018087   2017343   2016809  
  8380.000000   2016667   2017076   2018078   2019593   2021399  
  8370.000000   2023202   2024698   2025652   2025951   2025610  
  8360.000000   2024769   2023632   2022428   2021336   2020450  
  8350.000000   2019773   2019226   2018712   2018141   2017506  
  8340.000000   2016866   2016356   2016088   2016129   2016425  
  8330.000000   2016816   2017071   2016960   2016345   2015215  
  8320.000000   2013694   2011980   2010280   2008747   2007450  
  8310.000000   2006393   2005551   2004919   2004521   2004402  
  8300.000000   2004568   2004958   2005419   2005758   2005796  
  8290.000000   2005456   2004788   2003969   2003241   2002813  
  8280.000000   2002781   2003073   2003481   2003725   2003553  
  8270.000000   2002817   2001513   1999782   1997863   1996029  
  8260.000000   1994508   1993438   1992843   1992645   1992686  
  8250.000000   1992776   1992727   1992421   1991824   1991007  
  8240.000000   1990110   1989294   1988689   1988340   1988194  
  8230.000000   1988097   1987848   1987265   1986245   1984813  
  8220.000000   1983098   1981313   1979675   1978366   1977460  
  8210.000000   1976931   1976638   1976386   1975967   1975228  
  8200.000000   1974093   1972589   1970816   1968929   1967072  
  8190.000000   1965345   1963765   1962276   1960779   1959175  
  8180.000000   1957413   1955512   1953546   1951624   1949837  
  8170.000000   1948237   1946815   1945522   1944302   1943107  
  8160.000000   1941927   1940758   1939600   1938418   1937157  
  8150.000000   1935754   1934176   1932457   1930705   1929087  
  8140.000000   1927770   1926876   1926427   1926344   1926467  
  8130.000000   1926604   1926578   1926263   1925592   1924547  
  8120.000000   1923145   1921427   1919468   1917377   1915305  
  8110.000000   1913421   1911871   1910738   1909999   1909538  
  8100.000000   1909159   1908668   1907914   1906854   1905550  
  8090.000000   1904144   1902813   1901689   1900846   1900257  
  8080.000000   1899827   1899414   1898875   1898107   1897067  
  8070.000000   1895800   1894424   1893114   1892056   1891391  
  8060.000000   1891168   1891293   1891549   1891629   1891234  
  8050.000000   1890162   1888401   1886134   1883703   1881506  
  8040.000000   1879872   1878967   1878750   1879011   1879446  
  8030.000000   1879778   1879831   1879579   1879107   1878568  
  8020.000000   1878090   1877737   1877491   1877275   1877001  
  8010.000000   1876592   1876018   1875276   1874376   1873328  
  8000.000000   1872124   1870770   1869284   1867729   1866196  
  7990.000000   1864796   1863621   1862709   1862030   1861483  
  7980.000000   1860931   1860230   1859282   1858048   1856569  
  7970.000000   1854941   1853305   1851803   1850568   1849691  
  7960.000000   1849225   1849165   1849459   1850001   1850656  
  7950.000000   1851260   1851669   1851764   1851502   1850905  
  7940.000000   1850079   1849171   1848349   1847755   1847474  
  7930.000000   1847520   1847837   1848330   1848887   1849414  
  7920.000000   1849850   1850168   1850358   1850411   1850307  
  7910.000000   1850013   1849500   1848765   1847853   1846857  
  7900.000000   1845906   1845138   1844658   1844511   1844662  
  7890.000000   1845012   1845414   1845724   1845823   1845654  
  7880.000000   1845222   1844591   1843865   1843160   1842588  
  7870.000000   1842229   1842122   1842253   1842564   1842958  
  7860.000000   1843322   1843548   1843557   1843314   1842832  
  7850.000000   1842169   1841405   1840627   1839914   1839326  
  7840.000000   1838900   1838655   1838587   1838673   1838858  
  7830.000000   1839071   1839217   1839206   1838971   1838491  
  7820.000000   1837800   1836982   1836155   1835429   1834886  
  7810.000000   1834549   1834385   1834315   1834237   1834067  
  7800.000000   1833753   1833298   1832747   1832184   1831689  
  7790.000000   1831330   1831127   1831061   1831066   1831061  
  7780.000000   1830966   1830721   1830300   1829704   1828950  
  7770.000000   1828053   1827018   1825838   1824511   1823060  
  7760.000000   1821540   1820056   1818726   1817666   1816936  
  7750.000000   1816528   1816352   1816266   1816115   1815771  
  7740.000000   1815175   1814331   1813305   1812186   1811068  
  7730.000000   1810023   1809106   1808357   1807813   1807509  
  7720.000000   1807457   1807640   1807990   1808400   1808736  
  7710.000000   1808878   1808744   1808312   1807622   1806743  
  7700.000000   1805759   1804723   1803665   1802580   1801460  
  7690.000000   1800305   1799145   1798034   1797041   1796229  
  7680.000000   1795633   1795258   1795070   1795015   1795028  
  7670.000000   1795042   1795007   1794880   1794650   1794318  
  7660.000000   1793914   1793479   1793063   1792712   1792457  
  7650.000000   1792313   1792273   1792325   1792450   1792633  
  7640.000000   1792858   1793106   1793346   1793530   1793596  
  7630.000000   1793474   1793115   1792491   1791626   1790585  
  7620.000000   1789479   1788438   1787592   1787048   1786861  
  7610.000000   1787030   1787489   1788125   1788805   1789403  
  7600.000000   1789831   1790047   1790062   1789911   1789649  
  7590.000000   1789314   1788938   1788543   1788158   1787835  
  7580.000000   1787641   1787651   1787915   1788433   1789140  
  7570.000000   1789913   1790601   1791064   1791221   1791059  
  7560.000000   1790645   1790085   1789505   1789017   1788709  
  7550.000000   1788635   1788826   1789286   1789996   1790906  
  7540.000000   1791934   1792974   1793921   1794687   1795238  
  7530.000000   1795595   1795840   1796069   1796381   1796827  
  7520.000000   1797424   1798142   1798937   1799767   1800611  
  7510.000000   1801471   1802361   1803294   1804282   1805320  
  7500.000000   1806399   1807490   1808567   1809582   1810494  
  7490.000000   1811260   1811873   1812366   1812836   1813416  
  7480.000000   1814253   1815450   1817030   1818914   1820939  
  7470.000000   1822907   1824649   1826077   1827219   1828185  
  7460.000000   1829136   1830199   1831447   1832854   1834337  
  7450.000000   1835784   1837125   1838346   1839505   1840705  
  7440.000000   1842055   1843629   1845446   1847460   1849594  
  7430.000000   1851750   1853854   1855853   1857743   1859545  
  7420.000000   1861297   1863035   1864784   1866552   1868332  
  7410.000000   1870116   1871904   1873709   1875561   1877486  
  7400.000000   1879497   1881574   1883665   1885686   1887555  
  7390.000000   1889220   1890686   1892025   1893357   1894825  
  7380.000000   1896548   1898590   1900935   1903497   1906153  
  7370.000000   1908775   1911257   1913539   1915604   1917477  
  7360.000000   1919203   1920842   1922451   1924083   1925770  
  7350.000000   1927528   1929344   1931190   1933020   1934796  
  7340.000000   1936486   1938082   1939583   1941004   1942353  
  7330.000000   1943641   1944881   1946096   1947326   1948616  
  7320.000000   1950008   1951521   1953140   1954821   1956498  
  7310.000000   1958117   1959649   1961106   1962525   1963947  
  7300.000000   1965393   1966850   1968279   1969637   1970899  
  7290.000000   1972081   1973222   1974374   1975556   1976754  
  7280.000000   1977911   1978959   1979847   1980570   1981173  
  7270.000000   1981729   1982308   1982942   1983625   1984314  
  7260.000000   1984978   1985611   1986264   1987018   1987961  
  7250.000000   1989137   1990539   1992093   1993711   1995307  
  7240.000000   1996858   1998381   1999955   2001636   2003469  
  7230.000000   2005430   2007477   2009539   2011592   2013632  
  7220.000000   2015710   2017880   2020200   2022691   2025357  
  7210.000000   2028174   2031122   2034175   2037318   2040520  
  7200.000000   2043753   2046965   2050126   2053212   2056245  
  7190.000000   2059264   2062334   2065493   2068759   2072095  
  7180.000000   2075449   2078757   2081998   2085180   2088366  
  7170.000000   2091612   2094978   2098469   2102064   2105701  
  7160.000000   2109342   2112962   2116597   2120298   2124151  
  7150.000000   2128216   2132546   2137141   2141987   2147020  
  7140.000000   2152187   2157402   2162612   2167747   2172795  
  7130.000000   2177741   2182632   2187521   2192501   2197651  
  7120.000000   2203056   2208757   2214779   2221096   2227673  
  7110.000000   2234433   2241302   2248170   2254951   2261551  
  7100.000000   2267937   2274104   2280133   2286122   2292207  
  7090.000000   2298487   2305030   2311840   2318887   2326115  
  7080.000000   2333476   2340932   2348464   2356051   2363665  
  7070.000000   2371252   2378758   2386128   2393343   2400410  
  7060.000000   2407374   2414282   2421182   2428093   2435015  
  7050.000000   2441933   2448828   2455698   2462547   2469392  
  7040.000000   2476242   2483108   2489989   2496891   2503816  
  7030.000000   2510768   2517734   2524685   2531563   2538301  
  7020.000000   2544841   2551166   2557301   2563320   2569308  
  7010.000000   2575340   2581436   2587575   2593690   2599725  
  7000.000000   2605640   2611453   2617202   2622949   2628709  
  6990.000000   2634472   2640164   2645717   2651056   2656170  
  6980.000000   2661077   2665842   2670514   2675130   2679670  
  6970.000000   2684100   2688354   2692398   2696208   2699809  
  6960.000000   2703232   2706538   2709764   2712964   2716164  
  6950.000000   2719401   2722681   2726011   2729361   2732702  
  6940.000000   2735982   2739167   2742223   2745149   2747939  
  6930.000000   2750600   2753118   2755489   2757702   2759777  
  6920.000000   2761750   2763689   2765650   2767677   2769760  
  6910.000000   2771859   2773900   2775824   2777599   2779246  
  6900.000000   2780815   2782380   2783990   2785671   2787404  
  6890.000000   2789157   2790889   2792584   2794237   2795867  
  6880.000000   2797487   2799105   2800717   2802319   2803905  
  6870.000000   2805478   2807037   2808578   2810076   2811500  
  6860.000000   2812814   2814008   2815098   2816139   2817194  
  6850.000000   2818322   2819539   2820823   2822108   2823323  
  6840.000000   2824405   2825332   2826117   2826805   2827437  
  6830.000000   2828049   2828651   2829239   2829801   2830335  
  6820.000000   2830841   2831330   2831807   2832274   2832723  
  6810.000000   2833156   2833574   2833993   2834428   2834892  
  6800.000000   2835380   2835871   2836338   2836758   2837121  
  6790.000000   2837441   2837738   2838038   2838353   2838682  
  6780.000000   2839012   2839329   2839622   2839887   2840120  
  6770.000000   2840315   2840453   2840516   2840495   2840404  
  6760.000000   2840279   2840172   2840132   2840181   2840301  
  6750.000000   2840440   2840535   2840532   2840412   2840195  
  6740.000000   2839932   2839681   2839490   2839385   2839370  
  6730.000000   2839441   2839588   2839802   2840062   2840339  
  6720.000000   2840579   2840729   2840744   2840616   2840371  
  6710.000000   2840066   2839754   2839468   2839198   2838906  
  6700.000000   2838540   2838080   2837544   2836997   2836512  
  6690.000000   2836146   2835895   2835707   2835482   2835134  
  6680.000000   2834608   2833909   2833084   2832205   2831317  
  6670.000000   2830442   2829559   2828648   2827694   2826724  
  6660.000000   2825777   2824899   2824097   2823343   2822566  
  6650.000000   2821685   2820640   2819414   2818034   2816551  
  6640.000000   2815017   2813465   2811898   2810321   2808740  
  6630.000000   2807195   2805734   2804420   2803277   2802298  
  6620.000000   2801420   2800562   2799635   2798581   2797373  
  6610.000000   2796017   2794534   2792946   2791268   2789518  
  6600.000000   2787715   2785900   2784116   2782403   2780775  
  6590.000000   2779216   2777677   2776104   2774452   2772708  
  6580.000000   2770886   2769024   2767156   2765305   2763473  
  6570.000000   2761648   2759823   2758007   2756221   2754494  
  6560.000000   2752848   2751281   2749770   2748278   2746773  
  6550.000000   2745241   2743693   2742151   2740642   2739174  
  6540.000000   2737744   2736330   2734915   2733490   2732065  
  6530.000000   2730663   2729311   2728026   2726814   2725667  
  6520.000000   2724570   2723505   2722457   2721408   2720344  
  6510.000000   2719243   2718092   2716883   2715630   2714355  
  6500.000000   2713094   2711878   2710722   2709622   2708562  
  6490.000000   2707522   2706493   2705482   2704510   2703597  
  6480.000000   2702748   2701945   2701149   2700310   2699384  
  6470.000000   2698348   2697206   2695981   2694712   2693437  
  6460.000000   2692193   2691007   2689901   2688886   2687965  
  6450.000000   2687120   2686323   2685528   2684694   2683792  
  6440.000000   2682823   2681809   2680795   2679821   2678919  
  6430.000000   2678090   2677322   2676591   2675892   2675230  
  6420.000000   2674636   2674142   2673771   2673521   2673366  
  6410.000000   2673258   2673154   2673020   2672847   2672640  
  6400.000000   2672418   2672192   2671969   2671742   2671504  
  6390.000000   2671250   2670984   2670716   2670461   2670228  
  6380.000000   2670021   2669839   2669674   2669523   2669381  
  6370.000000   2669246   2669115   2668982   2668839   2668675  
  6360.000000   2668480   2668245   2667966   2667642   2667273  
  6350.000000   2666868   2666435   2665997   2665570   2665180  
  6340.000000   2664836   2664542   2664281   2664030   2663759  
  6330.000000   2663443   2663063   2662609   2662072   2661447  
  6320.000000   2660722   2659894   2658965   2657957   2656895  
  6310.000000   2655821   2654758   2653725   2652704   2651674  
  6300.000000   2650602   2649473   2648286   2647063   2645826  
  6290.000000   2644594   2643364   2642117   2640821   2639451  
  6280.000000   2637993   2636462   2634881   2633292   2631725  
  6270.000000   2630210   2628757   2627373   2626048   2624771  
  6260.000000   2623509   2622220   2620851   2619351   2617683  
  6250.000000   2615841   2613850   2611765   2609647   2607553  
  6240.000000   2605514   2603542   2601625   2599749   2597903  
  6230.000000   2596088   2594308   2592567   2590860   2589178  
  6220.000000   2587507   2585839   2584174   2582515   2580868  
  6210.000000   2579228   2577584   2575920   2574234   2572538  
  6200.000000   2570867   2569267   2567775   2566404   2565133  
  6190.000000   2563910   2562675   2561378   2559998   2558547  
  6180.000000   2557058   2555566   2554095   2552640   2551186  
  6170.000000   2549712   2548211   2546696   2545193   2543736  
  6160.000000   2542349   2541041   2539804   2538623   2537486  
  6150.000000   2536382   2535304   2534239   2533166   2532049  
  6140.000000   2530857   2529569   2528193   2526759   2525325  
  6130.000000   2523941   2522653   2521470   2520381   2519354  
  6120.000000   2518359   2517372   2516394   2515437   2514527  
  6110.000000   2513682   2512920   2512236   2511628   2511075  
  6100.000000   2510563   2510071   2509594   2509125   2508679  
  6090.000000   2508273   2507940   2507700   2507576   2507564  
  6080.000000   2507655   2507814   2508017   2508232   2508452  
  6070.000000   2508668   2508890   2509117   2509360   2509619  
  6060.000000   2509911   2510246   2510656   2511157   2511771  
  6050.000000   2512487   2513296   2514166   2515084   2516045  
  6040.000000   2517077   2518210   2519489   2520929   2522534  
  6030.000000   2524264   2526085   2527943   2529817   2531688  
  6020.000000   2533570   2535467   2537397   2539356   2541350  
  6010.000000   2543371   2545430   2547527   2549678   2551876  
  6000.000000   2554118   2556381   2558655   2560926   2563210  
  5990.000000   2565520   2567888   2570326   2572841   2575415  
  5980.000000   2578035   2580681   2583362   2586092   2588907  
  5970.000000   2591831   2594882   2598049   2601315   2604643  
  5960.000000   2608014   2611401   2614802   2618206   2621615  
  5950.000000   2625019   2628427   2631843   2635297   2638817  
  5940.000000   2642440   2646186   2650058   2654041   2658101  
  5930.000000   2662206   2666324   2670432   2674506   2678516  
  5920.000000   2682419   2686163   2689698   2692993   2696047  
  5910.000000   2698891   2701576   2704167   2706707   2709233  
  5900.000000   2711754   2714279   2716813   2719377   2721984  
  5890.000000   2724655   2727381   2730148   2732919   2735667  
  5880.000000   2738370   2741026   2743643   2746229   2748780  
  5870.000000   2751271   2753668   2755939   2758071   2760080  
  5860.000000   2762009   2763911   2765838   2767822   2769877  
  5850.000000   2772001   2774188   2776439   2778760   2781156  
  5840.000000   2783630   2786169   2788755   2791363   2793980  
  5830.000000   2796600   2799235   2801892   2804576   2807276  
  5820.000000   2809972   2812638   2815258   2817825   2820344  
  5810.000000   2822829   2825280   2827702   2830077   2832415  
  5800.000000   2834711   2837007   2839319   2841693   2844110  
  5790.000000   2846557   2848942   2851185   2853156   2854761  
  5780.000000   2855886   2856468   2856438   2855785   2854511  
  5770.000000   2852687   2850409   2847831   2845092   2842345  
  5760.000000   2839674   2837145   2834756   2832513   2830397  
  5750.000000   2828430   2826628   2825025   2823628   2822419  
  5740.000000   2821354   2820366   2819399   2818404   2817368  
  5730.000000   2816287   2815180   2814056   2812934   2811819  
  5720.000000   2810728   2809677   2808691   2807784   2806970  
  5710.000000   2806242   2805592   2805007   2804483   2804022  
  5700.000000   2803632   2803312   2803046   2802808   2802561  
  5690.000000   2802285   2801970   2801645   2801340   2801097  
  5680.000000   2800923   2800804   2800684   2800493   2800149  
  5670.000000   2799588   2798755   2797627   2796186   2794442  
  5660.000000   2792416   2790163   2787755   2785293   2782868  
  5650.000000   2780562   2778410   2776415   2774539   2772742  
  5640.000000   2770985   2769257   2767564   2765921   2764343  
  5630.000000   2762823   2761351   2759904   2758481   2757089  
  5620.000000   2755760   2754516   2753377   2752331   2751353  
  5610.000000   2750403   2749457   2748504   2747562   2746655  
  5600.000000   2745808   2745026   2744293   2743579   2742850  
  5590.000000   2742081   2741264   2740404   2739514   2738609  
  5580.000000   2737695   2736783   2735876   2734984   2734113  
  5570.000000   2733261   2732411   2731540   2730611   2729603  
  5560.000000   2728504   2727332   2726114   2724888   2723679  
  5550.000000   2722496   2721333   2720173   2719006   2717831  
  5540.000000   2716661   2715512   2714397   2713318   2712264  
  5530.000000   2711224   2710189   2709163   2708153   2707169  
  5520.000000   2706212   2705273   2704331   2703365   2702358  
  5510.000000   2701305   2700209   2699077   2697909   2696706  
  5500.000000   2695462   2694188   2692900   2691630   2690402  
  5490.000000   2689226   2688080   2686920   2685684   2684328  
  5480.000000   2682825   2681195   2679475   2677722   2675973  
  5470.000000   2674248   2672533   2670805   2669038   2667223  
  5460.000000   2665359   2663456   2661518   2659542   2657519  
  5450.000000   2655446   2653335   2651217   2649134   2647124  
  5440.000000   2645207   2643374   2641603   2639864   2638139  
  5430.000000   2636424   2634731   2633062   2631415   2629765  
  5420.000000   2628096   2626395   2624697   2623052   2621547  
  5410.000000   2620238   2619164   2618296   2617587   2616967  
  5400.000000   2616400   2615867   2615402   2615030   2614797  
  5390.000000   2614704   2614756   2614923   2615216   2615634  
  5380.000000   2616223   2616999   2617993   2619169   2620508  
  5370.000000   2621942   2623459   2625029   2626700   2628483  
  5360.000000   2630448   2632595   2634973   2637565   2640430  
  5350.000000   2643575   2647089   2650987   2655346   2660133  
  5340.000000   2665379   2671013   2677069   2683494   2690347  
  5330.000000   2697577   2705232   2713235   2721619   2730318  
  5320.000000   2739427   2748955   2759074   2769829   2781386  
  5310.000000   2793725   2806924   2820879   2835622   2851049  
  5300.000000   2867234   2884134   2901878   2920460   2940011  
  5290.000000   2960489   2981959   3004298   3027479   3051324  
  5280.000000   3075794   3100775   3126330   3152471   3179346  
  5270.000000   3206990   3235450   3264597   3294260   3324179  
  5260.000000   3354147   3384032   3413820   3443584   3473394  
  5250.000000   3503292   3533163   3562840   3592022   3620514  
  5240.000000   3648106   3674825   3700687   3725897   3750527  
  5230.000000   3774736   3798451   3821661   3844150   3865846  
  5220.000000   3886568   3906366   3925209   3943282   3960623  
  5210.000000   3977409   3993591   4009209   4024082   4038179  
  5200.000000   4051339   4063631   4075032   4085729   4095754  
  5190.000000   4105263   4114202   4122619   4130384   4137519  
  5180.000000   4143929   4149696   4154784   4159289   4163167  
  5170.000000   4166478   4169159   4171280   4172819   4173889  
  5160.000000   4174497   4174745   4174597   4174092   4173157  
  5150.000000   4171821   4170040   4167885   4165349   4162502  
  5140.000000   4159319   4155830   4151996   4147851   4143394  
  5130.000000   4138702   4133811   4128799   4123675   4118473  
  5120.000000   4113169   4107774   4102279   4096717   4091099  
  5110.000000   4085456   4079782   4074074   4068306   4062477  
  5100.000000   4056590   4050685   4044803   4038998   4033296  
  5090.000000   4027714   4022234   4016836   4011491   4006181  
  5080.000000   4000888   3995606   3990320   3985020   3979687  
  5070.000000   3974312   3968883   3963405   3957875   3952298  
  5060.000000   3946659   3940951   3935143   3929225   3923177  
  5050.000000   3917009   3910718   3904328   3897842   3891277  
  5040.000000   3884633   3877923   3871148   3864325   3857459  
  5030.000000   3850566   3843647   3836711   3829759   3822805  
  5020.000000   3815864   3808959   3802116   3795352   3788684  
  5010.000000   3782108   3775629   3769235   3762938   3756736  
  5000.000000   3750658   3744709   3738920   3733286   3727833  
  4990.000000   3722546   3717453   3712546   3707867   3703414  
  4980.000000   3699237   3695330   3691741   3688458   3685530  
  4970.000000   3682941   3680740   3678902   3677467   3676390  
  4960.000000   3675699   3675343   3675356   3675701   3676432  
  4950.000000   3677522   3679028   3680915   3683225   3685909  
  4940.000000   3689001   3692457   3696322   3700561   3705227  
  4930.000000   3710280   3715761   3721620   3727884   3734505  
  4920.000000   3741511   3748858   3756573   3764613   3772996  
  4910.000000   3781678   3790672   3799942   3809503   3819322  
  4900.000000   3829398   3839690   3850170   3860789   3871508  
  4890.000000   3882286   3893081   3903861   3914566   3925155  
  4880.000000   3935544   3945685   3955491   3964933   3973944  
  4870.000000   3982521   3990610   3998219   4005296   4011862  
  4860.000000   4017882   4023404   4028423   4033014   4037185  
  4850.000000   4041005   4044469   4047626   4050460   4053015  
  4840.000000   4055291   4057349   4059216   4060969   4062642  
  4830.000000   4064301   4065963   4067658   4069375   4071109  
  4820.000000   4072829   4074522   4076170   4077779   4079363  
  4810.000000   4080947   4082559   4084220   4085941   4087717  
  4800.000000   4089539   4091389   4093263   4095157   4097084  
  4790.000000   4099059   4101106   4103242   4105481   4107833  
  4780.000000   4110300   4112876   4115545   4118280   4121043  
  4770.000000   4123792   4126484   4129089   4131589   4133985  
  4760.000000   4136289   4138517   4140677   4142772   4144789  
  4750.000000   4146719   4148549   4150289   4151943   4153540  
  4740.000000   4155092   4156616   4158102   4159548   4160930  
  4730.000000   4162239   4163464   4164612   4165684   4166690  
  4720.000000   4167627   4168491   4169272   4169963   4170570  
  4710.000000   4171110   4171620   4172145   4172740   4173451  
  4700.000000   4174318   4175361   4176590   4177996   4179565  
  4690.000000   4181274   4183106   4185036   4187048   4189115  
  4680.000000   4191211   4193296   4195339   4197293   4199140  
  4670.000000   4200857   4202460   4203964   4205418   4206860  
  4660.000000   4208347   4209915   4211612   4213470   4215528  
  4650.000000   4217813   4220347   4223138   4226175   4229429  
  4640.000000   4232853   4236392   4239987   4243595   4247173  
  4630.000000   4250696   4254133   4257460   4260639   4263635  
  4620.000000   4266398   4268893   4271078   4272941   4274463  
  4610.000000   4275664   4276555   4277191   4277606   4277879  
  4600.000000   4278053   4278203   4278347   4278524   4278710  
  4590.000000   4278899   4279032   4279080   4278982   4278713  
  4580.000000   4278230   4277529   4276593   4275441   4274081  
  4570.000000   4272553   4270879   4269105   4267245   4265329  
  4560.000000   4263348   4261310   4259192   4256997   4254712  
  4550.000000   4252353   4249924   4247447   4244931   4242387  
  4540.000000   4239819   4237231   4234628   4232018   4229423  
  4530.000000   4226855   4224346   4221903   4219555   4217298  
  4520.000000   4215158   4213123   4211224   4209447   4207835  
  4510.000000   4206375   4205134   4204110   4203394   4203000  
  4500.000000   4203033   4203501   4204508   4206043   4208201  
  4490.000000   4210968   4214444   4218620   4223601   4229366  
  4480.000000   4235990   4243407   4251650   4260615   4270313  
  4470.000000   4280643   4291623   4303171   4315313   4327967  
  4460.000000   4341145   4354753   4368780   4383131   4397784  
  4450.000000   4412656   4427728   4442936   4458266   4473678  
  4440.000000   4489161   4504692   4520253   4535826   4551367  
  4430.000000   4566856   4582223   4597449   4612454   4627232  
  4420.000000   4641699   4655852   4669595   4682906   4695661  
  4410.000000   4707814   4719220   4729837   4739545   4748349  
  4400.000000   4756200   4763182   4769325   4774774   4779605  
  4390.000000   4783981   4787986   4791765   4795376   4798925  
  4380.000000   4802435   4805965   4809514   4813122   4816795  
  4370.000000   4820585   4824526   4828677   4833073   4837745  
  4360.000000   4842691   4847901   4853332   4858957   4864709  
  4350.000000   4870565   4876439   4882325   4888139   4893904  
  4340.000000   4899570   4905176   4910643   4915891   4920650  
  4330.000000   4924582   4927189   4928002   4926607   4922845  
  4320.000000   4916824   4908998   4900030   4890731   4881826  
  4310.000000   4873909   4867280   4862032   4858026   4855056  
  4300.000000   4852868   4851271   4850126   4849348   4848902  
  4290.000000   4848735   4848837   4849161   4849721   4850499  
  4280.000000   4851523   4852790   4854294   4856006   4857877  
  4270.000000   4859869   4861922   4863993   4865973   4867728  
  4260.000000   4869024   4869596   4869140   4867429   4864329  
  4250.000000   4859896   4854328   4847991   4841278   4834613  
  4240.000000   4828293   4822536   4817384   4812812   4808690  
  4230.000000   4804890   4801265   4797708   4794132   4790474  
  4220.000000   4786716   4782842   4778905   4774952   4771109  
  4210.000000   4767469   4764174   4761298   4758921   4757035  
  4200.000000   4755631   4754627   4753968   4753557   4753356  
  4190.000000   4753301   4753399   4753616   4753990   4754491  
  4180.000000   4755156   4755946   4756890   4757950   4759175  
  4170.000000   4760563   4762205   4764139   4766482   4769274  
  4160.000000   4772605   4776466   4780893   4785823   4791258  
  4150.000000   4797120   4803420   4810095   4817182   4824640  
  4140.000000   4832530   4840823   4849593   4858817   4868567  
  4130.000000   4878805   4889578   4900826   4912569   4924739  
  4120.000000   4937360   4950390   4963882   4977831   4992313  
  4110.000000   5007333   5022944   5039113   5055836   5073022  
  4100.000000   5090610   5108486   5126579   5144805   5163128  
  4090.000000   5181520   5199973   5218484   5237038   5255628  
  4080.000000   5274219   5292808   5311348   5329839   5348212  
  4070.000000   5366439   5384400   5402033   5419193   5435838  
  4060.000000   5451857   5467268   5482004   5496124   5509573  
  4050.000000   5522433   5534666   5546387   5557576   5568353  
  4040.000000   5578662   5588559   5597909   5606707   5614791  
  4030.000000   5622171   5628728   5634514   5639458   5643617  
  4020.000000   5646910   5649422   5651166   5652265   5652707  
  4010.000000   5652654   5652187   5651293   5649694   5647410  
  4000.000000   5644773  
##END= 
