##TITLE= Sample 011 By ssteindl date Donnerstag, November 22 2018
##JCAMP-DX= 4.24
##DATA TYPE= INFRARED SPECTRUM
##ORIGIN= Exported PE Spectrum Data File
##OWNER= Sandra Steindl
##DATE= 18/11/22
##TIME= 10:19:53.00
##SPECTROMETER/DATA SYSTEM= PERKIN-ELMER Frontier FT-IR/NIR IR
##INSTRUMENT PARAMETERS=
  APODIZATION=stark
  DETECTOR=INGAAS
##RESOLUTION= 16.000000
##DELTAX= -2.000000
##XUNITS= 1/CM
##YUNITS= A
##XFACTOR= 1.00
##YFACTOR= 0.00000011920928955078
##FIRSTX= 10000.00
##LASTX= 4000.00
##NPOINTS= 3001
##FIRSTY= 0.211683
##MAXY= 0.652775
##MINY= 0.177872
##XYDATA= (X++(Y..Y))
 10000.000000   1775722   1776217   1776442   1775609   1772763  
  9990.000000   1767445   1760016   1751803   1744514   1739789  
  9980.000000   1738537   1740716   1745307   1750691   1755176  
  9970.000000   1757368   1756437   1752073   1744493   1734271  
  9960.000000   1722399   1710164   1699142   1690849   1686460  
  9950.000000   1686359   1689988   1695954   1702426   1707756  
  9940.000000   1710925   1711843   1711223   1710200   1709880  
  9930.000000   1710860   1713198   1716403   1719845   1722905  
  9920.000000   1725209   1726578   1726953   1726362   1724846  
  9910.000000   1722619   1720011   1717549   1715746   1714951  
  9900.000000   1715183   1716052   1716925   1717101   1716102  
  9890.000000   1713788   1710365   1706246   1701903   1697757  
  9880.000000   1694203   1691668   1690637   1691593   1694778  
  9870.000000   1700037   1706655   1713531   1719462   1723561  
  9860.000000   1725560   1725833   1725189   1724421   1723950  
  9850.000000   1723630   1722893   1721129   1718049   1713972  
  9840.000000   1709667   1706115   1704000   1703474   1704058  
  9830.000000   1704868   1704988   1703757   1700986   1696843  
  9820.000000   1691735   1686081   1680280   1674767   1670119  
  9810.000000   1667086   1666446   1668734   1673923   1681288  
  9800.000000   1689472   1696890   1702169   1704599   1704287  
  9790.000000   1702023   1698937   1696015   1693851   1692480  
  9780.000000   1691587   1690672   1689336   1687351   1684673  
  9770.000000   1681385   1677602   1673522   1669381   1665564  
  9760.000000   1662509   1660672   1660364   1661644   1664286  
  9750.000000   1667826   1671690   1675353   1678392   1680555  
  9740.000000   1681691   1681766   1680855   1679182   1677136  
  9730.000000   1675195   1673795   1673134   1673058   1673020  
  9720.000000   1672267   1670055   1665984   1660135   1653131  
  9710.000000   1645906   1639441   1634456   1631238   1629692  
  9700.000000   1629472   1630256   1631868   1634347   1637837  
  9690.000000   1642409   1647922   1653915   1659693   1664424  
  9680.000000   1667411   1668207   1666826   1663694   1659604  
  9670.000000   1655523   1652312   1650589   1650473   1651692  
  9660.000000   1653577   1655388   1656452   1656406   1655195  
  9650.000000   1653012   1650139   1646754   1642922   1638568  
  9640.000000   1633695   1628459   1623263   1618687   1615273  
  9630.000000   1613422   1613197   1614454   1616876   1620170  
  9620.000000   1624085   1628361   1632643   1636333   1638697  
  9610.000000   1638960   1636686   1631924   1625390   1618262  
  9600.000000   1611884   1607351   1605156   1605156   1606637  
  9590.000000   1608744   1610717   1612189   1613102   1613587  
  9580.000000   1613747   1613503   1612678   1611027   1608504  
  9570.000000   1605213   1601503   1597744   1594287   1591353  
  9560.000000   1589078   1587619   1587152   1587923   1590061  
  9550.000000   1593494   1597849   1602499   1606749   1610027  
  9540.000000   1612063   1612916   1612861   1612227   1611225  
  9530.000000   1609923   1608341   1606603   1605037   1604106  
  9520.000000   1604149   1605137   1606462   1607116   1606007  
  9510.000000   1602483   1596660   1589488   1582459   1577054  
  9500.000000   1574204   1573936   1575429   1577354   1578479  
  9490.000000   1578122   1576392   1574014   1571933   1570875  
  9480.000000   1571088   1572355   1574220   1576256   1578292  
  9470.000000   1580400   1582771   1585482   1588329   1590870  
  9460.000000   1592576   1593096   1592439   1590947   1589183  
  9450.000000   1587622   1586481   1585613   1584595   1582965  
  9440.000000   1580431   1577100   1573449   1570239   1568191  
  9430.000000   1567817   1569165   1571897   1575310   1578587  
  9420.000000   1580987   1582037   1581675   1580154   1577979  
  9410.000000   1575596   1573313   1571120   1568822   1566111  
  9400.000000   1562803   1558980   1555052   1551746   1549838  
  9390.000000   1549974   1552346   1556691   1562288   1568215  
  9380.000000   1573528   1577469   1579573   1579690   1578007  
  9370.000000   1574930   1571057   1566996   1563316   1560371  
  9360.000000   1558262   1556780   1555489   1553921   1551745  
  9350.000000   1549008   1546072   1543583   1542119   1542036  
  9340.000000   1543253   1545322   1547601   1549487   1550676  
  9330.000000   1551138   1551095   1550710   1550019   1548797  
  9320.000000   1546755   1543669   1539623   1535069   1530770  
  9310.000000   1527584   1526148   1526737   1529175   1532988  
  9300.000000   1537554   1542269   1546642   1550267   1552834  
  9290.000000   1554070   1553842   1552193   1549466   1546278  
  9280.000000   1543433   1541694   1541541   1543027   1545749  
  9270.000000   1549056   1552194   1554587   1555869   1555996  
  9260.000000   1555123   1553548   1551576   1549492   1547542  
  9250.000000   1545925   1544762   1544030   1543551   1543037  
  9240.000000   1542177   1540782   1538826   1536504   1534129  
  9230.000000   1532043   1530468   1529439   1528837   1528467  
  9220.000000   1528203   1528003   1527919   1527971   1528113  
  9210.000000   1528182   1527987   1527369   1526320   1525017  
  9200.000000   1523806   1523046   1523003   1523736   1525142  
  9190.000000   1526996   1529048   1531074   1532878   1534313  
  9180.000000   1535214   1535472   1535039   1534103   1533058  
  9170.000000   1532473   1532815   1534288   1536660   1539286  
  9160.000000   1541262   1541695   1540032   1536214   1530705  
  9150.000000   1524259   1517671   1511558   1506280   1501991  
  9140.000000   1498742   1496631   1495816   1496463   1498549  
  9130.000000   1501786   1505597   1509266   1512148   1513813  
  9120.000000   1514194   1513501   1512189   1510682   1509324  
  9110.000000   1508275   1507623   1507389   1507566   1508112  
  9100.000000   1508904   1509745   1510357   1510506   1510094  
  9090.000000   1509252   1508277   1507531   1507259   1507479  
  9080.000000   1507949   1508290   1508153   1507416   1506246  
  9070.000000   1505049   1504273   1504201   1504826   1505809  
  9060.000000   1506641   1506799   1505984   1504180   1501665  
  9050.000000   1498872   1496247   1494156   1492820   1492363  
  9040.000000   1492805   1494135   1496267   1499023   1502077  
  9030.000000   1505009   1507378   1508826   1509170   1508438  
  9020.000000   1506884   1504854   1502706   1500678   1498916  
  9010.000000   1497443   1496248   1495304   1494612   1494180  
  9000.000000   1493979   1493945   1493969   1493974   1493945  
  8990.000000   1493981   1494288   1495111   1496647   1498938  
  8980.000000   1501822   1504943   1507839   1510058   1511304  
  8970.000000   1511507   1510864   1509732   1508529   1507563  
  8960.000000   1506964   1506649   1506384   1505921   1505089  
  8950.000000   1503936   1502664   1501634   1501167   1501496  
  8940.000000   1502635   1504397   1506442   1508344   1509719  
  8930.000000   1510245   1509739   1508142   1505568   1502295  
  8920.000000   1498770   1495542   1493173   1492101   1492522  
  8910.000000   1494302   1496975   1499882   1502354   1503919  
  8900.000000   1504409   1503988   1503074   1502154   1501649  
  8890.000000   1501751   1502472   1503619   1504954   1506211  
  8880.000000   1507187   1507741   1507810   1507443   1506797  
  8870.000000   1506173   1505948   1506527   1508187   1510967  
  8860.000000   1514587   1518492   1521991   1524480   1525626  
  8850.000000   1525460   1524346   1522824   1521419   1520451  
  8840.000000   1519959   1519742   1519503   1519006   1518183  
  8830.000000   1517171   1516231   1515651   1515602   1516103  
  8820.000000   1517010   1518091   1519135   1520006   1520712  
  8810.000000   1521337   1522017   1522832   1523798   1524834  
  8800.000000   1525824   1526655   1527307   1527859   1528509  
  8790.000000   1529482   1530964   1532996   1535450   1538033  
  8780.000000   1540386   1542195   1543311   1543814   1543988  
  8770.000000   1544232   1544902   1546201   1548104   1550396  
  8760.000000   1552762   1554907   1556642   1557913   1558764  
  8750.000000   1559279   1559520   1559527   1559326   1558994  
  8740.000000   1558674   1558571   1558879   1559700   1560985  
  8730.000000   1562536   1564079   1565352   1566218   1566679  
  8720.000000   1566869   1566965   1567120   1567415   1567873  
  8710.000000   1568512   1569391   1570637   1572406   1574800  
  8700.000000   1577786   1581148   1584535   1587530   1589799  
  8690.000000   1591159   1591664   1591527   1591081   1590633  
  8680.000000   1590442   1590657   1591353   1592543   1594199  
  8670.000000   1596267   1598659   1601267   1603953   1606606  
  8660.000000   1609156   1611603   1614000   1616411   1618882  
  8650.000000   1621386   1623848   1626143   1628172   1629877  
  8640.000000   1631272   1632421   1633416   1634350   1635291  
  8630.000000   1636294   1637395   1638638   1640050   1641652  
  8620.000000   1643420   1645307   1647238   1649145   1650989  
  8610.000000   1652757   1654477   1656160   1657810   1659385  
  8600.000000   1660838   1662127   1663255   1664296   1665378  
  8590.000000   1666673   1668334   1670474   1673106   1676161  
  8580.000000   1679452   1682743   1685748   1688222   1690006  
  8570.000000   1691074   1691562   1691718   1691848   1692182  
  8560.000000   1692798   1693574   1694230   1694456   1694054  
  8550.000000   1693077   1691847   1690894   1690765   1691845  
  8540.000000   1694173   1697448   1701100   1704500   1707160  
  8530.000000   1708873   1709764   1710178   1710555   1711228  
  8520.000000   1712353   1713845   1715470   1716921   1717952  
  8510.000000   1718443   1718423   1718071   1717653   1717487  
  8500.000000   1717844   1718912   1720734   1723177   1725962  
  8490.000000   1728705   1731037   1732683   1733542   1733721  
  8480.000000   1733502   1733249   1733310   1733925   1735209  
  8470.000000   1737123   1739523   1742186   1744870   1747340  
  8460.000000   1749392   1750912   1751899   1752497   1752970  
  8450.000000   1753649   1754844   1756733   1759298   1762316  
  8440.000000   1765436   1768278   1770536   1772072   1772913  
  8430.000000   1773229   1773238   1773155   1773151   1773350  
  8420.000000   1773826   1774617   1775699   1776992   1778341  
  8410.000000   1779560   1780478   1781035   1781298   1781476  
  8400.000000   1781808   1782493   1783583   1784967   1786403  
  8390.000000   1787633   1788499   1789004   1789295   1789564  
  8380.000000   1789944   1790428   1790866   1791031   1790742  
  8370.000000   1789970   1788882   1787789   1787027   1786849  
  8360.000000   1787327   1788375   1789768   1791270   1792685  
  8350.000000   1793905   1794888   1795617   1796064   1796184  
  8340.000000   1795946   1795357   1794497   1793489   1792485  
  8330.000000   1791601   1790904   1790407   1790083   1789916  
  8320.000000   1789892   1790024   1790295   1790667   1791060  
  8310.000000   1791398   1791633   1791779   1791912   1792128  
  8300.000000   1792495   1792982   1793464   1793742   1793632  
  8290.000000   1793037   1791993   1790662   1789278   1788082  
  8280.000000   1787250   1786868   1786925   1787349   1788030  
  8270.000000   1788848   1789662   1790318   1790664   1790584  
  8260.000000   1790048   1789133   1788013   1786913   1786038  
  8250.000000   1785508   1785320   1785376   1785526   1785658  
  8240.000000   1785716   1785718   1785691   1785642   1785505  
  8230.000000   1785163   1784486   1783405   1781949   1780254  
  8220.000000   1778508   1776893   1775511   1774375   1773410  
  8210.000000   1772528   1771655   1770780   1769916   1769081  
  8200.000000   1768247   1767337   1766244   1764878   1763214  
  8190.000000   1761310   1759301   1757345   1755578   1754069  
  8180.000000   1752815   1751758   1750815   1749921   1749028  
  8170.000000   1748119   1747192   1746267   1745375   1744567  
  8160.000000   1743891   1743378   1743009   1742701   1742310  
  8150.000000   1741674   1740667   1739264   1737555   1735732  
  8140.000000   1734008   1732539   1731359   1730374   1729404  
  8130.000000   1728266   1726846   1725145   1723254   1721320  
  8120.000000   1719460   1717738   1716142   1714634   1713183  
  8110.000000   1711797   1710523   1709398   1708424   1707524  
  8100.000000   1706575   1705437   1704028   1702358   1700547  
  8090.000000   1698775   1697234   1696064   1695320   1694983  
  8080.000000   1694975   1695204   1695575   1695987   1696337  
  8070.000000   1696495   1696344   1695789   1694811   1693470  
  8060.000000   1691910   1690302   1688803   1687502   1686410  
  8050.000000   1685487   1684680   1683971   1683379   1682956  
  8040.000000   1682726   1682660   1682657   1682571   1682265  
  8030.000000   1681662   1680785   1679739   1678672   1677707  
  8020.000000   1676903   1676235   1675627   1674992   1674284  
  8010.000000   1673509   1672720   1671969   1671281   1670628  
  8000.000000   1669941   1669153   1668226   1667194   1666155  
  7990.000000   1665247   1664605   1664317   1664390   1664749  
  7980.000000   1665251   1665717   1665969   1665868   1665342  
  7970.000000   1664401   1663140   1661718   1660327   1659151  
  7960.000000   1658315   1657862   1657744   1657838   1657989  
  7950.000000   1658054   1657939   1657609   1657090   1656436  
  7940.000000   1655713   1654967   1654230   1653513   1652836  
  7930.000000   1652215   1651685   1651284   1651048   1651001  
  7920.000000   1651150   1651483   1651964   1652539   1653137  
  7910.000000   1653678   1654093   1654337   1654407   1654330  
  7900.000000   1654164   1653956   1653735   1653485   1653164  
  7890.000000   1652719   1652128   1651418   1650666   1649990  
  7880.000000   1649492   1649242   1649241   1649437   1649747  
  7870.000000   1650095   1650431   1650741   1651025   1651277  
  7860.000000   1651460   1651523   1651413   1651111   1650658  
  7850.000000   1650138   1649661   1649302   1649073   1648903  
  7840.000000   1648664   1648222   1647496   1646496   1645326  
  7830.000000   1644162   1643186   1642548   1642310   1642462  
  7820.000000   1642913   1643540   1644200   1644761   1645109  
  7810.000000   1645157   1644856   1644199   1643236   1642057  
  7800.000000   1640782   1639520   1638347   1637287   1636314  
  7790.000000   1635379   1634435   1633475   1632528   1631658  
  7780.000000   1630925   1630369   1629979   1629709   1629489  
  7770.000000   1629247   1628943   1628555   1628095   1627571  
  7760.000000   1626996   1626366   1625680   1624934   1624141  
  7750.000000   1623322   1622509   1621733   1621022   1620401  
  7740.000000   1619890   1619504   1619250   1619116   1619060  
  7730.000000   1619014   1618894   1618628   1618182   1617582  
  7720.000000   1616910   1616286   1615822   1615584   1615563  
  7710.000000   1615677   1615795   1615776   1615516   1614965  
  7700.000000   1614144   1613120   1611992   1610861   1609813  
  7690.000000   1608913   1608203   1607699   1607393   1607252  
  7680.000000   1607222   1607236   1607235   1607180   1607067  
  7670.000000   1606917   1606772   1606662   1606598   1606555  
  7660.000000   1606498   1606382   1606201   1605977   1605775  
  7650.000000   1605663   1605690   1605854   1606102   1606343  
  7640.000000   1606480   1606458   1606286   1606045   1605867  
  7630.000000   1605887   1606193   1606790   1607594   1608446  
  7620.000000   1609174   1609628   1609739   1609522   1609075  
  7610.000000   1608537   1608051   1607717   1607575   1607607  
  7600.000000   1607761   1607980   1608228   1608506   1608843  
  7590.000000   1609282   1609856   1610560   1611354   1612151  
  7580.000000   1612859   1613386   1613687   1613760   1613672  
  7570.000000   1613527   1613461   1613590   1613996   1614694  
  7560.000000   1615642   1616743   1617891   1618982   1619959  
  7550.000000   1620811   1621576   1622313   1623094   1623965  
  7540.000000   1624960   1626085   1627344   1628733   1630253  
  7530.000000   1631884   1633595   1635319   1636981   1638501  
  7520.000000   1639833   1640963   1641938   1642822   1643704  
  7510.000000   1644645   1645686   1646840   1648122   1649555  
  7500.000000   1651190   1653078   1655255   1657706   1660358  
  7490.000000   1663082   1665742   1668220   1670470   1672512  
  7480.000000   1674433   1676326   1678270   1680284   1682355  
  7470.000000   1684431   1686485   1688508   1690532   1692597  
  7460.000000   1694732   1696930   1699155   1701361   1703528  
  7450.000000   1705678   1707881   1710226   1712788   1715588  
  7440.000000   1718583   1721681   1724783   1727816   1730763  
  7430.000000   1733648   1736521   1739408   1742291   1745100  
  7420.000000   1747745   1750151   1752298   1754239   1756090  
  7410.000000   1757988   1760052   1762346   1764858   1767524  
  7400.000000   1770246   1772933   1775524   1778000   1780381  
  7390.000000   1782708   1785035   1787411   1789876   1792459  
  7380.000000   1795173   1798012   1800953   1803956   1806972  
  7370.000000   1809951   1812852   1815651   1818341   1820925  
  7360.000000   1823414   1825812   1828121   1830341   1832475  
  7350.000000   1834544   1836585   1838659   1840826   1843143  
  7340.000000   1845632   1848278   1851014   1853749   1856378  
  7330.000000   1858812   1861003   1862959   1864744   1866462  
  7320.000000   1868222   1870112   1872171   1874385   1876684  
  7310.000000   1878976   1881159   1883166   1884960   1886552  
  7300.000000   1887977   1889296   1890559   1891816   1893093  
  7290.000000   1894408   1895759   1897136   1898518   1899885  
  7280.000000   1901210   1902476   1903665   1904772   1905796  
  7270.000000   1906747   1907641   1908499   1909352   1910232  
  7260.000000   1911170   1912187   1913297   1914491   1915760  
  7250.000000   1917082   1918451   1919863   1921331   1922865  
  7240.000000   1924480   1926164   1927917   1929719   1931586  
  7230.000000   1933531   1935601   1937821   1940212   1942741  
  7220.000000   1945359   1947987   1950586   1953141   1955721  
  7210.000000   1958415   1961344   1964576   1968134   1971949  
  7200.000000   1975927   1979954   1983979   1987996   1992077  
  7190.000000   1996292   2000710   2005312   2010038   2014758  
  7180.000000   2019367   2023784   2028030   2032175   2036357  
  7170.000000   2040690   2045273   2050125   2055227   2060503  
  7160.000000   2065888   2071312   2076750   2082187   2087652  
  7150.000000   2093173   2098809   2104604   2110621   2116875  
  7140.000000   2123377   2130067   2136885   2143727   2150536  
  7130.000000   2157258   2163916   2170542   2177222   2184015  
  7120.000000   2190988   2198154   2205525   2213072   2220778  
  7110.000000   2228613   2236574   2244647   2252846   2261171  
  7100.000000   2269639   2278233   2286935   2295677   2304384  
  7090.000000   2312950   2321308   2329424   2337354   2345207  
  7080.000000   2353147   2361326   2369848   2378724   2387878  
  7070.000000   2397170   2406456   2415622   2424629   2433488  
  7060.000000   2442247   2450948   2459610   2468226   2476795  
  7050.000000   2485331   2493884   2502521   2511297   2520217  
  7040.000000   2529220   2538193   2547001   2555545   2563784  
  7030.000000   2571762   2579566   2587314   2595092   2602957  
  7020.000000   2610906   2618922   2626962   2634999   2642982  
  7010.000000   2650867   2658580   2666066   2673271   2680208  
  7000.000000   2686923   2693526   2700110   2706759   2713475  
  6990.000000   2720218   2726889   2733405   2739692   2745742  
  6980.000000   2751554   2757167   2762591   2767852   2772956  
  6970.000000   2777952   2782891   2787861   2792900   2798021  
  6960.000000   2803143   2808158   2812925   2817365   2821455  
  6950.000000   2825270   2828908   2832478   2836013   2839499  
  6940.000000   2842863   2846054   2849059   2851951   2854835  
  6930.000000   2857836   2861008   2864342   2867732   2871055  
  6920.000000   2874191   2877091   2879765   2882279   2884699  
  6910.000000   2887072   2889394   2891645   2893785   2895808  
  6900.000000   2897722   2899566   2901368   2903148   2904897  
  6890.000000   2906609   2908271   2909899   2911513   2913143  
  6880.000000   2914791   2916441   2918049   2919571   2920980  
  6870.000000   2922275   2923484   2924648   2925804   2926978  
  6860.000000   2928186   2929444   2930772   2932200   2933738  
  6850.000000   2935379   2937071   2938741   2940307   2941728  
  6840.000000   2943007   2944208   2945412   2946687   2948041  
  6830.000000   2949424   2950738   2951890   2952821   2953540  
  6820.000000   2954105   2954597   2955070   2955538   2955964  
  6810.000000   2956305   2956530   2956664   2956763   2956912  
  6800.000000   2957164   2957539   2957999   2958489   2958949  
  6790.000000   2959355   2959707   2960024   2960304   2960514  
  6780.000000   2960587   2960454   2960069   2959451   2958676  
  6770.000000   2957865   2957135   2956570   2956189   2955964  
  6760.000000   2955826   2955716   2955583   2955413   2955205  
  6750.000000   2954969   2954709   2954428   2954121   2953788  
  6740.000000   2953422   2953010   2952528   2951940   2951213  
  6730.000000   2950340   2949344   2948293   2947264   2946331  
  6720.000000   2945522   2944821   2944165   2943484   2942726  
  6710.000000   2941882   2940982   2940079   2939207   2938374  
  6700.000000   2937550   2936691   2935758   2934751   2933698  
  6690.000000   2932653   2931655   2930721   2929818   2928897  
  6680.000000   2927898   2926786   2925554   2924221   2922814  
  6670.000000   2921356   2919854   2918312   2916733   2915142  
  6660.000000   2913570   2912057   2910615   2909232   2907864  
  6650.000000   2906462   2904987   2903439   2901849   2900271  
  6640.000000   2898747   2897297   2895897   2894501   2893058  
  6630.000000   2891542   2889953   2888320   2886673   2885033  
  6620.000000   2883388   2881713   2879974   2878155   2876264  
  6610.000000   2874334   2872400   2870483   2868572   2866636  
  6600.000000   2864627   2862516   2860298   2858010   2855710  
  6590.000000   2853468   2851341   2849359   2847521   2845802  
  6580.000000   2844155   2842530   2840878   2839165   2837379  
  6570.000000   2835533   2833672   2831849   2830128   2828547  
  6560.000000   2827116   2825799   2824537   2823254   2821897  
  6550.000000   2820444   2818916   2817365   2815856   2814436  
  6540.000000   2813130   2811925   2810789   2809676   2808554  
  6530.000000   2807400   2806213   2805002   2803786   2802586  
  6520.000000   2801424   2800320   2799293   2798351   2797492  
  6510.000000   2796698   2795940   2795183   2794394   2793552  
  6500.000000   2792653   2791704   2790724   2789736   2788762  
  6490.000000   2787818   2786916   2786059   2785242   2784451  
  6480.000000   2783668   2782870   2782041   2781178   2780286  
  6470.000000   2779382   2778485   2777604   2776742   2775893  
  6460.000000   2775051   2774220   2773412   2772649   2771946  
  6450.000000   2771298   2770678   2770039   2769328   2768510  
  6440.000000   2767580   2766569   2765537   2764544   2763641  
  6430.000000   2762844   2762144   2761514   2760925   2760359  
  6420.000000   2759820   2759317   2758864   2758461   2758099  
  6410.000000   2757755   2757413   2757064   2756712   2756366  
  6400.000000   2756040   2755733   2755439   2755143   2754830  
  6390.000000   2754488   2754117   2753721   2753308   2752887  
  6380.000000   2752461   2752034   2751610   2751193   2750786  
  6370.000000   2750388   2749993   2749591   2749173   2748742  
  6360.000000   2748309   2747897   2747529   2747218   2746957  
  6350.000000   2746725   2746482   2746191   2745821   2745360  
  6340.000000   2744811   2744191   2743520   2742823   2742119  
  6330.000000   2741432   2740774   2740155   2739565   2738981  
  6320.000000   2738357   2737648   2736814   2735847   2734762  
  6310.000000   2733612   2732446   2731312   2730220   2729158  
  6300.000000   2728085   2726965   2725772   2724510   2723189  
  6290.000000   2721831   2720437   2718996   2717477   2715860  
  6280.000000   2714134   2712326   2710473   2708629   2706824  
  6270.000000   2705070   2703339   2701595   2699791   2697904  
  6260.000000   2695926   2693877   2691780   2689663   2687538  
  6250.000000   2685415   2683289   2681161   2679030   2676901  
  6240.000000   2674770   2672637   2670491   2668326   2666140  
  6230.000000   2663936   2661721   2659504   2657285   2655062  
  6220.000000   2652823   2650563   2648284   2646000   2643729  
  6210.000000   2641493   2639305   2637169   2635075   2633011  
  6200.000000   2630965   2628930   2626900   2624868   2622823  
  6190.000000   2620745   2618614   2616416   2614151   2611838  
  6180.000000   2609510   2607209   2604973   2602829   2600789  
  6170.000000   2598850   2596995   2595204   2593450   2591706  
  6160.000000   2589952   2588171   2586362   2584532   2582705  
  6150.000000   2580902   2579143   2577431   2575753   2574081  
  6140.000000   2572386   2570648   2568866   2567060   2565262  
  6130.000000   2563504   2561812   2560191   2558635   2557126  
  6120.000000   2555643   2554167   2552689   2551202   2549709  
  6110.000000   2548213   2546731   2545278   2543880   2542550  
  6100.000000   2541297   2540106   2538956   2537818   2536677  
  6090.000000   2535531   2534413   2533361   2532420   2531610  
  6080.000000   2530928   2530332   2529773   2529198   2528583  
  6070.000000   2527924   2527255   2526607   2526020   2525506  
  6060.000000   2525066   2524680   2524337   2524027   2523765  
  6050.000000   2523568   2523466   2523475   2523609   2523858  
  6040.000000   2524212   2524641   2525127   2525640   2526166  
  6030.000000   2526688   2527212   2527745   2528318   2528953  
  6020.000000   2529681   2530508   2531433   2532427   2533464  
  6010.000000   2534508   2535545   2536567   2537585   2538604  
  6000.000000   2539635   2540664   2541683   2542672   2543631  
  5990.000000   2544565   2545508   2546489   2547550   2548713  
  5980.000000   2549993   2551383   2552879   2554465   2556141  
  5970.000000   2557900   2559753   2561697   2563742   2565878  
  5960.000000   2568107   2570415   2572801   2575250   2577758  
  5950.000000   2580308   2582896   2585508   2588144   2590797  
  5940.000000   2593475   2596180   2598921   2601700   2604521  
  5930.000000   2607380   2610271   2613184   2616103   2619008  
  5920.000000   2621879   2624695   2627440   2630104   2632683  
  5910.000000   2635178   2637591   2639922   2642170   2644338  
  5900.000000   2646435   2648483   2650512   2652565   2654675  
  5890.000000   2656873   2659170   2661562   2664031   2666551  
  5880.000000   2669096   2671640   2674161   2676637   2679049  
  5870.000000   2681382   2683631   2685798   2687906   2689976  
  5860.000000   2692043   2694129   2696257   2698438   2700683  
  5850.000000   2702999   2705398   2707886   2710464   2713121  
  5840.000000   2715837   2718585   2721341   2724092   2726839  
  5830.000000   2729592   2732361   2735145   2737929   2740687  
  5820.000000   2743388   2746014   2748555   2751025   2753436  
  5810.000000   2755803   2758118   2760371   2762532   2764595  
  5800.000000   2766550   2768436   2770271   2772108   2773943  
  5790.000000   2775783   2777569   2779255   2780755   2782011  
  5780.000000   2782944   2783513   2783666   2783389   2782682  
  5770.000000   2781591   2780187   2778582   2776891   2775230  
  5760.000000   2773679   2772295   2771088   2770060   2769195  
  5750.000000   2768489   2767931   2767519   2767235   2767055  
  5740.000000   2766949   2766882   2766838   2766805   2766799  
  5730.000000   2766823   2766893   2767000   2767142   2767300  
  5720.000000   2767474   2767659   2767871   2768116   2768407  
  5710.000000   2768740   2769117   2769529   2769981   2770478  
  5700.000000   2771034   2771654   2772336   2773067   2773829  
  5690.000000   2774603   2775378   2776153   2776926   2777696  
  5680.000000   2778443   2779148   2779773   2780297   2780701  
  5670.000000   2780990   2781164   2781230   2781173   2780975  
  5660.000000   2780605   2780053   2779323   2778454   2777499  
  5650.000000   2776522   2775563   2774648   2773771   2772922  
  5640.000000   2772084   2771258   2770449   2769674   2768933  
  5630.000000   2768221   2767512   2766783   2766015   2765205  
  5620.000000   2764366   2763518   2762681   2761862   2761056  
  5610.000000   2760254   2759448   2758642   2757847   2757082  
  5600.000000   2756361   2755685   2755045   2754422   2753793  
  5590.000000   2753144   2752461   2751736   2750956   2750110  
  5580.000000   2749185   2748180   2747102   2745973   2744819  
  5570.000000   2743668   2742526   2741392   2740246   2739074  
  5560.000000   2737862   2736621   2735363   2734111   2732874  
  5550.000000   2731655   2730439   2729213   2727969   2726712  
  5540.000000   2725457   2724223   2723022   2721852   2720699  
  5530.000000   2719548   2718388   2717220   2716057   2714914  
  5520.000000   2713804   2712729   2711678   2710635   2709581  
  5510.000000   2708508   2707406   2706274   2705107   2703904  
  5500.000000   2702661   2701386   2700092   2698806   2697547  
  5490.000000   2696327   2695132   2693936   2692697   2691385  
  5480.000000   2689980   2688492   2686942   2685359   2683761  
  5470.000000   2682154   2680524   2678856   2677134   2675356  
  5460.000000   2673518   2671625   2669670   2667644   2665536  
  5450.000000   2663353   2661115   2658868   2656660   2654533  
  5440.000000   2652503   2650559   2648673   2646811   2644960  
  5430.000000   2643116   2641300   2639520   2637787   2636084  
  5420.000000   2634407   2632747   2631138   2629620   2628263  
  5410.000000   2627105   2626171   2625428   2624841   2624351  
  5400.000000   2623943   2623607   2623381   2623284   2623348  
  5390.000000   2623551   2623885   2624308   2624826   2625440  
  5380.000000   2626205   2627148   2628311   2629672   2631220  
  5370.000000   2632889   2634668   2636520   2638489   2640581  
  5360.000000   2642866   2645346   2648076   2651043   2654306  
  5350.000000   2657863   2661798   2666117   2670896   2676105  
  5340.000000   2681788   2687882   2694425   2701361   2708747  
  5330.000000   2716531   2724772   2733409   2742502   2752005  
  5320.000000   2762021   2772544   2783715   2795533   2808121  
  5310.000000   2821427   2835522   2850309   2865844   2882045  
  5300.000000   2899006   2916693   2935244   2954661   2975087  
  5290.000000   2996499   3018972   3042389   3066701   3091709  
  5280.000000   3117334   3143434   3170049   3197191   3225009  
  5270.000000   3253546   3282841   3312758   3343099   3373590  
  5260.000000   3404008   3434230   3464248   3494159   3524044  
  5250.000000   3553958   3583782   3613357   3642378   3670667  
  5240.000000   3698023   3724495   3750097   3775034   3799358  
  5230.000000   3823204   3846472   3869138   3890980   3911942  
  5220.000000   3931860   3950809   3968773   3985960   4002422  
  5210.000000   4018351   4033713   4048558   4062704   4076110  
  5200.000000   4088587   4100177   4110822   4120692   4129805  
  5190.000000   4138322   4146202   4153509   4160125   4166086  
  5180.000000   4171302   4175862   4179737   4183034   4185712  
  5170.000000   4187836   4189333   4190263   4190582   4190392  
  5160.000000   4189692   4188586   4187049   4185134   4182776  
  5150.000000   4180008   4176785   4173177   4169184   4164893  
  5140.000000   4160304   4155476   4150389   4145087   4139559  
  5130.000000   4133866   4128018   4122073   4116031   4109920  
  5120.000000   4103718   4097436   4091058   4084605   4078075  
  5110.000000   4071490   4064845   4058154   4051413   4044646  
  5100.000000   4037867   4031116   4024408   4017763   4011158  
  5090.000000   4004568   3997939   3991237   3984427   3977512  
  5080.000000   3970494   3963400   3956239   3949030   3941766  
  5070.000000   3934454   3927080   3919653   3912160   3904607  
  5060.000000   3896975   3889263   3881454   3873558   3865582  
  5050.000000   3857561   3849520   3841490   3833482   3825497  
  5040.000000   3817515   3809521   3801499   3793450   3785387  
  5030.000000   3777335   3769325   3761377   3753512   3745732  
  5020.000000   3738040   3730429   3722904   3715460   3708115  
  5010.000000   3700868   3693745   3686746   3679899   3673197  
  5000.000000   3666666   3660291   3654094   3648056   3642204  
  4990.000000   3636529   3631079   3625859   3620930   3616297  
  4980.000000   3612012   3608059   3604470   3601207   3598296  
  4970.000000   3595700   3593454   3591528   3589961   3588720  
  4960.000000   3587841   3587282   3587080   3587200   3587689  
  4950.000000   3588517   3589731   3591296   3593245   3595530  
  4940.000000   3598179   3601144   3604461   3608093   3612075  
  4930.000000   3616369   3621002   3625929   3631172   3636689  
  4920.000000   3642510   3648605   3655009   3661692   3668680  
  4910.000000   3675938   3683485   3691285   3699350   3707647  
  4900.000000   3716175   3724890   3733775   3742782   3751892  
  4890.000000   3761070   3770307   3779584   3788894   3798215  
  4880.000000   3807527   3816804   3826017   3835146   3844162  
  4870.000000   3853051   3861780   3870332   3878667   3886778  
  4860.000000   3894642   3902278   3909691   3916921   3923972  
  4850.000000   3930876   3937616   3944206   3950618   3956871  
  4840.000000   3962950   3968886   3974673   3980340   3985870  
  4830.000000   3991275   3996531   4001642   4006585   4011369  
  4820.000000   4015971   4020403   4024644   4028710   4032592  
  4810.000000   4036318   4039893   4043352   4046698   4049956  
  4800.000000   4053115   4056183   4059145   4062014   4064785  
  4790.000000   4067482   4070107   4072682   4075202   4077676  
  4780.000000   4080088   4082443   4084723   4086935   4089064  
  4770.000000   4091117   4093080   4094959   4096735   4098410  
  4760.000000   4099963   4101393   4102672   4103801   4104756  
  4750.000000   4105546   4106159   4106619   4106923   4107094  
  4740.000000   4107122   4107017   4106755   4106340   4105751  
  4730.000000   4105001   4104087   4103036   4101854   4100567  
  4720.000000   4099175   4097695   4096122   4094474   4092749  
  4710.000000   4090969   4089139   4087281   4085394   4083489  
  4700.000000   4081559   4079608   4077624   4075611   4073561  
  4690.000000   4071481   4069367   4067231   4065075   4062911  
  4680.000000   4060747   4058587   4056434   4054278   4052111  
  4670.000000   4049914   4047680   4045398   4043078   4040730  
  4660.000000   4038388   4036076   4033839   4031707   4029724  
  4650.000000   4027914   4026310   4024923   4023765   4022823  
  4640.000000   4022085   4021516   4021090   4020772   4020541  
  4630.000000   4020373   4020259   4020177   4020118   4020055  
  4620.000000   4019972   4019838   4019641   4019360   4018991  
  4610.000000   4018528   4017978   4017347   4016656   4015930  
  4600.000000   4015207   4014530   4013935   4013456   4013098  
  4590.000000   4012855   4012695   4012582   4012473   4012343  
  4580.000000   4012170   4011952   4011688   4011383   4011032  
  4570.000000   4010624   4010138   4009552   4008842   4007994  
  4560.000000   4006999   4005865   4004601   4003237   4001794  
  4550.000000   4000308   3998797   3997282   3995765   3994242  
  4540.000000   3992701   3991132   3989531   3987904   3986272  
  4530.000000   3984655   3983087   3981577   3980151   3978800  
  4520.000000   3977543   3976364   3975297   3974337   3973541  
  4510.000000   3972913   3972533   3972412   3972641   3973240  
  4500.000000   3974310   3975869   3978020   3980766   3984194  
  4490.000000   3988287   3993113   3998633   4004894   4011831  
  4480.000000   4019459   4027682   4036490   4045773   4055518  
  4470.000000   4065634   4076128   4086942   4098098   4109552  
  4460.000000   4121321   4133351   4145630   4158084   4170675  
  4450.000000   4183324   4195985   4208602   4221151   4233617  
  4440.000000   4246006   4258336   4270617   4282875   4295095  
  4430.000000   4307286   4319404   4331450   4343360   4355140  
  4420.000000   4366713   4378083   4389152   4399907   4410219  
  4410.000000   4420049   4429245   4437757   4445441   4452271  
  4400.000000   4458149   4463107   4467117   4470273   4472607  
  4390.000000   4474247   4475256   4475769   4475858   4475649  
  4380.000000   4475214   4474665   4474070   4473528   4473113  
  4370.000000   4472913   4473010   4473481   4474404   4475828  
  4360.000000   4477798   4480317   4483380   4486937   4490936  
  4350.000000   4495305   4499978   4504912   4510074   4515469  
  4340.000000   4521097   4526958   4532993   4539081   4545004  
  4330.000000   4550470   4555139   4558696   4560903   4561687  
  4320.000000   4561138   4559541   4557275   4554793   4552471  
  4310.000000   4550618   4549364   4548749   4548669   4549012  
  4300.000000   4549613   4550364   4551154   4551926   4552625  
  4290.000000   4553219   4553691   4554037   4554279   4554450  
  4280.000000   4554595   4554766   4554994   4555320   4555750  
  4270.000000   4556308   4556974   4557738   4558522   4559230  
  4260.000000   4559699   4559760   4559230   4557989   4555982  
  4250.000000   4553271   4549992   4546365   4542617   4538970  
  4240.000000   4535570   4532513   4529797   4527387   4525193  
  4230.000000   4523132   4521111   4519064   4516936   4514689  
  4220.000000   4512312   4509800   4507189   4504511   4501842  
  4210.000000   4499238   4496787   4494536   4492547   4490831  
  4200.000000   4489407   4488246   4487337   4486624   4486089  
  4190.000000   4485676   4485390   4485194   4485131   4485195  
  4180.000000   4485457   4485926   4486682   4487730   4489146  
  4170.000000   4490933   4493170   4495860   4499079   4502815  
  4160.000000   4507121   4511950   4517324   4523165   4529489  
  4150.000000   4536218   4543383   4550927   4558901   4567266  
  4140.000000   4576089   4585347   4595116   4605377   4616197  
  4130.000000   4627542   4639450   4651863   4664790   4678163  
  4120.000000   4691988   4706202   4720817   4735781   4751103  
  4110.000000   4766730   4782668   4798866   4815328   4832009  
  4100.000000   4848908   4865987   4883249   4900672   4918274  
  4090.000000   4936061   4954057   4972279   4990730   5009408  
  4080.000000   5028282   5047327   5066487   5085731   5104984  
  4070.000000   5124206   5143305   5162240   5180920   5199333  
  4060.000000   5217416   5235193   5252605   5269679   5286323  
  4050.000000   5302555   5318270   5333513   5348199   5362398  
  4040.000000   5376010   5389074   5401431   5413077   5423833  
  4030.000000   5433717   5442588   5450503   5457359   5463206  
  4020.000000   5467908   5471527   5474014   5475477   5475873  
  4010.000000   5475400   5474169   5472258   5469449   5465858  
  4000.000000   5461872  
##END= 
