##TITLE= Sample 022 By ssteindl date Donnerstag, November 22 2018
##JCAMP-DX= 4.24
##DATA TYPE= INFRARED SPECTRUM
##ORIGIN= Exported PE Spectrum Data File
##OWNER= Sandra Steindl
##DATE= 18/11/22
##TIME= 10:48:26.00
##SPECTROMETER/DATA SYSTEM= PERKIN-ELMER Frontier FT-IR/NIR IR
##INSTRUMENT PARAMETERS=
  APODIZATION=stark
  DETECTOR=INGAAS
##RESOLUTION= 16.000000
##DELTAX= -2.000000
##XUNITS= 1/CM
##YUNITS= A
##XFACTOR= 1.00
##YFACTOR= 0.00000011920928955078
##FIRSTX= 10000.00
##LASTX= 4000.00
##NPOINTS= 3001
##FIRSTY= 0.224756
##MAXY= 0.644964
##MINY= 0.188991
##XYDATA= (X++(Y..Y))
 10000.000000   1885388   1884539   1883909   1884009   1885266  
  9990.000000   1887807   1891425   1895583   1899568   1902486  
  9980.000000   1903472   1901799   1897203   1889996   1881130  
  9970.000000   1872032   1864278   1859254   1857747   1859831  
  9960.000000   1864822   1871556   1878640   1884845   1889264  
  9950.000000   1891484   1891502   1889653   1886484   1882617  
  9940.000000   1878743   1875466   1873281   1872365   1872517  
  9930.000000   1873159   1873470   1872708   1870413   1866664  
  9920.000000   1862010   1857347   1853572   1851300   1850642  
  9910.000000   1851202   1852266   1853069   1853128   1852328  
  9900.000000   1850964   1849504   1848371   1847755   1847502  
  9890.000000   1847255   1846584   1845274   1843455   1841637  
  9880.000000   1840563   1840926   1843046   1846644   1850773  
  9870.000000   1854031   1854985   1852626   1846827   1838387  
  9860.000000   1828915   1820297   1814155   1811343   1811686  
  9850.000000   1814175   1817322   1819830   1820959   1820803  
  9840.000000   1820085   1819793   1820732   1823125   1826601  
  9830.000000   1830205   1832855   1833535   1831703   1827348  
  9820.000000   1821045   1813845   1807037   1801978   1799722  
  9810.000000   1800889   1805353   1812296   1820260   1827541  
  9800.000000   1832601   1834498   1833142   1829198   1823847  
  9790.000000   1818250   1813265   1809141   1805721   1802614  
  9780.000000   1799555   1796590   1794022   1792351   1791928  
  9770.000000   1792927   1795180   1798368   1802071   1805914  
  9760.000000   1809570   1812679   1814852   1815625   1814683  
  9750.000000   1811957   1807845   1803089   1798640   1795260  
  9740.000000   1793288   1792506   1792256   1791798   1790587  
  9730.000000   1788614   1786326   1784530   1783978   1785116  
  9720.000000   1787885   1791777   1796024   1799829   1802556  
  9710.000000   1803801   1803385   1801343   1797915   1793584  
  9700.000000   1789062   1785176   1782656   1781835   1782468  
  9690.000000   1783706   1784345   1783243   1779761   1774055  
  9680.000000   1767068   1760211   1754896   1752033   1751818  
  9670.000000   1753734   1756844   1760160   1762935   1764859  
  9660.000000   1766002   1766736   1767486   1768624   1770333  
  9650.000000   1772581   1775167   1777667   1779600   1780372  
  9640.000000   1779534   1776816   1772309   1766461   1759972  
  9630.000000   1753684   1748314   1744425   1742279   1741995  
  9620.000000   1743489   1746619   1751054   1756290   1761583  
  9610.000000   1766028   1768772   1769171   1767064   1762728  
  9600.000000   1756882   1750382   1744055   1738485   1734001  
  9590.000000   1730778   1728903   1728499   1729576   1731990  
  9580.000000   1735248   1738590   1741135   1742157   1741382  
  9570.000000   1739039   1735822   1732554   1729908   1728152  
  9560.000000   1727161   1726591   1726158   1725849   1725920  
  9550.000000   1726734   1728427   1730738   1732934   1734104  
  9540.000000   1733468   1730763   1726357   1721145   1716247  
  9530.000000   1712591   1710661   1710347   1711068   1711987  
  9520.000000   1712277   1711331   1708874   1705001   1700138  
  9510.000000   1694981   1690379   1687169   1685983   1687016  
  9500.000000   1689952   1693933   1697868   1700677   1701733  
  9490.000000   1700993   1699022   1696712   1694927   1694213  
  9480.000000   1694654   1696013   1697927   1700186   1702798  
  9470.000000   1705959   1709792   1714141   1718419   1721732  
  9460.000000   1723159   1722086   1718474   1712849   1706158  
  9450.000000   1699432   1693512   1688909   1685758   1683998  
  9440.000000   1683429   1683868   1685072   1686746   1688470  
  9430.000000   1689783   1690303   1689845   1688527   1686671  
  9420.000000   1684746   1683093   1681913   1681152   1680681  
  9410.000000   1680382   1680271   1680497   1681226   1682541  
  9400.000000   1684333   1686341   1688236   1689775   1690874  
  9390.000000   1691623   1692166   1692610   1692917   1692948  
  9380.000000   1692537   1691636   1690370   1689033   1687947  
  9370.000000   1687280   1686924   1686498   1685494   1683500  
  9360.000000   1680370   1676322   1671847   1667594   1664145  
  9350.000000   1661903   1661000   1661363   1662751   1664860  
  9340.000000   1667311   1669682   1671501   1672338   1671932  
  9330.000000   1670284   1667740   1664830   1662164   1660133  
  9320.000000   1658849   1658011   1657091   1655512   1652947  
  9310.000000   1649504   1645697   1642317   1640112   1639614  
  9300.000000   1640948   1643870   1647830   1652150   1656190  
  9290.000000   1659449   1661618   1662543   1662222   1660762  
  9280.000000   1658432   1655579   1652648   1650001   1647901  
  9270.000000   1646392   1645320   1644395   1643282   1641818  
  9260.000000   1640068   1638392   1637281   1637228   1638519  
  9250.000000   1641123   1644638   1648373   1651544   1653507  
  9240.000000   1653976   1653062   1651217   1649063   1647189  
  9230.000000   1645960   1645418   1645311   1645253   1644891  
  9220.000000   1644012   1642609   1640782   1638732   1636606  
  9210.000000   1634533   1632579   1630835   1629453   1628596  
  9200.000000   1628385   1628743   1629388   1629843   1629604  
  9190.000000   1628282   1625789   1622404   1618751   1615571  
  9180.000000   1613505   1612885   1613702   1615628   1618152  
  9170.000000   1620745   1622999   1624695   1625779   1626312  
  9160.000000   1626416   1626254   1626020   1625900   1626033  
  9150.000000   1626455   1627085   1627709   1628038   1627817  
  9140.000000   1626917   1625401   1623456   1621349   1619290  
  9130.000000   1617414   1615751   1614296   1613061   1612148  
  9120.000000   1611685   1611772   1612338   1613143   1613816  
  9110.000000   1613989   1613469   1612278   1610708   1609115  
  9100.000000   1607812   1606845   1606021   1604980   1603429  
  9090.000000   1601322   1598965   1596950   1595949   1596479  
  9080.000000   1598659   1602192   1606425   1610595   1614027  
  9070.000000   1616324   1617418   1617509   1616956   1616105  
  9060.000000   1615225   1614407   1613638   1612784   1611707  
  9050.000000   1610251   1608324   1605951   1603304   1600727  
  9040.000000   1598611   1597376   1597295   1598455   1600678  
  9030.000000   1603608   1606810   1609875   1612503   1614512  
  9020.000000   1615832   1616420   1616235   1615243   1613500  
  9010.000000   1611198   1608676   1606370   1604681   1603859  
  9000.000000   1603872   1604448   1605127   1605455   1605093  
  8990.000000   1603944   1602149   1599994   1597795   1595789  
  8980.000000   1594111   1592784   1591786   1591084   1590688  
  8970.000000   1590611   1590855   1591363   1592036   1592739  
  8960.000000   1593348   1593776   1594014   1594091   1594087  
  8950.000000   1594077   1594164   1594432   1594958   1595785  
  8940.000000   1596907   1598257   1599671   1600967   1601962  
  8930.000000   1602572   1602810   1602814   1602789   1602902  
  8920.000000   1603219   1603619   1603864   1603610   1602550  
  8910.000000   1600520   1597594   1594104   1590553   1587563  
  8900.000000   1585697   1585374   1586714   1589557   1593476  
  8890.000000   1597873   1602075   1605472   1607649   1608424  
  8880.000000   1607880   1606269   1603993   1601458   1599065  
  8870.000000   1597091   1595715   1594982   1594833   1595142  
  8860.000000   1595723   1596413   1597081   1597702   1598332  
  8850.000000   1599091   1600106   1601428   1603018   1604705  
  8840.000000   1606273   1607506   1608294   1608659   1608765  
  8830.000000   1608842   1609100   1609658   1610514   1611558  
  8820.000000   1612634   1613586   1614312   1614766   1614949  
  8810.000000   1614892   1614647   1614313   1614027   1613982  
  8800.000000   1614367   1615331   1616909   1618989   1621331  
  8790.000000   1623617   1625567   1626988   1627830   1628140  
  8780.000000   1628036   1627621   1626986   1626202   1625386  
  8770.000000   1624719   1624451   1624822   1625978   1627886  
  8760.000000   1630313   1632879   1635178   1636915   1638011  
  8750.000000   1638612   1639022   1639587   1640572   1642092  
  8740.000000   1644096   1646434   1648915   1651376   1653690  
  8730.000000   1655747   1657422   1658575   1659064   1658813  
  8720.000000   1657842   1656315   1654516   1652791   1651465  
  8710.000000   1650761   1650767   1651418   1652535   1653869  
  8700.000000   1655149   1656146   1656708   1656813   1656577  
  8690.000000   1656260   1656215   1656802   1658299   1660773  
  8680.000000   1664064   1667766   1671362   1674317   1676252  
  8670.000000   1676995   1676655   1675539   1674101   1672795  
  8660.000000   1671995   1671929   1672663   1674138   1676187  
  8650.000000   1678604   1681178   1683750   1686220   1688555  
  8640.000000   1690745   1692774   1694591   1696098   1697198  
  8630.000000   1697832   1698076   1698123   1698285   1698870  
  8620.000000   1700086   1701928   1704155   1706359   1708108  
  8610.000000   1709119   1709372   1709150   1708939   1709269  
  8600.000000   1710509   1712775   1715878   1719437   1722982  
  8590.000000   1726132   1728671   1730565   1731906   1732829  
  8580.000000   1733472   1733904   1734165   1734244   1734146  
  8570.000000   1733863   1733398   1732775   1732055   1731389  
  8560.000000   1730981   1731137   1732140   1734202   1737309  
  8550.000000   1741229   1745517   1749633   1753083   1755534  
  8540.000000   1756927   1757405   1757253   1756745   1756102  
  8530.000000   1755423   1754748   1754111   1753617   1753447  
  8520.000000   1753785   1754782   1756436   1758627   1761082  
  8510.000000   1763513   1765677   1767460   1768879   1770031  
  8500.000000   1771051   1772010   1772933   1773751   1774390  
  8490.000000   1774768   1774865   1774695   1774331   1773884  
  8480.000000   1773508   1773391   1773724   1774687   1776382  
  8470.000000   1778804   1781789   1785063   1788289   1791183  
  8460.000000   1793592   1795524   1797139   1798643   1800209  
  8450.000000   1801862   1803481   1804835   1805699   1805960  
  8440.000000   1805678   1805111   1804610   1804547   1805153  
  8430.000000   1806492   1808412   1810643   1812839   1814712  
  8420.000000   1816060   1816820   1817039   1816845   1816409  
  8410.000000   1815897   1815452   1815156   1815029   1815021  
  8400.000000   1815028   1814945   1814692   1814289   1813838  
  8390.000000   1813540   1813603   1814184   1815305   1816824  
  8380.000000   1818458   1819860   1820729   1820900   1820398  
  8370.000000   1819433   1818329   1817419   1816939   1816970  
  8360.000000   1817433   1818124   1818794   1819219   1819273  
  8350.000000   1818942   1818310   1817527   1816757   1816161  
  8340.000000   1815848   1815879   1816249   1816903   1817750  
  8330.000000   1818678   1819572   1820321   1820840   1821074  
  8320.000000   1820997   1820613   1819954   1819085   1818111  
  8310.000000   1817169   1816408   1815962   1815909   1816253  
  8300.000000   1816892   1817653   1818319   1818701   1818692  
  8290.000000   1818290   1817599   1816767   1815947   1815231  
  8280.000000   1814633   1814106   1813584   1813043   1812516  
  8270.000000   1812109   1811942   1812121   1812652   1813454  
  8260.000000   1814344   1815108   1815553   1815558   1815096  
  8250.000000   1814226   1813062   1811735   1810362   1809030  
  8240.000000   1807794   1806686   1805711   1804859   1804090  
  8230.000000   1803354   1802587   1801753   1800845   1799906  
  8220.000000   1799003   1798217   1797599   1797155   1796839  
  8210.000000   1796579   1796304   1795982   1795622   1795267  
  8200.000000   1794950   1794672   1794368   1793930   1793232  
  8190.000000   1792178   1790747   1788985   1787006   1784939  
  8180.000000   1782889   1780921   1779048   1777277   1775614  
  8170.000000   1774121   1772885   1772011   1771557   1771504  
  8160.000000   1771728   1772023   1772147   1771884   1771109  
  8150.000000   1769810   1768099   1766164   1764226   1762467  
  8140.000000   1760992   1759811   1758849   1757986   1757088  
  8130.000000   1756064   1754868   1753525   1752095   1750661  
  8120.000000   1749294   1748025   1746850   1745713   1744554  
  8110.000000   1743299   1741912   1740378   1738729   1737023  
  8100.000000   1735342   1733784   1732444   1731419   1730777  
  8090.000000   1730562   1730765   1731330   1732140   1733038  
  8080.000000   1733852   1734413   1734597   1734325   1733583  
  8070.000000   1732398   1730846   1729017   1727022   1724972  
  8060.000000   1722977   1721139   1719529   1718191   1717114  
  8050.000000   1716257   1715545   1714912   1714305   1713717  
  8040.000000   1713168   1712702   1712357   1712144   1712038  
  8030.000000   1711977   1711888   1711697   1711361   1710870  
  8020.000000   1710242   1709508   1708696   1707821   1706879  
  8010.000000   1705855   1704738   1703521   1702219   1700859  
  8000.000000   1699472   1698096   1696758   1695492   1694324  
  7990.000000   1693295   1692445   1691817   1691437   1691298  
  7980.000000   1691350   1691492   1691594   1691513   1691148  
  7970.000000   1690446   1689449   1688259   1687039   1685945  
  7960.000000   1685102   1684563   1684307   1684258   1684316  
  7950.000000   1684397   1684455   1684497   1684554   1684670  
  7940.000000   1684862   1685113   1685371   1685569   1685646  
  7930.000000   1685570   1685349   1685023   1684649   1684282  
  7920.000000   1683952   1683656   1683359   1683003   1682531  
  7910.000000   1681900   1681107   1680189   1679221   1678295  
  7900.000000   1677496   1676873   1676430   1676123   1675888  
  7890.000000   1675664   1675428   1675207   1675073   1675115  
  7880.000000   1675401   1675946   1676700   1677559   1678400  
  7870.000000   1679115   1679643   1679974   1680141   1680189  
  7860.000000   1680149   1680033   1679827   1679523   1679121  
  7850.000000   1678657   1678179   1677746   1677395   1677140  
  7840.000000   1676960   1676817   1676659   1676444   1676127  
  7830.000000   1675672   1675046   1674232   1673237   1672114  
  7820.000000   1670955   1669887   1669032   1668475   1668223  
  7810.000000   1668212   1668308   1668368   1668273   1667967  
  7800.000000   1667465   1666824   1666119   1665390   1664647  
  7790.000000   1663852   1662969   1661975   1660895   1659793  
  7780.000000   1658760   1657888   1657236   1656829   1656643  
  7770.000000   1656632   1656729   1656870   1657001   1657074  
  7760.000000   1657058   1656928   1656673   1656286   1655770  
  7750.000000   1655131   1654382   1653550   1652677   1651826  
  7740.000000   1651076   1650503   1650153   1650019   1650022  
  7730.000000   1650036   1649906   1649518   1648827   1647892  
  7720.000000   1646855   1645897   1645175   1644768   1644652  
  7710.000000   1644708   1644772   1644690   1644361   1643764  
  7700.000000   1642951   1642015   1641057   1640154   1639348  
  7690.000000   1638649   1638043   1637511   1637038   1636616  
  7680.000000   1636243   1635924   1635666   1635472   1635340  
  7670.000000   1635255   1635185   1635082   1634893   1634568  
  7660.000000   1634088   1633460   1632736   1631990   1631311  
  7650.000000   1630769   1630414   1630256   1630277   1630434  
  7640.000000   1630675   1630943   1631193   1631396   1631549  
  7630.000000   1631679   1631838   1632087   1632481   1633035  
  7620.000000   1633717   1634444   1635106   1635594   1635841  
  7610.000000   1635840   1635647   1635363   1635093   1634913  
  7600.000000   1634852   1634889   1634975   1635058   1635106  
  7590.000000   1635106   1635074   1635035   1635015   1635036  
  7580.000000   1635120   1635287   1635568   1635990   1636577  
  7570.000000   1637327   1638223   1639213   1640245   1641255  
  7560.000000   1642203   1643057   1643812   1644474   1645070  
  7550.000000   1645644   1646259   1646983   1647881   1648987  
  7540.000000   1650298   1651757   1653275   1654741   1656061  
  7530.000000   1657181   1658103   1658875   1659583   1660309  
  7520.000000   1661131   1662092   1663215   1664490   1665894  
  7510.000000   1667381   1668900   1670393   1671818   1673152  
  7500.000000   1674416   1675660   1676959   1678375   1679940  
  7490.000000   1681633   1683400   1685168   1686889   1688551  
  7480.000000   1690198   1691895   1693702   1695633   1697650  
  7470.000000   1699671   1701610   1703411   1705086   1706698  
  7460.000000   1708354   1710139   1712099   1714211   1716406  
  7450.000000   1718593   1720715   1722758   1724769   1726818  
  7440.000000   1728987   1731316   1733801   1736393   1739022  
  7430.000000   1741619   1744144   1746589   1748985   1751376  
  7420.000000   1753812   1756326   1758926   1761591   1764278  
  7410.000000   1766933   1769504   1771961   1774302   1776554  
  7400.000000   1778763   1780979   1783236   1785532   1787835  
  7390.000000   1790086   1792226   1794210   1796030   1797716  
  7380.000000   1799331   1800961   1802688   1804579   1806671  
  7370.000000   1808973   1811462   1814089   1816785   1819474  
  7360.000000   1822093   1824599   1826984   1829272   1831509  
  7350.000000   1833735   1835971   1838207   1840404   1842524  
  7340.000000   1844552   1846518   1848490   1850556   1852776  
  7330.000000   1855161   1857646   1860120   1862442   1864509  
  7320.000000   1866289   1867832   1869254   1870697   1872275  
  7310.000000   1874045   1875974   1877972   1879913   1881694  
  7300.000000   1883259   1884628   1885870   1887092   1888384  
  7290.000000   1889810   1891369   1893020   1894678   1896261  
  7280.000000   1897703   1898976   1900084   1901062   1901952  
  7270.000000   1902796   1903617   1904424   1905220   1906009  
  7260.000000   1906807   1907627   1908490   1909399   1910350  
  7250.000000   1911326   1912324   1913350   1914447   1915666  
  7240.000000   1917069   1918682   1920504   1922479   1924552  
  7230.000000   1926655   1928781   1930934   1933176   1935537  
  7220.000000   1938046   1940667   1943362   1946068   1948781  
  7210.000000   1951528   1954409   1957526   1960975   1964773  
  7200.000000   1968875   1973158   1977491   1981745   1985864  
  7190.000000   1989833   1993705   1997536   2001397   2005318  
  7180.000000   2009325   2013411   2017583   2021830   2026165  
  7170.000000   2030573   2035056   2039593   2044192   2048854  
  7160.000000   2053620   2058521   2063601   2068870   2074335  
  7150.000000   2079968   2085756   2091669   2097706   2103842  
  7140.000000   2110066   2116324   2122572   2128748   2134847  
  7130.000000   2140886   2146961   2153161   2159600   2166314  
  7120.000000   2173299   2180469   2187729   2194985   2202210  
  7110.000000   2209425   2216710   2224134   2231755   2239559  
  7100.000000   2247503   2255495   2263472   2271372   2279191  
  7090.000000   2286934   2294633   2302308   2309989   2317696  
  7080.000000   2325467   2333341   2341361   2349547   2357893  
  7070.000000   2366354   2374865   2383351   2391759   2400054  
  7060.000000   2408234   2416308   2424293   2432204   2440062  
  7050.000000   2447895   2455738   2463639   2471628   2479722  
  7040.000000   2487897   2496109   2504292   2512395   2520373  
  7030.000000   2528205   2535873   2543362   2550646   2557713  
  7020.000000   2564562   2571250   2577858   2584506   2591285  
  7010.000000   2598253   2605375   2612571   2619704   2626667  
  7000.000000   2633379   2639839   2646074   2652148   2658087  
  6990.000000   2663906   2669574   2675078   2680405   2685593  
  6980.000000   2690683   2695733   2700755   2705741   2710629  
  6970.000000   2715375   2719926   2724293   2728492   2732586  
  6960.000000   2736609   2740598   2744547   2748452   2752280  
  6950.000000   2756015   2759614   2763045   2766254   2769210  
  6940.000000   2771897   2774362   2776687   2778998   2781399  
  6930.000000   2783962   2786672   2789459   2792200   2794796  
  6920.000000   2797180   2799361   2801388   2803340   2805269  
  6910.000000   2807201   2809123   2811020   2812882   2814733  
  6900.000000   2816605   2818536   2820526   2822552   2824556  
  6890.000000   2826490   2828323   2830060   2831725   2833340  
  6880.000000   2834903   2836380   2837720   2838885   2839873  
  6870.000000   2840734   2841556   2842436   2843443   2844600  
  6860.000000   2845883   2847245   2848629   2850005   2851359  
  6850.000000   2852693   2854006   2855287   2856519   2857694  
  6840.000000   2858817   2859916   2861018   2862134   2863241  
  6830.000000   2864288   2865208   2865960   2866542   2867008  
  6820.000000   2867441   2867931   2868524   2869219   2869964  
  6810.000000   2870692   2871341   2871890   2872346   2872745  
  6800.000000   2873111   2873465   2873803   2874126   2874436  
  6790.000000   2874758   2875108   2875490   2875863   2876158  
  6780.000000   2876280   2876162   2875782   2875193   2874492  
  6770.000000   2873800   2873206   2872751   2872406   2872112  
  6760.000000   2871795   2871409   2870935   2870387   2869782  
  6750.000000   2869137   2868455   2867741   2867008   2866284  
  6740.000000   2865605   2864996   2864452   2863935   2863378  
  6730.000000   2862723   2861932   2861025   2860058   2859114  
  6720.000000   2858263   2857540   2856932   2856394   2855861  
  6710.000000   2855276   2854595   2853794   2852856   2851776  
  6700.000000   2850559   2849237   2847867   2846534   2845323  
  6690.000000   2844296   2843462   2842773   2842128   2841418  
  6680.000000   2840551   2839495   2838266   2836926   2835543  
  6670.000000   2834168   2832813   2831468   2830104   2828703  
  6660.000000   2827262   2825797   2824323   2822854   2821386  
  6650.000000   2819908   2818402   2816865   2815290   2813681  
  6640.000000   2812032   2810339   2808593   2806803   2804989  
  6630.000000   2803193   2801450   2799787   2798187   2796605  
  6620.000000   2794972   2793229   2791349   2789355   2787306  
  6610.000000   2785280   2783334   2781488   2779716   2777963  
  6600.000000   2776172   2774306   2772358   2770349   2768303  
  6590.000000   2766243   2764179   2762118   2760075   2758082  
  6580.000000   2756184   2754423   2752815   2751339   2749932  
  6570.000000   2748510   2746998   2745353   2743583   2741739  
  6560.000000   2739894   2738114   2736438   2734861   2733352  
  6550.000000   2731857   2730330   2728740   2727079   2725362  
  6540.000000   2723617   2721883   2720200   2718606   2717129  
  6530.000000   2715777   2714541   2713388   2712274   2711151  
  6520.000000   2709986   2708769   2707513   2706254   2705034  
  6510.000000   2703891   2702849   2701910   2701059   2700262  
  6500.000000   2699478   2698661   2697772   2696784   2695690  
  6490.000000   2694503   2693257   2691995   2690758   2689569  
  6480.000000   2688433   2687333   2686244   2685145   2684033  
  6470.000000   2682920   2681837   2680813   2679873   2679023  
  6460.000000   2678257   2677550   2676877   2676202   2675497  
  6450.000000   2674732   2673887   2672955   2671956   2670932  
  6440.000000   2669946   2669068   2668348   2667805   2667409  
  6430.000000   2667096   2666782   2666390   2665876   2665231  
  6420.000000   2664483   2663671   2662835   2661996   2661164  
  6410.000000   2660338   2659526   2658745   2658022   2657382  
  6400.000000   2656835   2656376   2655979   2655612   2655244  
  6390.000000   2654859   2654451   2654026   2653592   2653153  
  6380.000000   2652714   2652278   2651850   2651436   2651041  
  6370.000000   2650659   2650273   2649857   2649386   2648846  
  6360.000000   2648243   2647603   2646959   2646343   2645768  
  6350.000000   2645231   2644711   2644190   2643658   2643122  
  6340.000000   2642597   2642110   2641670   2641280   2640922  
  6330.000000   2640575   2640214   2639820   2639375   2638867  
  6320.000000   2638277   2637592   2636795   2635887   2634871  
  6310.000000   2633774   2632621   2631440   2630242   2629034  
  6300.000000   2627804   2626550   2625258   2623930   2622556  
  6290.000000   2621133   2619643   2618082   2616439   2614733  
  6280.000000   2612986   2611239   2609517   2607838   2606186  
  6270.000000   2604532   2602832   2601056   2599183   2597220  
  6260.000000   2595180   2593082   2590934   2588736   2586486  
  6250.000000   2584190   2581866   2579547   2577265   2575047  
  6240.000000   2572896   2570805   2568746   2566706   2564674  
  6230.000000   2562656   2560660   2558690   2556735   2554770  
  6220.000000   2552763   2550687   2548531   2546298   2544005  
  6210.000000   2541671   2539312   2536936   2534552   2532176  
  6200.000000   2529834   2527559   2525380   2523315   2521359  
  6190.000000   2519491   2517677   2515890   2514110   2512331  
  6180.000000   2510550   2508760   2506948   2505092   2503179  
  6170.000000   2501206   2499193   2497169   2495169   2493213  
  6160.000000   2491301   2489419   2487545   2485667   2483789  
  6150.000000   2481930   2480113   2478349   2476634   2474940  
  6140.000000   2473242   2471519   2469779   2468042   2466342  
  6130.000000   2464700   2463122   2461586   2460070   2458552  
  6120.000000   2457037   2455546   2454116   2452770   2451517  
  6110.000000   2450335   2449194   2448059   2446919   2445782  
  6100.000000   2444678   2443634   2442668   2441773   2440932  
  6090.000000   2440122   2439338   2438588   2437905   2437311  
  6080.000000   2436825   2436432   2436107   2435805   2435499  
  6070.000000   2435170   2434826   2434478   2434148   2433841  
  6060.000000   2433563   2433309   2433093   2432925   2432838  
  6050.000000   2432848   2432972   2433195   2433499   2433848  
  6040.000000   2434224   2434616   2435042   2435525   2436099  
  6030.000000   2436782   2437587   2438501   2439512   2440593  
  6020.000000   2441724   2442875   2444029   2445157   2446248  
  6010.000000   2447291   2448294   2449268   2450235   2451207  
  6000.000000   2452198   2453203   2454223   2455254   2456308  
  5990.000000   2457394   2458534   2459738   2461015   2462355  
  5980.000000   2463755   2465210   2466734   2468340   2470054  
  5970.000000   2471880   2473819   2475839   2477914   2480009  
  5960.000000   2482121   2484251   2486432   2488684   2491030  
  5950.000000   2493461   2495962   2498500   2501056   2503615  
  5940.000000   2506182   2508768   2511386   2514040   2516726  
  5930.000000   2519432   2522148   2524869   2527593   2530318  
  5920.000000   2533038   2535735   2538388   2540971   2543472  
  5910.000000   2545885   2548222   2550500   2552738   2554952  
  5900.000000   2557156   2559368   2561609   2563909   2566296  
  5890.000000   2568797   2571416   2574141   2576935   2579756  
  5880.000000   2582553   2585281   2587905   2590397   2592744  
  5870.000000   2594936   2596987   2598922   2600790   2602649  
  5860.000000   2604560   2606567   2608693   2610928   2613248  
  5850.000000   2615619   2618014   2620422   2622846   2625293  
  5840.000000   2627774   2630285   2632824   2635384   2637971  
  5830.000000   2640591   2643257   2645973   2648729   2651500  
  5820.000000   2654249   2656949   2659584   2662163   2664700  
  5810.000000   2667216   2669705   2672153   2674513   2676757  
  5800.000000   2678852   2680821   2682685   2684504   2686294  
  5790.000000   2688075   2689794   2691402   2692802   2693930  
  5780.000000   2694713   2695126   2695145   2694789   2694071  
  5770.000000   2693048   2691775   2690343   2688832   2687332  
  5760.000000   2685896   2684564   2683337   2682211   2681175  
  5750.000000   2680237   2679412   2678725   2678192   2677810  
  5740.000000   2677562   2677406   2677308   2677230   2677162  
  5730.000000   2677090   2677029   2676976   2676945   2676934  
  5720.000000   2676959   2677028   2677166   2677388   2677711  
  5710.000000   2678132   2678645   2679232   2679882   2680580  
  5700.000000   2681324   2682107   2682923   2683756   2684585  
  5690.000000   2685395   2686178   2686943   2687702   2688476  
  5680.000000   2689264   2690057   2690816   2691498   2692051  
  5670.000000   2692439   2692630   2692618   2692397   2691984  
  5660.000000   2691391   2690656   2689815   2688924   2688024  
  5650.000000   2687159   2686339   2685563   2684804   2684046  
  5640.000000   2683269   2682480   2681687   2680911   2680158  
  5630.000000   2679423   2678690   2677942   2677172   2676388  
  5620.000000   2675611   2674866   2674170   2673522   2672907  
  5610.000000   2672302   2671686   2671051   2670406   2669767  
  5600.000000   2669149   2668563   2668003   2667460   2666918  
  5590.000000   2666368   2665799   2665202   2664560   2663854  
  5580.000000   2663064   2662180   2661205   2660166   2659096  
  5570.000000   2658032   2656993   2655977   2654965   2653930  
  5560.000000   2652848   2651714   2650538   2649343   2648149  
  5550.000000   2646970   2645805   2644651   2643504   2642365  
  5540.000000   2641247   2640164   2639124   2638125   2637153  
  5530.000000   2636192   2635227   2634254   2633281   2632318  
  5520.000000   2631377   2630461   2629564   2628675   2627785  
  5510.000000   2626885   2625971   2625040   2624087   2623106  
  5500.000000   2622092   2621052   2619995   2618946   2617920  
  5490.000000   2616922   2615927   2614897   2613774   2612521  
  5480.000000   2611114   2609567   2607916   2606212   2604495  
  5470.000000   2602790   2601092   2599390   2597658   2595883  
  5460.000000   2594053   2592167   2590216   2588197   2586105  
  5450.000000   2583952   2581763   2579583   2577463   2575439  
  5440.000000   2573523   2571697   2569923   2568160   2566388  
  5430.000000   2564602   2562826   2561080   2559387   2557742  
  5420.000000   2556148   2554595   2553112   2551727   2550499  
  5410.000000   2549453   2548609   2547927   2547371   2546880  
  5400.000000   2546438   2546037   2545722   2545523   2545489  
  5390.000000   2545618   2545911   2546334   2546889   2547572  
  5380.000000   2548427   2549475   2550761   2552264   2553980  
  5370.000000   2555845   2557847   2559935   2562138   2564444  
  5360.000000   2566912   2569538   2572386   2575454   2578825  
  5350.000000   2582516   2586626   2591165   2596204   2601700  
  5340.000000   2607680   2614066   2620893   2628103   2635761  
  5330.000000   2643819   2652335   2661244   2670595   2680327  
  5320.000000   2690537   2701221   2712535   2724502   2737276  
  5310.000000   2750830   2765251   2780441   2796442   2813155  
  5300.000000   2830649   2848877   2867964   2887908   2908851  
  5290.000000   2930767   2953724   2977599   3002342   3027754  
  5280.000000   3053763   3080238   3107231   3134764   3162991  
  5270.000000   3191960   3221710   3252109   3282961   3314000  
  5260.000000   3344995   3375815   3406428   3436905   3467291  
  5250.000000   3497619   3527753   3557538   3586679   3615017  
  5240.000000   3642369   3668795   3694311   3719129   3743293  
  5230.000000   3766947   3789993   3812417   3833999   3854689  
  5220.000000   3874317   3892958   3910592   3927428   3943523  
  5210.000000   3959078   3974062   3988531   4002300   4015324  
  5200.000000   4027405   4038577   4048775   4058160   4066744  
  5190.000000   4074689   4081952   4088608   4094552   4099835  
  5180.000000   4104381   4108291   4111532   4114211   4116275  
  5170.000000   4117786   4118668   4118982   4118690   4117895  
  5160.000000   4116594   4114886   4112744   4110220   4107261  
  5150.000000   4103915   4100159   4096076   4091674   4087030  
  5140.000000   4082124   4076992   4071589   4065944   4060038  
  5130.000000   4053930   4047630   4041199   4034632   4027961  
  5120.000000   4021166   4014273   4007279   4000225   3993119  
  5110.000000   3985988   3978812   3971586   3964277   3956884  
  5100.000000   3949410   3941891   3934358   3926853   3919386  
  5090.000000   3911962   3904560   3897167   3889764   3882352  
  5080.000000   3874929   3867504   3860066   3852611   3845117  
  5070.000000   3837578   3829981   3822334   3814638   3806908  
  5060.000000   3799139   3791336   3783491   3775610   3767694  
  5050.000000   3759760   3751814   3743862   3735895   3727898  
  5040.000000   3719856   3711759   3703613   3695438   3687265  
  5030.000000   3679126   3671049   3663053   3655150   3647346  
  5020.000000   3639651   3632071   3624619   3617296   3610110  
  5010.000000   3603044   3596102   3589265   3582548   3575945  
  5000.000000   3569491   3563189   3557081   3551161   3545465  
  4990.000000   3539980   3534739   3529729   3524984   3520484  
  4980.000000   3516260   3512285   3508593   3505165   3502053  
  4970.000000   3499252   3496824   3494754   3493081   3491757  
  4960.000000   3490794   3490129   3489784   3489722   3490000  
  4950.000000   3490609   3491612   3492987   3494771   3496911  
  4940.000000   3499423   3502247   3505407   3508859   3512632  
  4930.000000   3516683   3521036   3525641   3530522   3535643  
  4920.000000   3541042   3546704   3552675   3558935   3565512  
  4910.000000   3572368   3579511   3586900   3594544   3602413  
  4900.000000   3610520   3618838   3627364   3636065   3644920  
  4890.000000   3653890   3662950   3672063   3681201   3690330  
  4880.000000   3699419   3708441   3717368   3726185   3734868  
  4870.000000   3743406   3751766   3759927   3767844   3775499  
  4860.000000   3782864   3789956   3796782   3803394   3809814  
  4850.000000   3816093   3822234   3828263   3834157   3839929  
  4840.000000   3845552   3851045   3856392   3861620   3866716  
  4830.000000   3871703   3876565   3881313   3885917   3890377  
  4820.000000   3894661   3898765   3902666   3906379   3909899  
  4810.000000   3913258   3916464   3919547   3922508   3925363  
  4800.000000   3928104   3930746   3933289   3935757   3938156  
  4790.000000   3940510   3942816   3945084   3947297   3949464  
  4780.000000   3951576   3953656   3955710   3957767   3959822  
  4770.000000   3961884   3963920   3965915   3967824   3969628  
  4760.000000   3971290   3972803   3974138   3975292   3976241  
  4750.000000   3976989   3977518   3977852   3977989   3977964  
  4740.000000   3977783   3977473   3977026   3976453   3975732  
  4730.000000   3974867   3973837   3972652   3971304   3969816  
  4720.000000   3968193   3966464   3964637   3962741   3960783  
  4710.000000   3958783   3956749   3954698   3952636   3950584  
  4700.000000   3948546   3946535   3944550   3942588   3940636  
  4690.000000   3938683   3936719   3934742   3932756   3930773  
  4680.000000   3928802   3926850   3924917   3922987   3921050  
  4670.000000   3919085   3917088   3915052   3912991   3910914  
  4660.000000   3908849   3906812   3904840   3902962   3901225  
  4650.000000   3899663   3898321   3897218   3896367   3895749  
  4640.000000   3895338   3895088   3894959   3894909   3894917  
  4630.000000   3894958   3895026   3895105   3895190   3895261  
  4620.000000   3895308   3895312   3895264   3895147   3894952  
  4610.000000   3894667   3894290   3893829   3893301   3892740  
  4600.000000   3892185   3891676   3891236   3890879   3890593  
  4590.000000   3890361   3890154   3889956   3889749   3889529  
  4580.000000   3889285   3889010   3888677   3888267   3887752  
  4570.000000   3887122   3886371   3885516   3884568   3883551  
  4560.000000   3882467   3881321   3880098   3878795   3877399  
  4550.000000   3875918   3874354   3872719   3871017   3869253  
  4540.000000   3867429   3865549   3863628   3861681   3859740  
  4530.000000   3857821   3855956   3854150   3852432   3850804  
  4520.000000   3849312   3847966   3846825   3845896   3845230  
  4510.000000   3844807   3844670   3844792   3845235   3845998  
  4500.000000   3847185   3848814   3851001   3853754   3857166  
  4490.000000   3861215   3865976   3871412   3877588   3884458  
  4480.000000   3892069   3900354   3909328   3918904   3929081  
  4470.000000   3939766   3950961   3962579   3974619   3986996  
  4460.000000   3999697   4012638   4025795   4039091   4052499  
  4450.000000   4065954   4079430   4092879   4106285   4119627  
  4440.000000   4132901   4146113   4159260   4172354   4185372  
  4430.000000   4198323   4211159   4223891   4236462   4248890  
  4420.000000   4261106   4273121   4284833   4296222   4307147  
  4410.000000   4317555   4327282   4336269   4344365   4351545  
  4400.000000   4357713   4362905   4367100   4370401   4372856  
  4390.000000   4374608   4375738   4376397   4376667   4376683  
  4380.000000   4376515   4376276   4376036   4375896   4375938  
  4370.000000   4376259   4376949   4378085   4379740   4381946  
  4360.000000   4384728   4388059   4391905   4396197   4400864  
  4350.000000   4405832   4411040   4416455   4422063   4427882  
  4340.000000   4433916   4440166   4446558   4452955   4459120  
  4330.000000   4464751   4469501   4473065   4475222   4475925  
  4320.000000   4475294   4473641   4471369   4468945   4466747  
  4310.000000   4465082   4464059   4463697   4463865   4464430  
  4300.000000   4465212   4466103   4467006   4467885   4468711  
  4290.000000   4469475   4470174   4470804   4471379   4471915  
  4280.000000   4472439   4472987   4473585   4474274   4475064  
  4270.000000   4475989   4477035   4478193   4479377   4480479  
  4260.000000   4481313   4481689   4481405   4480331   4478414  
  4250.000000   4475727   4472430   4468767   4464980   4461302  
  4240.000000   4457873   4454779   4451998   4449487   4447147  
  4230.000000   4444904   4442677   4440417   4438081   4435642  
  4220.000000   4433087   4430407   4427624   4424756   4421862  
  4210.000000   4418982   4416188   4413525   4411054   4408807  
  4200.000000   4406830   4405133   4403739   4402626   4401788  
  4190.000000   4401167   4400746   4400460   4400317   4400282  
  4180.000000   4400406   4400684   4401195   4401945   4403022  
  4170.000000   4404439   4406299   4408623   4411513   4414974  
  4160.000000   4419075   4423769   4429078   4434914   4441283  
  4150.000000   4448100   4455392   4463093   4471249   4479808  
  4140.000000   4488829   4498274   4508219   4518645   4529635  
  4130.000000   4541163   4553283   4565937   4579136   4592801  
  4120.000000   4606934   4621475   4636448   4651820   4667622  
  4110.000000   4683815   4700408   4717338   4734591   4752099  
  4100.000000   4769844   4787777   4805895   4824173   4842618  
  4090.000000   4861218   4879970   4898857   4917857   4936949  
  4080.000000   4956100   4975301   4994528   5013790   5033054  
  4070.000000   5052324   5071535   5090669   5109633   5128411  
  4060.000000   5146913   5165139   5182996   5200485   5217494  
  4050.000000   5234027   5249975   5265382   5280167   5294405  
  4040.000000   5308006   5321020   5333308   5344887   5355604  
  4030.000000   5365497   5374444   5382508   5389581   5395706  
  4020.000000   5400734   5404717   5407606   5409502   5410353  
  4010.000000   5410348   5409593   5408137   5405724   5402462  
  4000.000000   5398772  
##END= 
