##TITLE= Sample 018 By ssteindl date Donnerstag, November 22 2018
##JCAMP-DX= 4.24
##DATA TYPE= INFRARED SPECTRUM
##ORIGIN= Exported PE Spectrum Data File
##OWNER= Sandra Steindl
##DATE= 18/11/22
##TIME= 10:43:52.00
##SPECTROMETER/DATA SYSTEM= PERKIN-ELMER Frontier FT-IR/NIR IR
##INSTRUMENT PARAMETERS=
  APODIZATION=stark
  DETECTOR=INGAAS
##RESOLUTION= 16.000000
##DELTAX= -2.000000
##XUNITS= 1/CM
##YUNITS= A
##XFACTOR= 1.00
##YFACTOR= 0.00000011920928955078
##FIRSTX= 10000.00
##LASTX= 4000.00
##NPOINTS= 3001
##FIRSTY= 0.222229
##MAXY= 0.625434
##MINY= 0.187971
##XYDATA= (X++(Y..Y))
 10000.000000   1864192   1859543   1854621   1849393   1844626  
  9990.000000   1841161   1839189   1838227   1837732   1837181  
  9980.000000   1836093   1834100   1831333   1828342   1825923  
  9970.000000   1824774   1825276   1827257   1830097   1832917  
  9960.000000   1835086   1836390   1837183   1838087   1839585  
  9950.000000   1841684   1843796   1845023   1844693   1842810  
  9940.000000   1840273   1838558   1839061   1842410   1847966  
  9930.000000   1854018   1858386   1859412   1856697   1851332  
  9920.000000   1845430   1841214   1840004   1841709   1844882  
  9910.000000   1847488   1847828   1845311   1840638   1835416  
  9900.000000   1831332   1829430   1829648   1831026   1832229  
  9890.000000   1832241   1830800   1828374   1825787   1823714  
  9880.000000   1822318   1821303   1820137   1818506   1816491  
  9870.000000   1814573   1813319   1813023   1813482   1814026  
  9860.000000   1813834   1812287   1809296   1805265   1800924  
  9850.000000   1796874   1793380   1790257   1787124   1783735  
  9840.000000   1780215   1777151   1775291   1775284   1777270  
  9830.000000   1780882   1785309   1789642   1793190   1795571  
  9820.000000   1796804   1796951   1796086   1794002   1790427  
  9810.000000   1785125   1778226   1770354   1762597   1756310  
  9800.000000   1752684   1752512   1755853   1762147   1770237  
  9790.000000   1778735   1786246   1791655   1794336   1794168  
  9780.000000   1791587   1787333   1782342   1777414   1773125  
  9770.000000   1769706   1767125   1765227   1763833   1762916  
  9760.000000   1762510   1762733   1763592   1764949   1766474  
  9750.000000   1767706   1768200   1767617   1765854   1763030  
  9740.000000   1759500   1755773   1752465   1750207   1749533  
  9730.000000   1750742   1753751   1758031   1762654   1766497  
  9720.000000   1768552   1768222   1765550   1761187   1756223  
  9710.000000   1751796   1748762   1747436   1747600   1748678  
  9700.000000   1750018   1751157   1751899   1752332   1752633  
  9690.000000   1752989   1753446   1753976   1754468   1754844  
  9680.000000   1755049   1755040   1754782   1754199   1753259  
  9670.000000   1751983   1750480   1748890   1747264   1745497  
  9660.000000   1743318   1740434   1736734   1732470   1728285  
  9650.000000   1725077   1723627   1724287   1726696   1729891  
  9640.000000   1732610   1733827   1733169   1731075   1728541  
  9630.000000   1726653   1726025   1726538   1727416   1727622  
  9620.000000   1726422   1723670   1719907   1715968   1712568  
  9610.000000   1709903   1707573   1704843   1701082   1696194  
  9600.000000   1690790   1685997   1683007   1682555   1684613  
  9590.000000   1688412   1692797   1696651   1699323   1700657  
  9580.000000   1700957   1700609   1699930   1699012   1697882  
  9570.000000   1696648   1695654   1695434   1696504   1699098  
  9560.000000   1702974   1707462   1711663   1714819   1716541  
  9550.000000   1716902   1716275   1715085   1713582   1711779  
  9540.000000   1709568   1706928   1704089   1701551   1699919  
  9530.000000   1699632   1700683   1702577   1704445   1705426  
  9520.000000   1704989   1703181   1700562   1697977   1696186  
  9510.000000   1695610   1696211   1697620   1699327   1700923  
  9500.000000   1702182   1703061   1703568   1703652   1703152  
  9490.000000   1701847   1699617   1696515   1692858   1689069  
  9480.000000   1685560   1682560   1680049   1677867   1675796  
  9470.000000   1673813   1672089   1671039   1671111   1672601  
  9460.000000   1675470   1679230   1683088   1686067   1687369  
  9450.000000   1686496   1683449   1678645   1672855   1667017  
  9440.000000   1662064   1658774   1657619   1658709   1661753  
  9430.000000   1666137   1671007   1675463   1678687   1680149  
  9420.000000   1679684   1677548   1674362   1670920   1668031  
  9410.000000   1666253   1665832   1666596   1668080   1669641  
  9400.000000   1670640   1670639   1669445   1667228   1664375  
  9390.000000   1661485   1659142   1657850   1657879   1659231  
  9380.000000   1661631   1664549   1667329   1669259   1669774  
  9370.000000   1668524   1665510   1661046   1655720   1650239  
  9360.000000   1645299   1641445   1638999   1638070   1638568  
  9350.000000   1640300   1642966   1646226   1649651   1652791  
  9340.000000   1655203   1656545   1656698   1655759   1654107  
  9330.000000   1652176   1650410   1649024   1648036   1647251  
  9320.000000   1646392   1645246   1643747   1642088   1640618  
  9310.000000   1639771   1639859   1641011   1643109   1645842  
  9300.000000   1648751   1651322   1653086   1653715   1653124  
  9290.000000   1651491   1649242   1646949   1645167   1644286  
  9280.000000   1644356   1645087   1645919   1646253   1645688  
  9270.000000   1644165   1641986   1639661   1637664   1636205  
  9260.000000   1635108   1633945   1632266   1629878   1626999  
  9250.000000   1624263   1622490   1622371   1624105   1627308  
  9240.000000   1631078   1634327   1636125   1635976   1633950  
  9230.000000   1630578   1626645   1622869   1619723   1617343  
  9220.000000   1615647   1614408   1613392   1612388   1611270  
  9210.000000   1609982   1608540   1607029   1605585   1604421  
  9200.000000   1603765   1603805   1604602   1606048   1607926  
  9190.000000   1609964   1611961   1613789   1615420   1616827  
  9180.000000   1617958   1618656   1618730   1618000   1616451  
  9170.000000   1614274   1611857   1609680   1608149   1607515  
  9160.000000   1607777   1608764   1610153   1611654   1613033  
  9150.000000   1614187   1615063   1615644   1615897   1615777  
  9140.000000   1615254   1614321   1613034   1611457   1609668  
  9130.000000   1607707   1605604   1603397   1601173   1599083  
  9120.000000   1597308   1596010   1595270   1595054   1595213  
  9110.000000   1595546   1595864   1596065   1596160   1596239  
  9100.000000   1596427   1596805   1597406   1598182   1599058  
  9090.000000   1599929   1600708   1601308   1601659   1601717  
  9080.000000   1601492   1601061   1600559   1600161   1600015  
  9070.000000   1600182   1600585   1601033   1601288   1601164  
  9060.000000   1600598   1599690   1598653   1597730   1597064  
  9050.000000   1596680   1596474   1596310   1596091   1595839  
  9040.000000   1595678   1595777   1596223   1596943   1597679  
  9030.000000   1598068   1597783   1596642   1594712   1592263  
  9020.000000   1589719   1587478   1585819   1584801   1584299  
  9010.000000   1584070   1583865   1583526   1583027   1582499  
  9000.000000   1582155   1582248   1582954   1584356   1586385  
  8990.000000   1588823   1591349   1593577   1595196   1595956  
  8980.000000   1595771   1594659   1592792   1590381   1587664  
  8970.000000   1584877   1582265   1580096   1578622   1578110  
  8960.000000   1578748   1580614   1583549   1587217   1591117  
  8950.000000   1594713   1597498   1599142   1599560   1598897  
  8940.000000   1597495   1595754   1594086   1592759   1591866  
  8930.000000   1591285   1590749   1589935   1588569   1586564  
  8920.000000   1584045   1581375   1579004   1577389   1576817  
  8910.000000   1577321   1578675   1580459   1582241   1583644  
  8900.000000   1584471   1584662   1584295   1583484   1582367  
  8890.000000   1581080   1579845   1578938   1578709   1579450  
  8880.000000   1581293   1584111   1587477   1590796   1593449  
  8870.000000   1595065   1595618   1595469   1595204   1595407  
  8860.000000   1596442   1598295   1600602   1602770   1604215  
  8850.000000   1604529   1603604   1601634   1599011   1596217  
  8840.000000   1593671   1591714   1590544   1590263   1590832  
  8830.000000   1592108   1593844   1595721   1597409   1598628  
  8820.000000   1599226   1599188   1598637   1597741   1596691  
  8810.000000   1595616   1594641   1593874   1593472   1593606  
  8800.000000   1594416   1595944   1598066   1600498   1602857  
  8790.000000   1604793   1606121   1606878   1607315   1607757  
  8780.000000   1608483   1609580   1610933   1612274   1613325  
  8770.000000   1613930   1614134   1614170   1614359   1614980  
  8760.000000   1616146   1617767   1619571   1621216   1622390  
  8750.000000   1622922   1622818   1622265   1621562   1621054  
  8740.000000   1621026   1621648   1622913   1624640   1626504  
  8730.000000   1628111   1629117   1629318   1628732   1627584  
  8720.000000   1626254   1625139   1624565   1624662   1625385  
  8710.000000   1626513   1627785   1628961   1629915   1630645  
  8700.000000   1631257   1631938   1632889   1634309   1636344  
  8690.000000   1639066   1642432   1646262   1650245   1653987  
  8680.000000   1657100   1659295   1660471   1660733   1660367  
  8670.000000   1659715   1659068   1658574   1658247   1658009  
  8660.000000   1657780   1657554   1657412   1657509   1657953  
  8650.000000   1658784   1659899   1661139   1662347   1663469  
  8640.000000   1664590   1665879   1667515   1669545   1671850  
  8630.000000   1674123   1676007   1677191   1677572   1677285  
  8620.000000   1676687   1676235   1676334   1677226   1678917  
  8610.000000   1681229   1683852   1686470   1688832   1690798  
  8600.000000   1692349   1693530   1694427   1695110   1695643  
  8590.000000   1696047   1696337   1696526   1696663   1696839  
  8580.000000   1697184   1697865   1699042   1700838   1703265  
  8570.000000   1706210   1709420   1712550   1715229   1717164  
  8560.000000   1718228   1718493   1718232   1717838   1717737  
  8550.000000   1718251   1719517   1721435   1723710   1725943  
  8540.000000   1727751   1728900   1729353   1729312   1729118  
  8530.000000   1729173   1729776   1731059   1732945   1735194  
  8520.000000   1737500   1739582   1741259   1742465   1743214  
  8510.000000   1743562   1743538   1743169   1742493   1741624  
  8500.000000   1740775   1740227   1740253   1741017   1742478  
  8490.000000   1744385   1746318   1747839   1748631   1748612  
  8480.000000   1747970   1747068   1746329   1746056   1746367  
  8470.000000   1747148   1748157   1749119   1749875   1750427  
  8460.000000   1750928   1751607   1752660   1754176   1756093  
  8450.000000   1758249   1760447   1762529   1764435   1766189  
  8440.000000   1767887   1769607   1771362   1773078   1774596  
  8430.000000   1775750   1776419   1776599   1776420   1776133  
  8420.000000   1776016   1776308   1777087   1778275   1779621  
  8410.000000   1780806   1781529   1781626   1781119   1780205  
  8400.000000   1779168   1778293   1777770   1777656   1777885  
  8390.000000   1778326   1778866   1779456   1780103   1780853  
  8380.000000   1781714   1782654   1783568   1784347   1784927  
  8370.000000   1785331   1785672   1786089   1786679   1787429  
  8360.000000   1788203   1788776   1788934   1788562   1787710  
  8350.000000   1786586   1785475   1784647   1784247   1784276  
  8340.000000   1784584   1784978   1785290   1785467   1785563  
  8330.000000   1785718   1786073   1786699   1787554   1788490  
  8320.000000   1789311   1789827   1789936   1789633   1789028  
  8310.000000   1788279   1787558   1786993   1786635   1786468  
  8300.000000   1786413   1786382   1786299   1786155   1785993  
  8290.000000   1785921   1786039   1786427   1787072   1787869  
  8280.000000   1788609   1789043   1788955   1788219   1786863  
  8270.000000   1785046   1783033   1781106   1779486   1778276  
  8260.000000   1777441   1776860   1776378   1775896   1775397  
  8250.000000   1774962   1774724   1774805   1775241   1775947  
  8240.000000   1776730   1777344   1777581   1777320   1776602  
  8230.000000   1775590   1774538   1773684   1773176   1773017  
  8220.000000   1773071   1773132   1772990   1772543   1771815  
  8210.000000   1770991   1770318   1770044   1770278   1770971  
  8200.000000   1771890   1772708   1773082   1772768   1771685  
  8190.000000   1769930   1767735   1765392   1763157   1761195  
  8180.000000   1759545   1758154   1756904   1755685   1754414  
  8170.000000   1753071   1751683   1750309   1749010   1747821  
  8160.000000   1746743   1745740   1744757   1743733   1742627  
  8150.000000   1741436   1740201   1739012   1737989   1737257  
  8140.000000   1736899   1736932   1737279   1737776   1738203  
  8130.000000   1738334   1737991   1737084   1735641   1733778  
  8120.000000   1731684   1729551   1727536   1725726   1724127  
  8110.000000   1722705   1721401   1720191   1719078   1718123  
  8100.000000   1717378   1716893   1716648   1716567   1716510  
  8090.000000   1716311   1715829   1714966   1713708   1712091  
  8080.000000   1710201   1708122   1705938   1703695   1701441  
  8070.000000   1699209   1697054   1695031   1693204   1691621  
  8060.000000   1690307   1689264   1688477   1687937   1687646  
  8050.000000   1687624   1687894   1688460   1689285   1690286  
  8040.000000   1691345   1692322   1693099   1693586   1693745  
  8030.000000   1693568   1693072   1692271   1691176   1689796  
  8020.000000   1688148   1686278   1684258   1682193   1680192  
  8010.000000   1678369   1676803   1675552   1674625   1674007  
  8000.000000   1673646   1673468   1673387   1673311   1673169  
  7990.000000   1672910   1672530   1672057   1671556   1671089  
  7980.000000   1670717   1670465   1670336   1670308   1670360  
  7970.000000   1670467   1670607   1670754   1670858   1670853  
  7960.000000   1670668   1670251   1669602   1668787   1667930  
  7950.000000   1667172   1666627   1666335   1666246   1666234  
  7940.000000   1666154   1665898   1665449   1664882   1664348  
  7930.000000   1664002   1663947   1664193   1664654   1665194  
  7920.000000   1665681   1666044   1666298   1666519   1666804  
  7910.000000   1667206   1667696   1668164   1668457   1668438  
  7900.000000   1668045   1667322   1666410   1665494   1664740  
  7890.000000   1664244   1663997   1663915   1663865   1663730  
  7880.000000   1663445   1663010   1662476   1661919   1661393  
  7870.000000   1660923   1660493   1660073   1659640   1659195  
  7860.000000   1658772   1658415   1658156   1657998   1657897  
  7850.000000   1657783   1657577   1657224   1656720   1656111  
  7840.000000   1655488   1654947   1654565   1654365   1654314  
  7830.000000   1654329   1654306   1654160   1653843   1653378  
  7820.000000   1652835   1652334   1651984   1651875   1652027  
  7810.000000   1652397   1652870   1653297   1653521   1653414  
  7800.000000   1652905   1651986   1650712   1649177   1647497  
  7790.000000   1645788   1644152   1642672   1641409   1640411  
  7780.000000   1639694   1639254   1639042   1638990   1638997  
  7770.000000   1638967   1638822   1638522   1638074   1637512  
  7760.000000   1636888   1636236   1635569   1634865   1634099  
  7750.000000   1633254   1632350   1631446   1630626   1629970  
  7740.000000   1629518   1629257   1629108   1628970   1628745  
  7730.000000   1628385   1627904   1627381   1626916   1626594  
  7720.000000   1626448   1626435   1626457   1626379   1626088  
  7710.000000   1625496   1624587   1623384   1621956   1620390  
  7700.000000   1618784   1617250   1615904   1614875   1614275  
  7690.000000   1614186   1614621   1615506   1616681   1617921  
  7680.000000   1618989   1619681   1619881   1619564   1618812  
  7670.000000   1617761   1616585   1615436   1614438   1613663  
  7660.000000   1613141   1612863   1612793   1612878   1613049  
  7650.000000   1613229   1613345   1613326   1613124   1612714  
  7640.000000   1612114   1611373   1610584   1609866   1609352  
  7630.000000   1609163   1609378   1610012   1611000   1612204  
  7620.000000   1613440   1614517   1615285   1615666   1615678  
  7610.000000   1615408   1615001   1614595   1614308   1614194  
  7600.000000   1614263   1614486   1614820   1615224   1615660  
  7590.000000   1616098   1616508   1616868   1617163   1617395  
  7580.000000   1617595   1617799   1618050   1618367   1618740  
  7570.000000   1619128   1619484   1619775   1620016   1620263  
  7560.000000   1620604   1621114   1621828   1622705   1623655  
  7550.000000   1624548   1625283   1625813   1626178   1626475  
  7540.000000   1626836   1627362   1628108   1629057   1630152  
  7530.000000   1631313   1632489   1633658   1634843   1636079  
  7520.000000   1637399   1638806   1640279   1641773   1643248  
  7510.000000   1644665   1646017   1647300   1648530   1649711  
  7500.000000   1650854   1651968   1653077   1654214   1655423  
  7490.000000   1656742   1658193   1659775   1661460   1663201  
  7480.000000   1664953   1666675   1668358   1670003   1671637  
  7470.000000   1673276   1674942   1676632   1678340   1680042  
  7460.000000   1681725   1683380   1685023   1686685   1688419  
  7450.000000   1690281   1692319   1694560   1696998   1699590  
  7440.000000   1702266   1704935   1707526   1709982   1712289  
  7430.000000   1714461   1716544   1718592   1720662   1722794  
  7420.000000   1725017   1727340   1729758   1732247   1734763  
  7410.000000   1737255   1739658   1741923   1744016   1745947  
  7400.000000   1747759   1749523   1751318   1753198   1755179  
  7390.000000   1757229   1759283   1761266   1763117   1764825  
  7380.000000   1766426   1768004   1769660   1771487   1773542  
  7370.000000   1775830   1778307   1780885   1783461   1785928  
  7360.000000   1788213   1790276   1792135   1793845   1795499  
  7350.000000   1797199   1799037   1801072   1803316   1805733  
  7340.000000   1808253   1810799   1813298   1815703   1817990  
  7330.000000   1820156   1822206   1824150   1825994   1827752  
  7320.000000   1829442   1831096   1832749   1834439   1836186  
  7310.000000   1837988   1839807   1841588   1843259   1844765  
  7300.000000   1846074   1847198   1848177   1849082   1849984  
  7290.000000   1850946   1851994   1853129   1854314   1855506  
  7280.000000   1856653   1857726   1858707   1859608   1860452  
  7270.000000   1861273   1862099   1862942   1863801   1864656  
  7260.000000   1865483   1866249   1866945   1867565   1868139  
  7250.000000   1868709   1869342   1870104   1871065   1872265  
  7240.000000   1873729   1875441   1877368   1879446   1881626  
  7230.000000   1883844   1886075   1888286   1890483   1892657  
  7220.000000   1894831   1897006   1899213   1901463   1903796  
  7210.000000   1906228   1908793   1911494   1914335   1917294  
  7200.000000   1920357   1923499   1926724   1930030   1933446  
  7190.000000   1936983   1940664   1944473   1948399   1952396  
  7180.000000   1956439   1960484   1964530   1968564   1972612  
  7170.000000   1976679   1980798   1984978   1989248   1993615  
  7160.000000   1998104   2002718   2007473   2012362   2017393  
  7150.000000   2022557   2027864   2033303   2038880   2044563  
  7140.000000   2050334   2056133   2061932   2067694   2073442  
  7130.000000   2079211   2085096   2091171   2097523   2104166  
  7120.000000   2111084   2118186   2125385   2132579   2139730  
  7110.000000   2146831   2153940   2161114   2168418   2175866  
  7100.000000   2183455   2191134   2198871   2206625   2214405  
  7090.000000   2222223   2230116   2238096   2246165   2254288  
  7080.000000   2262423   2270519   2278552   2286515   2294440  
  7070.000000   2302371   2310365   2318458   2326668   2334977  
  7060.000000   2343349   2351729   2360066   2368318   2376466  
  7050.000000   2384509   2392462   2400342   2408163   2415935  
  7040.000000   2423659   2431352   2439032   2446735   2454491  
  7030.000000   2462321   2470204   2478095   2485906   2493554  
  7020.000000   2500965   2508119   2515031   2521767   2528392  
  7010.000000   2534972   2541526   2548059   2554535   2560933  
  7000.000000   2567224   2573412   2579490   2585473   2591348  
  6990.000000   2597126   2602798   2608394   2613932   2619453  
  6980.000000   2624955   2630424   2635790   2640985   2645933  
  6970.000000   2650621   2655069   2659362   2663571   2667763  
  6960.000000   2671923   2676002   2679896   2683535   2686877  
  6950.000000   2689978   2692927   2695857   2698858   2701975  
  6940.000000   2705166   2708347   2711400   2714241   2716815  
  6930.000000   2719137   2721253   2723254   2725216   2727221  
  6920.000000   2729310   2731508   2733795   2736133   2738453  
  6910.000000   2740691   2742784   2744706   2746452   2748054  
  6900.000000   2749552   2750990   2752392   2753776   2755142  
  6890.000000   2756500   2757861   2759251   2760679   2762147  
  6880.000000   2763620   2765050   2766378   2767565   2768604  
  6870.000000   2769524   2770380   2771232   2772126   2773084  
  6860.000000   2774104   2775176   2776281   2777412   2778553  
  6850.000000   2779693   2780806   2781869   2782862   2783788  
  6840.000000   2784671   2785554   2786474   2787447   2788449  
  6830.000000   2789433   2790336   2791119   2791771   2792327  
  6820.000000   2792833   2793339   2793855   2794366   2794819  
  6810.000000   2795171   2795397   2795511   2795551   2795568  
  6800.000000   2795589   2795617   2795621   2795570   2795443  
  6790.000000   2795258   2795054   2794893   2794816   2794842  
  6780.000000   2794948   2795092   2795219   2795294   2795294  
  6770.000000   2795218   2795066   2794835   2794509   2794070  
  6760.000000   2793500   2792803   2791997   2791126   2790234  
  6750.000000   2789375   2788583   2787888   2787296   2786800  
  6740.000000   2786371   2785967   2785528   2784996   2784320  
  6730.000000   2783477   2782474   2781351   2780168   2778995  
  6720.000000   2777890   2776900   2776044   2775325   2774719  
  6710.000000   2774188   2773663   2773067   2772317   2771348  
  6700.000000   2770130   2768684   2767073   2765392   2763733  
  6690.000000   2762163   2760704   2759343   2758042   2756766  
  6680.000000   2755492   2754220   2752952   2751690   2750414  
  6670.000000   2749102   2747728   2746290   2744809   2743328  
  6660.000000   2741881   2740479   2739093   2737662   2736115  
  6650.000000   2734408   2732539   2730561   2728550   2726589  
  6640.000000   2724725   2722969   2721294   2719667   2718059  
  6630.000000   2716463   2714880   2713308   2711718   2710064  
  6620.000000   2708285   2706346   2704251   2702060   2699865  
  6610.000000   2697765   2695819   2694031   2692347   2690680  
  6600.000000   2688951   2687117   2685185   2683203   2681229  
  6590.000000   2679305   2677440   2675608   2673771   2671893  
  6580.000000   2669965   2668004   2666052   2664149   2662331  
  6570.000000   2660607   2658969   2657389   2655838   2654283  
  6560.000000   2652704   2651090   2649445   2647781   2646122  
  6550.000000   2644489   2642901   2641364   2639872   2638408  
  6540.000000   2636956   2635505   2634061   2632632   2631235  
  6530.000000   2629873   2628541   2627219   2625891   2624545  
  6520.000000   2623192   2621855   2620572   2619372   2618277  
  6510.000000   2617285   2616383   2615546   2614751   2613972  
  6500.000000   2613188   2612377   2611516   2610591   2609600  
  6490.000000   2608563   2607517   2606507   2605569   2604715  
  6480.000000   2603928   2603165   2602379   2601532   2600610  
  6470.000000   2599623   2598592   2597541   2596478   2595404  
  6460.000000   2594316   2593226   2592160   2591158   2590252  
  6450.000000   2589453   2588736   2588048   2587326   2586521  
  6440.000000   2585625   2584664   2583697   2582781   2581959  
  6430.000000   2581233   2580581   2579961   2579340   2578699  
  6420.000000   2578044   2577387   2576747   2576133   2575549  
  6410.000000   2575002   2574504   2574073   2573724   2573454  
  6400.000000   2573237   2573021   2572749   2572369   2571863  
  6390.000000   2571239   2570535   2569793   2569047   2568310  
  6380.000000   2567582   2566863   2566158   2565493   2564898  
  6370.000000   2564400   2563998   2563669   2563362   2563029  
  6360.000000   2562633   2562165   2561640   2561080   2560498  
  6350.000000   2559894   2559249   2558545   2557779   2556973  
  6340.000000   2556161   2555385   2554664   2553990   2553327  
  6330.000000   2552632   2551866   2551026   2550132   2549230  
  6320.000000   2548361   2547553   2546796   2546060   2545292  
  6310.000000   2544446   2543483   2542390   2541160   2539809  
  6300.000000   2538352   2536820   2535244   2533669   2532121  
  6290.000000   2530626   2529169   2527724   2526234   2524655  
  6280.000000   2522949   2521117   2519179   2517180   2515156  
  6270.000000   2513136   2511117   2509088   2507025   2504917  
  6260.000000   2502760   2500572   2498366   2496162   2493960  
  6250.000000   2491758   2489542   2487302   2485031   2482735  
  6240.000000   2480416   2478087   2475753   2473425   2471108  
  6230.000000   2468813   2466539   2464286   2462038   2459776  
  6220.000000   2457477   2455126   2452722   2450278   2447817  
  6210.000000   2445365   2442941   2440548   2438177   2435813  
  6200.000000   2433442   2431061   2428678   2426307   2423964  
  6190.000000   2421659   2419395   2417166   2414964   2412786  
  6180.000000   2410629   2408500   2406407   2404357   2402354  
  6170.000000   2400397   2398476   2396575   2394671   2392738  
  6160.000000   2390757   2388710   2386603   2384450   2382287  
  6150.000000   2380151   2378082   2376105   2374232   2372454  
  6140.000000   2370756   2369116   2367512   2365924   2364342  
  6130.000000   2362751   2361149   2359534   2357920   2356321  
  6120.000000   2354763   2353265   2351840   2350486   2349193  
  6110.000000   2347946   2346736   2345560   2344428   2343344  
  6100.000000   2342309   2341303   2340299   2339261   2338173  
  6090.000000   2337035   2335880   2334752   2333705   2332771  
  6080.000000   2331965   2331270   2330667   2330124   2329632  
  6070.000000   2329183   2328784   2328429   2328119   2327833  
  6060.000000   2327568   2327316   2327098   2326937   2326871  
  6050.000000   2326915   2327078   2327339   2327681   2328073  
  6040.000000   2328508   2328978   2329497   2330063   2330677  
  6030.000000   2331323   2331990   2332672   2333387   2334161  
  6020.000000   2335034   2336024   2337135   2338333   2339572  
  6010.000000   2340792   2341958   2343053   2344096   2345112  
  6000.000000   2346138   2347188   2348267   2349356   2350444  
  5990.000000   2351516   2352583   2353662   2354787   2355982  
  5980.000000   2357269   2358651   2360125   2361677   2363298  
  5970.000000   2364969   2366689   2368445   2370239   2372061  
  5960.000000   2373914   2375789   2377689   2379607   2381546  
  5950.000000   2383503   2385489   2387507   2389574   2391697  
  5940.000000   2393884   2396132   2398437   2400787   2403175  
  5930.000000   2405596   2408047   2410528   2413034   2415548  
  5920.000000   2418050   2420510   2422907   2425222   2427455  
  5910.000000   2429605   2431679   2433676   2435596   2437437  
  5900.000000   2439211   2440949   2442701   2444530   2446492  
  5890.000000   2448627   2450939   2453400   2455955   2458542  
  5880.000000   2461106   2463605   2466017   2468328   2470536  
  5870.000000   2472633   2474624   2476512   2478322   2480084  
  5860.000000   2481838   2483620   2485455   2487355   2489325  
  5850.000000   2491364   2493480   2495682   2497981   2500381  
  5840.000000   2502876   2505442   2508052   2510680   2513316  
  5830.000000   2515960   2518628   2521331   2524066   2526815  
  5820.000000   2529540   2532199   2534753   2537182   2539478  
  5810.000000   2541656   2543725   2545710   2547615   2549459  
  5800.000000   2551240   2552980   2554667   2556313   2557885  
  5790.000000   2559366   2560703   2561870   2562820   2563542  
  5780.000000   2564007   2564214   2564139   2563782   2563135  
  5770.000000   2562226   2561091   2559804   2558438   2557072  
  5760.000000   2555759   2554537   2553416   2552405   2551502  
  5750.000000   2550721   2550068   2549547   2549149   2548844  
  5740.000000   2548599   2548373   2548154   2547937   2547748  
  5730.000000   2547609   2547552   2547583   2547708   2547908  
  5720.000000   2548178   2548503   2548885   2549315   2549790  
  5710.000000   2550295   2550818   2551348   2551892   2552463  
  5700.000000   2553087   2553784   2554560   2555406   2556294  
  5690.000000   2557195   2558083   2558949   2559789   2560613  
  5680.000000   2561416   2562190   2562906   2563537   2564047  
  5670.000000   2564416   2564625   2564665   2564525   2564203  
  5660.000000   2563697   2563028   2562232   2561373   2560518  
  5650.000000   2559736   2559064   2558519   2558077   2557703  
  5640.000000   2557346   2556972   2556550   2556072   2555534  
  5630.000000   2554939   2554298   2553629   2552957   2552312  
  5620.000000   2551720   2551189   2550709   2550251   2549775  
  5610.000000   2549250   2548664   2548035   2547393   2546780  
  5600.000000   2546218   2545707   2545222   2544726   2544183  
  5590.000000   2543576   2542906   2542188   2541435   2540657  
  5580.000000   2539841   2538973   2538034   2537018   2535930  
  5570.000000   2534790   2533614   2532422   2531215   2529995  
  5560.000000   2528755   2527495   2526220   2524939   2523662  
  5550.000000   2522400   2521160   2519949   2518775   2517646  
  5540.000000   2516570   2515545   2514564   2513608   2512660  
  5530.000000   2511708   2510752   2509802   2508874   2507980  
  5520.000000   2507119   2506279   2505440   2504581   2503690  
  5510.000000   2502763   2501803   2500813   2499787   2498716  
  5500.000000   2497587   2496403   2495176   2493941   2492725  
  5490.000000   2491553   2490416   2489286   2488114   2486859  
  5480.000000   2485494   2484025   2482474   2480878   2479260  
  5470.000000   2477633   2475983   2474294   2472550   2470752  
  5460.000000   2468906   2467025   2465112   2463160   2461154  
  5450.000000   2459082   2456948   2454773   2452597   2450460  
  5440.000000   2448389   2446391   2444462   2442585   2440756  
  5430.000000   2438975   2437255   2435595   2433993   2432424  
  5420.000000   2430874   2429333   2427831   2426412   2425147  
  5410.000000   2424080   2423232   2422566   2422029   2421545  
  5400.000000   2421076   2420596   2420138   2419731   2419431  
  5390.000000   2419254   2419228   2419339   2419605   2420027  
  5380.000000   2420647   2421472   2422529   2423785   2425225  
  5370.000000   2426787   2428462   2430215   2432083   2434064  
  5360.000000   2436218   2438538   2441080   2443836   2446879  
  5350.000000   2450224   2453972   2458136   2462792   2467900  
  5340.000000   2473484   2479466   2485875   2492653   2499866  
  5330.000000   2507474   2515545   2524022   2532961   2542303  
  5320.000000   2552139   2562456   2573400   2584983   2597349  
  5310.000000   2610466   2624419   2639113   2654593   2670759  
  5300.000000   2687684   2705317   2723785   2743087   2763372  
  5290.000000   2784626   2806936   2830200   2854386   2879307  
  5280.000000   2904894   2931009   2957687   2984929   3012865  
  5270.000000   3041525   3070937   3100963   3131409   3162015  
  5260.000000   3192566   3222941   3253123   3283194   3313209  
  5250.000000   3343201   3373028   3402521   3431366   3459386  
  5240.000000   3486378   3512393   3537440   3561733   3585323  
  5230.000000   3608366   3630776   3652558   3673506   3693586  
  5220.000000   3712631   3730719   3747815   3764112   3779637  
  5210.000000   3794570   3808858   3822554   3835477   3847603  
  5200.000000   3858752   3868981   3878235   3886680   3894330  
  5190.000000   3901341   3907673   3913400   3918424   3922799  
  5180.000000   3926453   3929481   3931851   3933663   3934869  
  5170.000000   3935532   3935590   3935112   3934072   3932577  
  5160.000000   3930626   3928310   3925592   3922511   3919000  
  5150.000000   3915095   3910762   3906074   3901035   3895720  
  5140.000000   3890121   3884284   3878186   3871876   3865357  
  5130.000000   3858698   3851915   3845059   3838110   3831075  
  5120.000000   3823912   3816626   3809204   3801687   3794095  
  5110.000000   3786470   3778813   3771133   3763405   3755631  
  5100.000000   3747802   3739945   3732077   3724230   3716409  
  5090.000000   3708621   3700849   3693087   3685323   3677568  
  5080.000000   3669821   3662097   3654390   3646696   3638997  
  5070.000000   3631286   3623551   3615796   3608014   3600209  
  5060.000000   3592366   3584474   3576519   3568500   3560424  
  5050.000000   3552319   3544207   3536113   3528045   3519999  
  5040.000000   3511963   3503925   3495887   3487861   3479876  
  5030.000000   3471960   3464140   3456428   3448830   3441336  
  5020.000000   3433947   3426656   3419478   3412411   3405478  
  5010.000000   3398668   3391995   3385439   3379014   3372708  
  5000.000000   3366551   3360546   3354740   3349133   3343771  
  4990.000000   3338645   3333790   3329190   3324877   3320829  
  4980.000000   3317080   3313603   3310436   3307555   3305007  
  4970.000000   3302780   3300931   3299445   3298372   3297680  
  4960.000000   3297401   3297488   3297967   3298793   3300000  
  4950.000000   3301549   3303475   3305733   3308352   3311282  
  4940.000000   3314554   3318126   3322039   3326259   3330822  
  4930.000000   3335690   3340887   3346370   3352167   3358245  
  4920.000000   3364645   3371343   3378370   3385688   3393302  
  4910.000000   3401157   3409245   3417519   3425985   3434616  
  4900.000000   3443423   3452383   3461496   3470730   3480071  
  4890.000000   3489492   3498977   3508502   3518044   3527576  
  4880.000000   3537063   3546474   3555776   3564954   3573986  
  4870.000000   3582867   3591570   3600088   3608383   3616450  
  4860.000000   3624264   3631847   3639207   3646391   3653410  
  4850.000000   3660304   3667060   3673691   3680164   3686485  
  4840.000000   3692630   3698617   3704433   3710107   3715624  
  4830.000000   3721007   3726236   3731323   3736246   3741010  
  4820.000000   3745591   3749994   3754196   3758210   3762027  
  4810.000000   3765673   3769147   3772477   3775662   3778722  
  4800.000000   3781654   3784484   3787219   3789898   3792533  
  4790.000000   3795154   3797754   3800332   3802853   3805302  
  4780.000000   3807648   3809895   3812038   3814104   3816097  
  4770.000000   3818033   3819896   3821683   3823359   3824918  
  4760.000000   3826332   3827605   3828720   3829688   3830490  
  4750.000000   3831138   3831612   3831924   3832057   3832025  
  4740.000000   3831808   3831415   3830821   3830035   3829041  
  4730.000000   3827862   3826500   3824990   3823342   3821589  
  4720.000000   3819731   3817783   3815736   3813600   3811367  
  4710.000000   3809055   3806667   3804228   3801750   3799257  
  4700.000000   3796762   3794288   3791843   3789441   3787083  
  4690.000000   3784769   3782487   3780224   3777958   3775672  
  4680.000000   3773347   3770967   3768525   3766011   3763429  
  4670.000000   3760784   3758094   3755379   3752675   3750013  
  4660.000000   3747435   3744965   3742636   3740457   3738442  
  4650.000000   3736586   3734895   3733359   3731980   3730749  
  4640.000000   3729668   3728724   3727915   3727222   3726635  
  4630.000000   3726131   3725692   3725291   3724910   3724525  
  4620.000000   3724123   3723684   3723201   3722656   3722043  
  4610.000000   3721351   3720582   3719745   3718862   3717968  
  4600.000000   3717097   3716287   3715559   3714925   3714374  
  4590.000000   3713887   3713432   3712985   3712515   3712003  
  4580.000000   3711425   3710768   3710015   3709160   3708203  
  4570.000000   3707163   3706058   3704921   3703772   3702624  
  4560.000000   3701470   3700294   3699066   3697763   3696367  
  4550.000000   3694875   3693294   3691644   3689944   3688214  
  4540.000000   3686477   3684747   3683049   3681396   3679810  
  4530.000000   3678292   3676858   3675494   3674216   3673011  
  4520.000000   3671915   3670929   3670111   3669464   3669053  
  4510.000000   3668877   3669005   3669439   3670269   3671507  
  4500.000000   3673256   3675518   3678378   3681805   3685857  
  4490.000000   3690482   3695737   3701578   3708077   3715200  
  4480.000000   3723017   3731486   3740656   3750469   3760957  
  4470.000000   3772052   3783768   3796023   3808801   3821998  
  4460.000000   3835570   3849409   3863468   3877656   3891938  
  4450.000000   3906246   3920549   3934794   3948949   3962984  
  4440.000000   3976877   3990630   4004234   4017719   4031073  
  4430.000000   4044331   4057456   4070473   4083310   4095970  
  4420.000000   4108349   4120431   4132088   4143297   4153921  
  4410.000000   4163937   4173205   4181705   4189301   4195983  
  4400.000000   4201646   4206324   4209974   4212694   4214514  
  4390.000000   4215576   4215952   4215793   4215176   4214236  
  4380.000000   4213049   4211736   4210382   4209103   4207996  
  4370.000000   4207170   4206722   4206739   4207307   4208472  
  4360.000000   4210285   4212741   4215831   4219489   4223645  
  4350.000000   4228200   4233066   4238169   4243469   4248958  
  4340.000000   4254647   4260544   4266617   4272766   4278806  
  4330.000000   4284474   4289461   4293473   4296289   4297831  
  4320.000000   4298176   4297580   4296387   4295014   4293804  
  4310.000000   4293041   4292830   4293191   4294002   4295137  
  4300.000000   4296424   4297760   4299045   4300243   4301316  
  4290.000000   4302247   4303015   4303608   4304027   4304294  
  4280.000000   4304450   4304560   4304674   4304862   4305149  
  4270.000000   4305571   4306104   4306728   4307354   4307885  
  4260.000000   4308163   4308038   4307346   4305982   4303896  
  4250.000000   4301138   4297829   4294165   4290350   4286595  
  4240.000000   4283045   4279804   4276886   4274279   4271910  
  4230.000000   4269714   4267606   4265522   4263401   4261197  
  4220.000000   4258885   4256445   4253893   4251244   4248549  
  4210.000000   4245843   4243190   4240626   4238206   4235955  
  4200.000000   4233918   4232104   4230540   4229208   4228116  
  4190.000000   4227220   4226522   4225976   4225606   4225387  
  4180.000000   4225372   4225547   4225979   4226657   4227658  
  4170.000000   4228991   4230766   4233015   4235862   4239325  
  4160.000000   4243481   4248282   4253740   4259754   4266314  
  4150.000000   4273327   4280817   4288721   4297092   4305883  
  4140.000000   4315154   4324864   4335079   4345767   4356996  
  4130.000000   4368733   4381023   4393804   4407088   4420799  
  4120.000000   4434947   4449476   4464422   4479759   4495531  
  4110.000000   4511712   4528322   4545308   4562653   4580282  
  4100.000000   4598158   4616207   4634400   4652690   4671080  
  4090.000000   4689568   4708180   4726938   4745863   4764968  
  4080.000000   4784236   4803659   4823191   4842811   4862454  
  4070.000000   4882094   4901652   4921104   4940364   4959426  
  4060.000000   4978212   4996732   5014898   5032714   5050063  
  4050.000000   5066944   5083239   5098981   5114084   5128620  
  4040.000000   5142500   5155781   5168327   5180161   5191125  
  4030.000000   5201254   5210410   5218649   5225856   5232069  
  4020.000000   5237143   5241132   5243981   5245794   5246522  
  4010.000000   5246359   5245415   5243768   5241200   5237837  
  4000.000000   5234072  
##END= 
