##TITLE= Sample 005 By ssteindl date Donnerstag, November 22 2018
##JCAMP-DX= 4.24
##DATA TYPE= INFRARED SPECTRUM
##ORIGIN= Exported PE Spectrum Data File
##OWNER= Sandra Steindl
##DATE= 18/11/22
##TIME= 13:12:06.00
##SPECTROMETER/DATA SYSTEM= PERKIN-ELMER Frontier FT-IR/NIR IR
##INSTRUMENT PARAMETERS=
  APODIZATION=stark
  DETECTOR=INGAAS
##RESOLUTION= 16.000000
##DELTAX= -2.000000
##XUNITS= 1/CM
##YUNITS= A
##XFACTOR= 1.00
##YFACTOR= 0.00000011920928955078
##FIRSTX= 10000.00
##LASTX= 4000.00
##NPOINTS= 3001
##FIRSTY= 0.241726
##MAXY= 0.660426
##MINY= 0.202259
##XYDATA= (X++(Y..Y))
 10000.000000   2027742   2030532   2033777   2037572   2040768  
  9990.000000   2041661   2039257   2033627   2025602   2016494  
  9980.000000   2007795   2000724   1995659   1992306   1990032  
  9970.000000   1988424   1987464   1987593   1989329   1992840  
  9960.000000   1997598   2002398   2005742   2006353   2003809  
  9950.000000   1998613   1992193   1986212   1982099   1980485  
  9940.000000   1981135   1983170   1985489   1987263   1988164  
  9930.000000   1988441   1988669   1989487   1991266   1994002  
  9920.000000   1997291   2000484   2002893   2003955   2003411  
  9910.000000   2001342   1998171   1994577   1991292   1988940  
  9900.000000   1987796   1987738   1988259   1988681   1988353  
  9890.000000   1986903   1984270   1980749   1976792   1972913  
  9880.000000   1969516   1966852   1965034   1964029   1963697  
  9870.000000   1963744   1963750   1963220   1961731   1959091  
  9860.000000   1955464   1951369   1947579   1944842   1943677  
  9850.000000   1944112   1945731   1947753   1949363   1949953  
  9840.000000   1949331   1947714   1945633   1943713   1942547  
  9830.000000   1942531   1943846   1946412   1949889   1953738  
  9820.000000   1957277   1959893   1961177   1961147   1960239  
  9810.000000   1959244   1958981   1959975   1962158   1964822  
  9800.000000   1966832   1967051   1964776   1960046   1953611  
  9790.000000   1946710   1940571   1936077   1933459   1932422  
  9780.000000   1932288   1932395   1932247   1931657   1930621  
  9770.000000   1929236   1927573   1925657   1923524   1921224  
  9760.000000   1918882   1916543   1914181   1911558   1908422  
  9750.000000   1904575   1900161   1895669   1891898   1889650  
  9740.000000   1889421   1891180   1894310   1897892   1900989  
  9730.000000   1903090   1904226   1904970   1906146   1908433  
  9720.000000   1912097   1916768   1921602   1925443   1927215  
  9710.000000   1926156   1922041   1915248   1906677   1897652  
  9700.000000   1889618   1883928   1881471   1882469   1886346  
  9690.000000   1891833   1897307   1901195   1902419   1900646  
  9680.000000   1896337   1890541   1884581   1879680   1876726  
  9670.000000   1876157   1877982   1881895   1887336   1893616  
  9660.000000   1899905   1905380   1909286   1911119   1910742  
  9650.000000   1908383   1904611   1900042   1895233   1890438  
  9640.000000   1885701   1880956   1876222   1871778   1868067  
  9630.000000   1865675   1864971   1866075   1868646   1872107  
  9620.000000   1875726   1878896   1881226   1882547   1882888  
  9610.000000   1882295   1880870   1878651   1875755   1872309  
  9600.000000   1868532   1864627   1860750   1856993   1853392  
  9590.000000   1850068   1847233   1845269   1844556   1845349  
  9580.000000   1847584   1850797   1854246   1857053   1858565  
  9570.000000   1858449   1856872   1854303   1851401   1848749  
  9560.000000   1846747   1845595   1845344   1846028   1847676  
  9550.000000   1850320   1853870   1858062   1862403   1866274  
  9540.000000   1869035   1870207   1869563   1867171   1863409  
  9530.000000   1858840   1854196   1850179   1847395   1846181  
  9520.000000   1846489   1847888   1849561   1850649   1850432  
  9510.000000   1848757   1846048   1843300   1841688   1842138  
  9500.000000   1844954   1849597   1854857   1859141   1861019  
  9490.000000   1859606   1854860   1847541   1838973   1830669  
  9480.000000   1823949   1819690   1818190   1819192   1821973  
  9470.000000   1825521   1828747   1830741   1830987   1829499  
  9460.000000   1826798   1823733   1821196   1819822   1819797  
  9450.000000   1820840   1822374   1823816   1824810   1825397  
  9440.000000   1825874   1826624   1827770   1829065   1829908  
  9430.000000   1829561   1827496   1823541   1818035   1811605  
  9420.000000   1805035   1798952   1793716   1789430   1786019  
  9410.000000   1783450   1781761   1781109   1781645   1783422  
  9400.000000   1786335   1790102   1794321   1798487   1802083  
  9390.000000   1804588   1805631   1805028   1802957   1799920  
  9380.000000   1796742   1794349   1793503   1794522   1797079  
  9370.000000   1800303   1803018   1804234   1803446   1800863  
  9360.000000   1797235   1793600   1790836   1789373   1789054  
  9350.000000   1789282   1789335   1788676   1787138   1784894  
  9340.000000   1782283   1779648   1777186   1774974   1773017  
  9330.000000   1771358   1770123   1769436   1769348   1769698  
  9320.000000   1770171   1770355   1769955   1768903   1767425  
  9310.000000   1765906   1764745   1764153   1764119   1764447  
  9300.000000   1764906   1765386   1765950   1766806   1768150  
  9290.000000   1770038   1772289   1774544   1776364   1777411  
  9280.000000   1777538   1776827   1775531   1773932   1772261  
  9270.000000   1770641   1769122   1767702   1766339   1764958  
  9260.000000   1763445   1761707   1759700   1757517   1755389  
  9250.000000   1753698   1752847   1753125   1754534   1756751  
  9240.000000   1759209   1761283   1762520   1762776   1762258  
  9230.000000   1761365   1760525   1759951   1759620   1759285  
  9220.000000   1758688   1757677   1756295   1754785   1753437  
  9210.000000   1752532   1752150   1752284   1752821   1753732  
  9200.000000   1755041   1756782   1758890   1761091   1762922  
  9190.000000   1763754   1762996   1760274   1755633   1749544  
  9180.000000   1742815   1736376   1731086   1727574   1726117  
  9170.000000   1726621   1728628   1731467   1734381   1736663  
  9160.000000   1737788   1737540   1736107   1733993   1731880  
  9150.000000   1730375   1729881   1730454   1731841   1733598  
  9140.000000   1735276   1736608   1737544   1738235   1738867  
  9130.000000   1739545   1740203   1740614   1740502   1739627  
  9120.000000   1737916   1735463   1732530   1729448   1726559  
  9110.000000   1724174   1722522   1721766   1721915   1722868  
  9100.000000   1724356   1726052   1727605   1728781   1729527  
  9090.000000   1729967   1730323   1730757   1731272   1731636  
  9080.000000   1731492   1730486   1728488   1725667   1722476  
  9070.000000   1719528   1717337   1716178   1715939   1716268  
  9060.000000   1716695   1716879   1716691   1716226   1715716  
  9050.000000   1715327   1715066   1714712   1713950   1712476  
  9040.000000   1710178   1707172   1703825   1700639   1698140  
  9030.000000   1696746   1696673   1697926   1700288   1703378  
  9020.000000   1706684   1709672   1711881   1713030   1713093  
  9010.000000   1712291   1711054   1709829   1708976   1708600  
  9000.000000   1708597   1708675   1708517   1707909   1706817  
  8990.000000   1705428   1704032   1702967   1702476   1702697  
  8980.000000   1703638   1705210   1707244   1709506   1711709  
  8970.000000   1713545   1714735   1715122   1714731   1713805  
  8960.000000   1712734   1711921   1711631   1711895   1712497  
  8950.000000   1713055   1713160   1712540   1711155   1709193  
  8940.000000   1706975   1704822   1702953   1701444   1700262  
  8930.000000   1699343   1698662   1698259   1698205   1698568  
  8920.000000   1699370   1700572   1702069   1703738   1705451  
  8910.000000   1707079   1708482   1709496   1709976   1709818  
  8900.000000   1709050   1707819   1706408   1705103   1704113  
  8890.000000   1703466   1703003   1702462   1701601   1700352  
  8880.000000   1698881   1697554   1696807   1696967   1698120  
  8870.000000   1700052   1702335   1704455   1706018   1706844  
  8860.000000   1707033   1706884   1706796   1707120   1708068  
  8850.000000   1709670   1711796   1714211   1716636   1718820  
  8840.000000   1720589   1721870   1722679   1723124   1723341  
  8830.000000   1723470   1723586   1723697   1723753   1723685  
  8820.000000   1723454   1723081   1722638   1722224   1721898  
  8810.000000   1721665   1721470   1721240   1720947   1720640  
  8800.000000   1720458   1720561   1721067   1721964   1723094  
  8790.000000   1724213   1725077   1725568   1725747   1725849  
  8780.000000   1726202   1727081   1728605   1730652   1732904  
  8770.000000   1734922   1736301   1736779   1736316   1735094  
  8760.000000   1733460   1731846   1730657   1730214   1730677  
  8750.000000   1732035   1734104   1736559   1739000   1741030  
  8740.000000   1742351   1742809   1742441   1741430   1740089  
  8730.000000   1738752   1737726   1737211   1737301   1737999  
  8720.000000   1739239   1740931   1742955   1745194   1747522  
  8710.000000   1749825   1752000   1753956   1755630   1756969  
  8700.000000   1757953   1758568   1758848   1758856   1758719  
  8690.000000   1758598   1758663   1759048   1759790   1760844  
  8680.000000   1762064   1763293   1764401   1765359   1766241  
  8670.000000   1767178   1768301   1769637   1771113   1772525  
  8660.000000   1773651   1774305   1774450   1774203   1773819  
  8650.000000   1773622   1773907   1774881   1776617   1779057  
  8640.000000   1782041   1785342   1788696   1791816   1794430  
  8630.000000   1796317   1797383   1797671   1797395   1796876  
  8620.000000   1796501   1796598   1797358   1798793   1800744  
  8610.000000   1802971   1805226   1807360   1809321   1811171  
  8600.000000   1812967   1814742   1816445   1817966   1819205  
  8590.000000   1820104   1820737   1821228   1821754   1822395  
  8580.000000   1823116   1823735   1824007   1823755   1822983  
  8570.000000   1821955   1821149   1821142   1822403   1825139  
  8560.000000   1829170   1833992   1838895   1843188   1846394  
  8550.000000   1848353   1849241   1849448   1849418   1849476  
  8540.000000   1849752   1850190   1850641   1850972   1851151  
  8530.000000   1851264   1851453   1851855   1852490   1853271  
  8520.000000   1854002   1854498   1854653   1854505   1854247  
  8510.000000   1854144   1854463   1855363   1856851   1858772  
  8500.000000   1860869   1862855   1864513   1865742   1866589  
  8490.000000   1867212   1867840   1868688   1869899   1871479  
  8480.000000   1873310   1875168   1876819   1878078   1878896  
  8470.000000   1879365   1879700   1880149   1880906   1882031  
  8460.000000   1883444   1884964   1886398   1887631   1888670  
  8450.000000   1889658   1890778   1892210   1894008   1896126  
  8440.000000   1898402   1900660   1902754   1904605   1906180  
  8430.000000   1907450   1908351   1908762   1908542   1907602  
  8420.000000   1905986   1903903   1901689   1899740   1898385  
  8410.000000   1897819   1898025   1898839   1900000   1901268  
  8400.000000   1902469   1903543   1904500   1905395   1906274  
  8390.000000   1907149   1908006   1908814   1909559   1910233  
  8380.000000   1910842   1911381   1911829   1912154   1912316  
  8370.000000   1912294   1912092   1911735   1911268   1910724  
  8360.000000   1910131   1909489   1908791   1908037   1907242  
  8350.000000   1906459   1905747   1905204   1904922   1905023  
  8340.000000   1905596   1906700   1908302   1910273   1912373  
  8330.000000   1914274   1915614   1916085   1915533   1913989  
  8320.000000   1911688   1908995   1906339   1904088   1902474  
  8310.000000   1901541   1901158   1901098   1901107   1901000  
  8300.000000   1900687   1900213   1899708   1899354   1899294  
  8290.000000   1899593   1900214   1901026   1901859   1902542  
  8280.000000   1902970   1903106   1902982   1902666   1902202  
  8270.000000   1901595   1900788   1899727   1898396   1896888  
  8260.000000   1895385   1894125   1893300   1892988   1893082  
  8250.000000   1893316   1893326   1892781   1891500   1889512  
  8240.000000   1887047   1884447   1882062   1880143   1878799  
  8230.000000   1878000   1877617   1877499   1877506   1877554  
  8220.000000   1877579   1877550   1877424   1877187   1876840  
  8210.000000   1876429   1876015   1875638   1875291   1874879  
  8200.000000   1874257   1873256   1871759   1869750   1867327  
  8190.000000   1864689   1862061   1859653   1857593   1855940  
  8180.000000   1854678   1853764   1853137   1852726   1852432  
  8170.000000   1852120   1851619   1850765   1849454   1847690  
  8160.000000   1845610   1843447   1841464   1839873   1838767  
  8150.000000   1838106   1837731   1837444   1837065   1836490  
  8140.000000   1835692   1834696   1833532   1832212   1830712  
  8130.000000   1829002   1827075   1824967   1822777   1820630  
  8120.000000   1818659   1816948   1815511   1814284   1813145  
  8110.000000   1811960   1810623   1809101   1807451   1805806  
  8100.000000   1804353   1803268   1802669   1802565   1802848  
  8090.000000   1803306   1803698   1803804   1803518   1802835  
  8080.000000   1801865   1800750   1799623   1798543   1797508  
  8070.000000   1796469   1795397   1794316   1793319   1792541  
  8060.000000   1792098   1792040   1792308   1792764   1793225  
  8050.000000   1793541   1793630   1793492   1793180   1792756  
  8040.000000   1792253   1791671   1790995   1790225   1789401  
  8030.000000   1788593   1787872   1787265   1786720   1786128  
  8020.000000   1785348   1784285   1782928   1781368   1779762  
  8010.000000   1778278   1777025   1776030   1775235   1774552  
  8000.000000   1773908   1773289   1772731   1772289   1771998  
  7990.000000   1771829   1771706   1771515   1771167   1770606  
  7980.000000   1769846   1768929   1767914   1766842   1765745  
  7970.000000   1764668   1763688   1762924   1762511   1762545  
  7960.000000   1763029   1763837   1764732   1765425   1765672  
  7950.000000   1765345   1764486   1763278   1761990   1760874  
  7940.000000   1760103   1759717   1759650   1759754   1759878  
  7930.000000   1759901   1759767   1759476   1759076   1758643  
  7920.000000   1758261   1758015   1757975   1758188   1758657  
  7910.000000   1759344   1760170   1761037   1761849   1762535  
  7900.000000   1763058   1763401   1763561   1763524   1763266  
  7890.000000   1762756   1761988   1760988   1759834   1758638  
  7880.000000   1757527   1756611   1755956   1755587   1755475  
  7870.000000   1755578   1755829   1756178   1756573   1756969  
  7860.000000   1757332   1757627   1757839   1757953   1757966  
  7850.000000   1757855   1757594   1757140   1756471   1755597  
  7840.000000   1754593   1753593   1752763   1752257   1752155  
  7830.000000   1752439   1752982   1753598   1754095   1754348  
  7820.000000   1754325   1754092   1753765   1753463   1753256  
  7810.000000   1753150   1753096   1753027   1752885   1752650  
  7800.000000   1752329   1751949   1751520   1751046   1750504  
  7790.000000   1749883   1749178   1748407   1747600   1746783  
  7780.000000   1745970   1745160   1744344   1743520   1742695  
  7770.000000   1741891   1741121   1740390   1739679   1738973  
  7760.000000   1738268   1737603   1737051   1736695   1736584  
  7750.000000   1736688   1736883   1736968   1736728   1736000  
  7740.000000   1734745   1733060   1731161   1729306   1727723  
  7730.000000   1726547   1725799   1725405   1725242   1725188  
  7720.000000   1725151   1725084   1724961   1724771   1724501  
  7710.000000   1724145   1723713   1723227   1722737   1722280  
  7700.000000   1721884   1721528   1721168   1720744   1720216  
  7690.000000   1719585   1718900   1718245   1717707   1717348  
  7680.000000   1717183   1717182   1717284   1717414   1717505  
  7670.000000   1717501   1717364   1717068   1716610   1716011  
  7660.000000   1715328   1714643   1714058   1713652   1713469  
  7650.000000   1713494   1713665   1713891   1714091   1714218  
  7640.000000   1714274   1714295   1714336   1714437   1714619  
  7630.000000   1714866   1715155   1715451   1715736   1715994  
  7620.000000   1716214   1716379   1716469   1716474   1716405  
  7610.000000   1716313   1716273   1716368   1716657   1717143  
  7600.000000   1717763   1718402   1718925   1719214   1719205  
  7590.000000   1718897   1718355   1717679   1716983   1716362  
  7580.000000   1715884   1715583   1715475   1715555   1715814  
  7570.000000   1716234   1716788   1717442   1718155   1718881  
  7560.000000   1719584   1720227   1720801   1721297   1721742  
  7550.000000   1722163   1722610   1723124   1723745   1724491  
  7540.000000   1725367   1726363   1727470   1728674   1729969  
  7530.000000   1731340   1732760   1734173   1735510   1736690  
  7520.000000   1737662   1738412   1738990   1739490   1740033  
  7510.000000   1740720   1741607   1742688   1743917   1745221  
  7500.000000   1746546   1747860   1749171   1750492   1751839  
  7490.000000   1753197   1754539   1755837   1757091   1758338  
  7480.000000   1759659   1761137   1762844   1764799   1766967  
  7470.000000   1769266   1771595   1773856   1775986   1777945  
  7460.000000   1779727   1781332   1782782   1784105   1785357  
  7450.000000   1786606   1787936   1789411   1791071   1792899  
  7440.000000   1794842   1796822   1798774   1800668   1802517  
  7430.000000   1804364   1806270   1808279   1810418   1812685  
  7420.000000   1815077   1817583   1820199   1822907   1825664  
  7410.000000   1828396   1831011   1833422   1835589   1837531  
  7400.000000   1839343   1841143   1843046   1845105   1847302  
  7390.000000   1849560   1851786   1853924   1855979   1858040  
  7380.000000   1860221   1862637   1865322   1868238   1871266  
  7370.000000   1874256   1877070   1879616   1881868   1883850  
  7360.000000   1885614   1887214   1888703   1890118   1891500  
  7350.000000   1892894   1894353   1895934   1897675   1899601  
  7340.000000   1901701   1903958   1906334   1908794   1911289  
  7330.000000   1913766   1916162   1918411   1920462   1922286  
  7320.000000   1923897   1925341   1926684   1927997   1929338  
  7310.000000   1930743   1932223   1933777   1935385   1937035  
  7300.000000   1938695   1940338   1941918   1943396   1944743  
  7290.000000   1945960   1947077   1948143   1949215   1950327  
  7280.000000   1951481   1952647   1953782   1954855   1955870  
  7270.000000   1956874   1957944   1959164   1960588   1962220  
  7260.000000   1964012   1965873   1967700   1969403   1970938  
  7250.000000   1972290   1973495   1974595   1975650   1976700  
  7240.000000   1977789   1978937   1980178   1981530   1983026  
  7230.000000   1984677   1986501   1988481   1990599   1992806  
  7220.000000   1995064   1997322   1999566   2001795   2004059  
  7210.000000   2006418   2008958   2011738   2014801   2018124  
  7200.000000   2021659   2025312   2028999   2032642   2036208  
  7190.000000   2039680   2043084   2046438   2049776   2053111  
  7180.000000   2056468   2059853   2063292   2066796   2070389  
  7170.000000   2074065   2077824   2081638   2085493   2089361  
  7160.000000   2093244   2097136   2101056   2105011   2109034  
  7150.000000   2113149   2117416   2121885   2126630   2131680  
  7140.000000   2137047   2142667   2148462   2154310   2160140  
  7130.000000   2165893   2171595   2177279   2183024   2188861  
  7120.000000   2194816   2200857   2206965   2213115   2219336  
  7110.000000   2225672   2232195   2238940   2245915   2253057  
  7100.000000   2260286   2267497   2274634   2281665   2288626  
  7090.000000   2295559   2302524   2309544   2316635   2323784  
  7080.000000   2330993   2338265   2345628   2353103   2360709  
  7070.000000   2368435   2376255   2384127   2392017   2399895  
  7060.000000   2407751   2415572   2423346   2431049   2438661  
  7050.000000   2446169   2453589   2460957   2468325   2475739  
  7040.000000   2483220   2490761   2498322   2505865   2513351  
  7030.000000   2520779   2528156   2535508   2542838   2550140  
  7020.000000   2557371   2564493   2571461   2578264   2584901  
  7010.000000   2591395   2597756   2603997   2610099   2616061  
  7000.000000   2621868   2627545   2633114   2638631   2644126  
  6990.000000   2649637   2655158   2660681   2666161   2671557  
  6980.000000   2676803   2681849   2686638   2691149   2695380  
  6970.000000   2699388   2703248   2707073   2710943   2714923  
  6960.000000   2719001   2723138   2727247   2731261   2735120  
  6950.000000   2738821   2742368   2745788   2749084   2752250  
  6940.000000   2755256   2758090   2760746   2763259   2765671  
  6930.000000   2768043   2770408   2772800   2775214   2777659  
  6920.000000   2780125   2782621   2785128   2787625   2790050  
  6910.000000   2792336   2794412   2796244   2797837   2799252  
  6900.000000   2800568   2801873   2803218   2804629   2806089  
  6890.000000   2807579   2809078   2810588   2812109   2813638  
  6880.000000   2815143   2816579   2817886   2819033   2820030  
  6870.000000   2820935   2821836   2822817   2823919   2825127  
  6860.000000   2826370   2827559   2828607   2829485   2830210  
  6850.000000   2830858   2831515   2832266   2833149   2834165  
  6840.000000   2835266   2836382   2837425   2838319   2839008  
  6830.000000   2839478   2839754   2839905   2840026   2840219  
  6820.000000   2840561   2841081   2841750   2842495   2843220  
  6810.000000   2843846   2844322   2844645   2844843   2844965  
  6800.000000   2845056   2845156   2845296   2845503   2845799  
  6790.000000   2846198   2846684   2847211   2847694   2848043  
  6780.000000   2848184   2848103   2847847   2847522   2847242  
  6770.000000   2847092   2847080   2847145   2847175   2847060  
  6760.000000   2846736   2846216   2845576   2844928   2844372  
  6750.000000   2843965   2843711   2843577   2843517   2843494  
  6740.000000   2843494   2843512   2843542   2843566   2843558  
  6730.000000   2843496   2843377   2843228   2843098   2843038  
  6720.000000   2843077   2843206   2843378   2843528   2843589  
  6710.000000   2843526   2843328   2843013   2842606   2842135  
  6700.000000   2841616   2841066   2840499   2839939   2839401  
  6690.000000   2838892   2838389   2837851   2837219   2836449  
  6680.000000   2835520   2834458   2833311   2832150   2831027  
  6670.000000   2829979   2829009   2828108   2827258   2826453  
  6660.000000   2825679   2824924   2824152   2823313   2822345  
  6650.000000   2821205   2819879   2818404   2816848   2815299  
  6640.000000   2813827   2812472   2811230   2810067   2808928  
  6630.000000   2807766   2806542   2805238   2803847   2802376  
  6620.000000   2800842   2799279   2797730   2796247   2794868  
  6610.000000   2793612   2792454   2791343   2790206   2788982  
  6600.000000   2787632   2786157   2784581   2782938   2781248  
  6590.000000   2779510   2777710   2775833   2773888   2771913  
  6580.000000   2769965   2768111   2766394   2764829   2763394  
  6570.000000   2762052   2760759   2759486   2758216   2756938  
  6560.000000   2755641   2754296   2752877   2751359   2749749  
  6550.000000   2748076   2746403   2744794   2743300   2741944  
  6540.000000   2740713   2739577   2738502   2737467   2736464  
  6530.000000   2735498   2734569   2733662   2732747   2731787  
  6520.000000   2730753   2729635   2728446   2727211   2725961  
  6510.000000   2724715   2723478   2722243   2720999   2719742  
  6500.000000   2718478   2717223   2715994   2714807   2713672  
  6490.000000   2712593   2711568   2710594   2709658   2708741  
  6480.000000   2707812   2706840   2705800   2704690   2703533  
  6470.000000   2702372   2701261   2700239   2699320   2698486  
  6460.000000   2697699   2696916   2696110   2695277   2694435  
  6450.000000   2693608   2692814   2692051   2691303   2690544  
  6440.000000   2689761   2688949   2688128   2687317   2686539  
  6430.000000   2685797   2685086   2684394   2683718   2683063  
  6420.000000   2682451   2681901   2681428   2681023   2680666  
  6410.000000   2680324   2679973   2679604   2679229   2678872  
  6400.000000   2678565   2678327   2678169   2678084   2678059  
  6390.000000   2678074   2678111   2678146   2678158   2678119  
  6380.000000   2678009   2677813   2677531   2677176   2676770  
  6370.000000   2676340   2675901   2675468   2675044   2674636  
  6360.000000   2674252   2673906   2673606   2673353   2673124  
  6350.000000   2672888   2672602   2672234   2671765   2671204  
  6340.000000   2670572   2669906   2669233   2668574   2667931  
  6330.000000   2667303   2666677   2666045   2665390   2664696  
  6320.000000   2663937   2663094   2662152   2661123   2660037  
  6310.000000   2658952   2657919   2656985   2656153   2655402  
  6300.000000   2654670   2653895   2653013   2651991   2650815  
  6290.000000   2649501   2648069   2646551   2644972   2643361  
  6280.000000   2641740   2640142   2638582   2637077   2635618  
  6270.000000   2634193   2632772   2631334   2629860   2628348  
  6260.000000   2626797   2625211   2623583   2621904   2620161  
  6250.000000   2618353   2616487   2614589   2612687   2610812  
  6240.000000   2608977   2607185   2605424   2603684   2601954  
  6230.000000   2600232   2598515   2596797   2595067   2593304  
  6220.000000   2591495   2589633   2587733   2585822   2583932  
  6210.000000   2582087   2580294   2578544   2576815   2575091  
  6200.000000   2573371   2571670   2570013   2568424   2566910  
  6190.000000   2565459   2564043   2562627   2561189   2559717  
  6180.000000   2558222   2556717   2555217   2553731   2552259  
  6170.000000   2550796   2549345   2547908   2546496   2545115  
  6160.000000   2543765   2542438   2541120   2539801   2538478  
  6150.000000   2537161   2535867   2534613   2533411   2532256  
  6140.000000   2531135   2530024   2528904   2527756   2526574  
  6130.000000   2525356   2524111   2522851   2521597   2520373  
  6120.000000   2519206   2518113   2517105   2516175   2515306  
  6110.000000   2514471   2513656   2512852   2512072   2511330  
  6100.000000   2510644   2510013   2509427   2508855   2508280  
  6090.000000   2507684   2507084   2506507   2505995   2505580  
  6080.000000   2505283   2505102   2505028   2505040   2505130  
  6070.000000   2505284   2505502   2505765   2506058   2506348  
  6060.000000   2506620   2506859   2507085   2507319   2507608  
  6050.000000   2507976   2508450   2509026   2509703   2510467  
  6040.000000   2511325   2512278   2513342   2514513   2515787  
  6030.000000   2517135   2518537   2519970   2521440   2522955  
  6020.000000   2524542   2526206   2527949   2529740   2531550  
  6010.000000   2533338   2535099   2536836   2538583   2540372  
  6000.000000   2542235   2544179   2546202   2548279   2550398  
  5990.000000   2552535   2554691   2556856   2559037   2561231  
  5980.000000   2563452   2565712   2568051   2570502   2573109  
  5970.000000   2575887   2578838   2581920   2585089   2588287  
  5960.000000   2591489   2594679   2597884   2601126   2604441  
  5950.000000   2607839   2611324   2614880   2618501   2622180  
  5940.000000   2625929   2629764   2633697   2637728   2641841  
  5930.000000   2646007   2650184   2654334   2658416   2662398  
  5920.000000   2666247   2669932   2673431   2676734   2679846  
  5910.000000   2682791   2685604   2688324   2690980   2693600  
  5900.000000   2696194   2698785   2701386   2704034   2706751  
  5890.000000   2709567   2712477   2715469   2718497   2721519  
  5880.000000   2724484   2727361   2730124   2732758   2735246  
  5870.000000   2737572   2739719   2741682   2743476   2745139  
  5860.000000   2746727   2748305   2749927   2751631   2753431  
  5850.000000   2755325   2757301   2759348   2761457   2763624  
  5840.000000   2765846   2768120   2770442   2772809   2775226  
  5830.000000   2777691   2780205   2782751   2785305   2787827  
  5820.000000   2790285   2792659   2794956   2797208   2799454  
  5810.000000   2801736   2804063   2806431   2808795   2811125  
  5800.000000   2813377   2815557   2817657   2819707   2821694  
  5790.000000   2823617   2825418   2827054   2828452   2829572  
  5780.000000   2830360   2830796   2830841   2830486   2829712  
  5770.000000   2828551   2827046   2825299   2823411   2821506  
  5760.000000   2819659   2817927   2816306   2814786   2813332  
  5750.000000   2811939   2810602   2809343   2808170   2807084  
  5740.000000   2806071   2805102   2804155   2803213   2802283  
  5730.000000   2801374   2800502   2799674   2798890   2798141  
  5720.000000   2797426   2796744   2796108   2795520   2794982  
  5710.000000   2794477   2793984   2793473   2792935   2792371  
  5700.000000   2791804   2791264   2790774   2790347   2789975  
  5690.000000   2789647   2789346   2789069   2788810   2788573  
  5680.000000   2788342   2788098   2787796   2787398   2786856  
  5670.000000   2786150   2785260   2784185   2782917   2781457  
  5660.000000   2779798   2777953   2775943   2773822   2771650  
  5650.000000   2769497   2767411   2765421   2763524   2761702  
  5640.000000   2759927   2758178   2756442   2754715   2753001  
  5630.000000   2751304   2749633   2748001   2746436   2744960  
  5620.000000   2743601   2742361   2741227   2740157   2739106  
  5610.000000   2738028   2736911   2735769   2734648   2733595  
  5600.000000   2732651   2731823   2731091   2730409   2729731  
  5590.000000   2729021   2728262   2727456   2726612   2725737  
  5580.000000   2724827   2723877   2722879   2721835   2720755  
  5570.000000   2719653   2718543   2717432   2716319   2715200  
  5560.000000   2714071   2712939   2711812   2710701   2709605  
  5550.000000   2708519   2707424   2706304   2705151   2703972  
  5540.000000   2702785   2701612   2700466   2699349   2698248  
  5530.000000   2697146   2696029   2694898   2693761   2692634  
  5520.000000   2691530   2690452   2689391   2688336   2687271  
  5510.000000   2686191   2685092   2683978   2682844   2681688  
  5500.000000   2680502   2679289   2678054   2676819   2675600  
  5490.000000   2674406   2673224   2672027   2670770   2669426  
  5480.000000   2667978   2666443   2664852   2663250   2661664  
  5470.000000   2660105   2658559   2657002   2655405   2653755  
  5460.000000   2652042   2650267   2648420   2646494   2644475  
  5450.000000   2642361   2640169   2637940   2635728   2633587  
  5440.000000   2631551   2629625   2627793   2626025   2624299  
  5430.000000   2622600   2620933   2619295   2617690   2616100  
  5420.000000   2614518   2612938   2611388   2609906   2608559  
  5410.000000   2607383   2606402   2605584   2604891   2604264  
  5400.000000   2603682   2603138   2602675   2602324   2602132  
  5390.000000   2602096   2602213   2602440   2602766   2603175  
  5380.000000   2603698   2604352   2605179   2606171   2607332  
  5370.000000   2608614   2610011   2611481   2613048   2614698  
  5360.000000   2616480   2618389   2620482   2622762   2625307  
  5350.000000   2628142   2631362   2634979   2639059   2643558  
  5340.000000   2648498   2653808   2659519   2665584   2672067  
  5330.000000   2678930   2686231   2693906   2701998   2710442  
  5320.000000   2719319   2728616   2738470   2748896   2760033  
  5310.000000   2771856   2784451   2797739   2811776   2826487  
  5300.000000   2841952   2858130   2875140   2892963   2911719  
  5290.000000   2931368   2951971   2973415   2995672   3018573  
  5280.000000   3042072   3066053   3090570   3115630   3141372  
  5270.000000   3167824   3195026   3222851   3251133   3279627  
  5260.000000   3308141   3336558   3364872   3393160   3421491  
  5250.000000   3449900   3478276   3506461   3534171   3561227  
  5240.000000   3587438   3612831   3637417   3661381   3684778  
  5230.000000   3707744   3730204   3752150   3773386   3793859  
  5220.000000   3813413   3832102   3849900   3866981   3883383  
  5210.000000   3899277   3914623   3929468   3943640   3957101  
  5200.000000   3969672   3981388   3992188   4002220   4011493  
  5190.000000   4020154   4028162   4035590   4042346   4048486  
  5180.000000   4053947   4058829   4063103   4066866   4070057  
  5170.000000   4072717   4074750   4076189   4076975   4077195  
  5160.000000   4076844   4076030   4074747   4073070   4070965  
  5150.000000   4068490   4065618   4062420   4058880   4055057  
  5140.000000   4050921   4046505   4041774   4036774   4031507  
  5130.000000   4026045   4020412   4014670   4008815   4002867  
  5120.000000   3996802   3990636   3984368   3978038   3971669  
  5110.000000   3965293   3958909   3952512   3946075   3939592  
  5100.000000   3933059   3926509   3919979   3913520   3907165  
  5090.000000   3900938   3894836   3888850   3882955   3877132  
  5080.000000   3871350   3865587   3859807   3853984   3848087  
  5070.000000   3842102   3836019   3829848   3823596   3817278  
  5060.000000   3810895   3804453   3797948   3791386   3784770  
  5050.000000   3778117   3771432   3764724   3757984   3751205  
  5040.000000   3744371   3737482   3730543   3723577   3716612  
  5030.000000   3709677   3702799   3695993   3689276   3682651  
  5020.000000   3676134   3669729   3663452   3657295   3651263  
  5010.000000   3645331   3639500   3633751   3628106   3622569  
  5000.000000   3617191   3611986   3607007   3602248   3597742  
  4990.000000   3593465   3589446   3585664   3582159   3578922  
  4980.000000   3576001   3573384   3571117   3569175   3567601  
  4970.000000   3566364   3565499   3564967   3564793   3564925  
  4960.000000   3565387   3566135   3567215   3568609   3570389  
  4950.000000   3572550   3575157   3578178   3581647   3585502  
  4940.000000   3589758   3594352   3599306   3604572   3610183  
  4930.000000   3616096   3622345   3628889   3635771   3642966  
  4920.000000   3650528   3658441   3666749   3675419   3684466  
  4910.000000   3693838   3703533   3713502   3723748   3734236  
  4900.000000   3744960   3755884   3766977   3778191   3789483  
  4890.000000   3800812   3812138   3823432   3834644   3845740  
  4880.000000   3856643   3867309   3877648   3887626   3897165  
  4870.000000   3906258   3914846   3922940   3930489   3937519  
  4860.000000   3943991   3949947   3955365   3960305   3964759  
  4850.000000   3968795   3972414   3975687   3978622   3981296  
  4840.000000   3983717   3985953   3988008   3989936   3991741  
  4830.000000   3993474   3995149   3996815   3998482   4000178  
  4820.000000   4001887   4003599   4005278   4006906   4008465  
  4810.000000   4009965   4011424   4012875   4014346   4015860  
  4800.000000   4017426   4019041   4020698   4022387   4024102  
  4790.000000   4025838   4027594   4029368   4031157   4032961  
  4780.000000   4034779   4036613   4038462   4040323   4042182  
  4770.000000   4044019   4045808   4047527   4049158   4050701  
  4760.000000   4052165   4053574   4054944   4056292   4057617  
  4750.000000   4058914   4060160   4061341   4062434   4063435  
  4740.000000   4064333   4065136   4065841   4066459   4066988  
  4730.000000   4067434   4067795   4068073   4068267   4068378  
  4720.000000   4068408   4068364   4068253   4068089   4067892  
  4710.000000   4067681   4067484   4067327   4067241   4067251  
  4700.000000   4067384   4067655   4068073   4068633   4069330  
  4690.000000   4070148   4071079   4072111   4073245   4074468  
  4680.000000   4075775   4077132   4078510   4079853   4081127  
  4670.000000   4082290   4083343   4084291   4085181   4086053  
  4660.000000   4086970   4087975   4089116   4090422   4091927  
  4650.000000   4093651   4095612   4097811   4100235   4102853  
  4640.000000   4105620   4108484   4111390   4114297   4117170  
  4630.000000   4119987   4122723   4125359   4127864   4130211  
  4620.000000   4132361   4134287   4135957   4137363   4138489  
  4610.000000   4139355   4139970   4140385   4140632   4140780  
  4600.000000   4140864   4140939   4141003   4141068   4141086  
  4590.000000   4141038   4140862   4140541   4140034   4139343  
  4580.000000   4138448   4137359   4136063   4134570   4132875  
  4570.000000   4131003   4128967   4126809   4124553   4122242  
  4560.000000   4119891   4117528   4115149   4112766   4110365  
  4550.000000   4107944   4105485   4102978   4100405   4097763  
  4540.000000   4095054   4092299   4089533   4086793   4084121  
  4530.000000   4081538   4079059   4076667   4074352   4072079  
  4520.000000   4069852   4067651   4065514   4063440   4061490  
  4510.000000   4059671   4058059   4056665   4055590   4054856  
  4500.000000   4054581   4054785   4055577   4056946   4058980  
  4490.000000   4061644   4065022   4069081   4073916   4079497  
  4480.000000   4085911   4093109   4101148   4109950   4119548  
  4470.000000   4129854   4140893   4152577   4164925   4177841  
  4460.000000   4191322   4205256   4219615   4234282   4249217  
  4450.000000   4264317   4279553   4294860   4310238   4325670  
  4440.000000   4341175   4356759   4372421   4388153   4403904  
  4430.000000   4419639   4435269   4450755   4465999   4480980  
  4420.000000   4495597   4509838   4523594   4536842   4549459  
  4410.000000   4561413   4572576   4582924   4592346   4600855  
  4400.000000   4608393   4615037   4620802   4625832   4630197  
  4390.000000   4634070   4637528   4640720   4643692   4646543  
  4380.000000   4649286   4651986   4654651   4657339   4660073  
  4370.000000   4662916   4665905   4669093   4672507   4676174  
  4360.000000   4680097   4684280   4688700   4693349   4698178  
  4350.000000   4703174   4708265   4713439   4718622   4723820  
  4340.000000   4728967   4734060   4738988   4743634   4747734  
  4330.000000   4750988   4752997   4753412   4751957   4748563  
  4320.000000   4743372   4736780   4729325   4721645   4714302  
  4310.000000   4707752   4702232   4697823   4694432   4691909  
  4300.000000   4690063   4688741   4687831   4687256   4686989  
  4290.000000   4686993   4687275   4687809   4688614   4689673  
  4280.000000   4690993   4692549   4694310   4696231   4698251  
  4270.000000   4700324   4702380   4704358   4706139   4707582  
  4260.000000   4708476   4708604   4707740   4705746   4702570  
  4250.000000   4698318   4693190   4687507   4681582   4675740  
  4240.000000   4670193   4665103   4660493   4656350   4652582  
  4230.000000   4649103   4645804   4642599   4639416   4636192  
  4220.000000   4632908   4629542   4626138   4622728   4619414  
  4210.000000   4616264   4613391   4610851   4608720   4607002  
  4200.000000   4605715   4604808   4604255   4603982   4603957  
  4190.000000   4604113   4604444   4604901   4605507   4606223  
  4180.000000   4607077   4608027   4609105   4610279   4611612  
  4170.000000   4613117   4614903   4617019   4619589   4622645  
  4160.000000   4626267   4630427   4635149   4640362   4646075  
  4150.000000   4652218   4658815   4665812   4673250   4681082  
  4140.000000   4689362   4698050   4707209   4716807   4726906  
  4130.000000   4737458   4748500   4759967   4771877   4784171  
  4120.000000   4796885   4809993   4823564   4837597   4852167  
  4110.000000   4867267   4882943   4899158   4915912   4933129  
  4100.000000   4950768   4968731   4986961   5005377   5023944  
  4090.000000   5042631   5061435   5080355   5099387   5118528  
  4080.000000   5137744   5157018   5176288   5195530   5214655  
  4070.000000   5233622   5252307   5270652   5288523   5305892  
  4060.000000   5322665   5338877   5354474   5369521   5383965  
  4050.000000   5397872   5411174   5423949   5436135   5447817  
  4040.000000   5458913   5469479   5479389   5488667   5497186  
  4030.000000   5504996   5512011   5518308   5523820   5528599  
  4020.000000   5532527   5535648   5537915   5539402   5540055  
  4010.000000   5540026   5539404   5538219   5536244   5533549  
  4000.000000   5530493  
##END= 
