##TITLE= Sample 029 By ssteindl date Dienstag, November 20 2018
##JCAMP-DX= 4.24
##DATA TYPE= INFRARED SPECTRUM
##ORIGIN= Exported PE Spectrum Data File
##OWNER= Sandra Steindl
##DATE= 18/11/20
##TIME= 16:38:53.00
##SPECTROMETER/DATA SYSTEM= PERKIN-ELMER Frontier FT-IR/NIR IR
##INSTRUMENT PARAMETERS=
  APODIZATION=stark
  DETECTOR=INGAAS
##RESOLUTION= 16.000000
##DELTAX= -2.000000
##XUNITS= 1/CM
##YUNITS= A
##XFACTOR= 1.00
##YFACTOR= 0.00000011920928955078
##FIRSTX= 10000.00
##LASTX= 4000.00
##NPOINTS= 3001
##FIRSTY= 0.224465
##MAXY= 0.676412
##MINY= 0.182807
##XYDATA= (X++(Y..Y))
 10000.000000   1882950   1882726   1882615   1882451   1881719  
  9990.000000   1880200   1878456   1877673   1878763   1882032  
  9980.000000   1886977   1892569   1897542   1900929   1902457  
  9970.000000   1902450   1901526   1900036   1897871   1894365  
  9960.000000   1888772   1880717   1870685   1860063   1850748  
  9950.000000   1844541   1842418   1844337   1849263   1855764  
  9940.000000   1862495   1868647   1873963   1878499   1882275  
  9930.000000   1885043   1886358   1885827   1883488   1879939  
  9920.000000   1876275   1873648   1872798   1873698   1875512  
  9910.000000   1876988   1876896   1874601   1870172   1864339  
  9900.000000   1858049   1852118   1846969   1842669   1839110  
  9890.000000   1836227   1834068   1832731   1832193   1832188  
  9880.000000   1832244   1831856   1830761   1829060   1827232  
  9870.000000   1825830   1825231   1825346   1825698   1825634  
  9860.000000   1824702   1822947   1820913   1819479   1819403  
  9850.000000   1821003   1823953   1827409   1830367   1832003  
  9840.000000   1831980   1830379   1827559   1823839   1819381  
  9830.000000   1814214   1808464   1802553   1797284   1793645  
  9820.000000   1792468   1794061   1797969   1803122   1808073  
  9810.000000   1811590   1812975   1812352   1810541   1808701  
  9800.000000   1807922   1808761   1811154   1814377   1817386  
  9790.000000   1819061   1818594   1815646   1810466   1803835  
  9780.000000   1796866   1790798   1786659   1785066   1786060  
  9770.000000   1789119   1793329   1797636   1801125   1803253  
  9760.000000   1803898   1803358   1802161   1800923   1800191  
  9750.000000   1800341   1801561   1803797   1806780   1810015  
  9740.000000   1812869   1814700   1815009   1813631   1810754  
  9730.000000   1806933   1802852   1799179   1796318   1794386  
  9720.000000   1793231   1792603   1792266   1792101   1792013  
  9710.000000   1791880   1791414   1790229   1787957   1784466  
  9700.000000   1780009   1775204   1770870   1767691   1765973  
  9690.000000   1765491   1765620   1765590   1764821   1763134  
  9680.000000   1760768   1758221   1755983   1754341   1753305  
  9670.000000   1752695   1752329   1752119   1752142   1752472  
  9660.000000   1753109   1753812   1754201   1753853   1752535  
  9650.000000   1750314   1747566   1744848   1742687   1741429  
  9640.000000   1741162   1741819   1743244   1745342   1747994  
  9630.000000   1751025   1754057   1756527   1757806   1757404  
  9620.000000   1755209   1751548   1747116   1742697   1738882  
  9610.000000   1735848   1733373   1731031   1728475   1725674  
  9600.000000   1722946   1720812   1719695   1719688   1720447  
  9590.000000   1721345   1721752   1721338   1720220   1718909  
  9580.000000   1718060   1718189   1719452   1721620   1724211  
  9570.000000   1726683   1728635   1729825   1730169   1729579  
  9560.000000   1727971   1725227   1721370   1716634   1711544  
  9550.000000   1706803   1703100   1700899   1700274   1700963  
  9540.000000   1702475   1704358   1706312   1708288   1710355  
  9530.000000   1712583   1714869   1716934   1718389   1718919  
  9520.000000   1718455   1717215   1715656   1714244   1713279  
  9510.000000   1712740   1712310   1711518   1709924   1707325  
  9500.000000   1703781   1699653   1695394   1691517   1688374  
  9490.000000   1686222   1685132   1685092   1685973   1687525  
  9480.000000   1689352   1690892   1691521   1690624   1687832  
  9470.000000   1683084   1676799   1669736   1662914   1657292  
  9460.000000   1653544   1651888   1652044   1653424   1655313  
  9450.000000   1657182   1658777   1660191   1661678   1663472  
  9440.000000   1665583   1667679   1669238   1669648   1668589  
  9430.000000   1666034   1662385   1658211   1654119   1650521  
  9420.000000   1647562   1645196   1643287   1641854   1641062  
  9410.000000   1641270   1642751   1645606   1649560   1654066  
  9400.000000   1658412   1661939   1664216   1665056   1664524  
  9390.000000   1662747   1659896   1656087   1651505   1646427  
  9380.000000   1641288   1636599   1632811   1630180   1628655  
  9370.000000   1627964   1627701   1627580   1627481   1627530  
  9360.000000   1627920   1628806   1630170   1631806   1633453  
  9350.000000   1634882   1636039   1636983   1637802   1638451  
  9340.000000   1638678   1638085   1636325   1633358   1629593  
  9330.000000   1625823   1622937   1621544   1621671   1622738  
  9320.000000   1623755   1623713   1621991   1618626   1614322  
  9310.000000   1610143   1607084   1605703   1605985   1607433  
  9300.000000   1609359   1611163   1612557   1613562   1614383  
  9290.000000   1615215   1616086   1616873   1617385   1617529  
  9280.000000   1617401   1617250   1617375   1617928   1618833  
  9270.000000   1619788   1620377   1620231   1619135   1617118  
  9260.000000   1614425   1611447   1608579   1606167   1604419  
  9250.000000   1603449   1603219   1603609   1604379   1605252  
  9240.000000   1605948   1606272   1606134   1605559   1604634  
  9230.000000   1603422   1601935   1600091   1597836   1595166  
  9220.000000   1592249   1589379   1586923   1585161   1584178  
  9210.000000   1583836   1583841   1583886   1583790   1583580  
  9200.000000   1583468   1583718   1584495   1585765   1587308  
  9190.000000   1588816   1590042   1590899   1591488   1591999  
  9180.000000   1592599   1593301   1593962   1594313   1594105  
  9170.000000   1593219   1591734   1589883   1587949   1586181  
  9160.000000   1584730   1583673   1583026   1582810   1583038  
  9150.000000   1583713   1584749   1585956   1587047   1587745  
  9140.000000   1587872   1587444   1586645   1585783   1585160  
  9130.000000   1584961   1585183   1585666   1586159   1586431  
  9120.000000   1586303   1585679   1584529   1582870   1580767  
  9110.000000   1578321   1575693   1573068   1570645   1568555  
  9100.000000   1566816   1565338   1563962   1562592   1561251  
  9090.000000   1560135   1559540   1559753   1560935   1562975  
  9080.000000   1565517   1568004   1569871   1570640   1570069  
  9070.000000   1568189   1565346   1562093   1559099   1557016  
  9060.000000   1556350   1557331   1559776   1563136   1566567  
  9050.000000   1569207   1570390   1569922   1568131   1565764  
  9040.000000   1563685   1562538   1562523   1563284   1564112  
  9030.000000   1564200   1563032   1560546   1557138   1553488  
  9020.000000   1550263   1547930   1546624   1546252   1546630  
  9010.000000   1547620   1549169   1551238   1553683   1556171  
  9000.000000   1558218   1559348   1559332   1558284   1556685  
  8990.000000   1555158   1554258   1554194   1554777   1555507  
  8980.000000   1555842   1555454   1554395   1553064   1552016  
  8970.000000   1551708   1552288   1553566   1555121   1556519  
  8960.000000   1557493   1558037   1558338   1558675   1559227  
  8950.000000   1560044   1561004   1561961   1562800   1563481  
  8940.000000   1564001   1564301   1564253   1563609   1562122  
  8930.000000   1559640   1556231   1552188   1547958   1544046  
  8920.000000   1540883   1538773   1537824   1538056   1539384  
  8910.000000   1541693   1544733   1548159   1551519   1554317  
  8900.000000   1556134   1556722   1556144   1554649   1552642  
  8890.000000   1550438   1548272   1546158   1544029   1541781  
  8880.000000   1539441   1537178   1535259   1533970   1533493  
  8870.000000   1533887   1535072   1536936   1539399   1542423  
  8860.000000   1545977   1549949   1554121   1558146   1561638  
  8850.000000   1564283   1565974   1566850   1567259   1567614  
  8840.000000   1568231   1569218   1570437   1571596   1572353  
  8830.000000   1572464   1571846   1570601   1568959   1567193  
  8820.000000   1565527   1564105   1562967   1562106   1561490  
  8810.000000   1561119   1561040   1561367   1562251   1563835  
  8800.000000   1566167   1569151   1572518   1575846   1578669  
  8790.000000   1580585   1581429   1581306   1580596   1579799  
  8780.000000   1579364   1579526   1580227   1581175   1581989  
  8770.000000   1582386   1582310   1581954   1581657   1581737  
  8760.000000   1582325   1583313   1584399   1585251   1585666  
  8750.000000   1585671   1585521   1585583   1586189   1587496  
  8740.000000   1589423   1591703   1593992   1595996   1597566  
  8730.000000   1598689   1599468   1600032   1600503   1600958  
  8720.000000   1601454   1602023   1602708   1603524   1604469  
  8710.000000   1605488   1606501   1607437   1608258   1609003  
  8700.000000   1609756   1610637   1611754   1613165   1614889  
  8690.000000   1616884   1619085   1621390   1623668   1625744  
  8680.000000   1627420   1628518   1628956   1628827   1628418  
  8670.000000   1628156   1628473   1629655   1631719   1634389  
  8660.000000   1637189   1639595   1641246   1642031   1642130  
  8650.000000   1641880   1641645   1641655   1641979   1642554  
  8640.000000   1643325   1644315   1645676   1647607   1650253  
  8630.000000   1653580   1657333   1661099   1664461   1667144  
  8620.000000   1669139   1670655   1672046   1673615   1675517  
  8610.000000   1677696   1679950   1682063   1683913   1685550  
  8600.000000   1687139   1688897   1690952   1693309   1695816  
  8590.000000   1698263   1700456   1702286   1703746   1704882  
  8580.000000   1705747   1706353   1706673   1706706   1706506  
  8570.000000   1706252   1706172   1706532   1707487   1709086  
  8560.000000   1711208   1713648   1716157   1718508   1720525  
  8550.000000   1722056   1722978   1723154   1722514   1721060  
  8540.000000   1718974   1716598   1714413   1712918   1712481  
  8530.000000   1713257   1715130   1717804   1720877   1724009  
  8520.000000   1726982   1729724   1732270   1734637   1736808  
  8510.000000   1738655   1740050   1740867   1741127   1740968  
  8500.000000   1740675   1740571   1740934   1741942   1743632  
  8490.000000   1745937   1748695   1751726   1754838   1757860  
  8480.000000   1760628   1763013   1764931   1766369   1767393  
  8470.000000   1768143   1768805   1769556   1770506   1771686  
  8460.000000   1773041   1774469   1775842   1777061   1778053  
  8450.000000   1778790   1779241   1779397   1779261   1778883  
  8440.000000   1778366   1777870   1777590   1777698   1778291  
  8430.000000   1779349   1780745   1782270   1783704   1784878  
  8420.000000   1785728   1786301   1786725   1787167   1787769  
  8410.000000   1788642   1789840   1791374   1793207   1795278  
  8400.000000   1797494   1799728   1801797   1803505   1804664  
  8390.000000   1805152   1804930   1804079   1802781   1801299  
  8380.000000   1799903   1798826   1798200   1798054   1798284  
  8370.000000   1798709   1799088   1799209   1798935   1798243  
  8360.000000   1797230   1796091   1795071   1794387   1794167  
  8350.000000   1794413   1795015   1795797   1796578   1797249  
  8340.000000   1797788   1798268   1798788   1799419   1800147  
  8330.000000   1800859   1801376   1801510   1801155   1800313  
  8320.000000   1799110   1797746   1796430   1795320   1794478  
  8310.000000   1793882   1793454   1793113   1792808   1792523  
  8300.000000   1792258   1792005   1791734   1791401   1790982  
  8290.000000   1790497   1790036   1789736   1789746   1790167  
  8280.000000   1791002   1792154   1793441   1794668   1795667  
  8270.000000   1796355   1796715   1796790   1796632   1796275  
  8260.000000   1795724   1794959   1793973   1792782   1791427  
  8250.000000   1789960   1788405   1786776   1785066   1783318  
  8240.000000   1781615   1780122   1779016   1778455   1778481  
  8230.000000   1778986   1779690   1780223   1780224   1779460  
  8220.000000   1777897   1775702   1773185   1770694   1768512  
  8210.000000   1766786   1765506   1764536   1763684   1762772  
  8200.000000   1761676   1760349   1758794   1757075   1755276  
  8190.000000   1753513   1751910   1750575   1749576   1748900  
  8180.000000   1748448   1748045   1747485   1746596   1745293  
  8170.000000   1743616   1741719   1739823   1738150   1736838  
  8160.000000   1735918   1735294   1734798   1734236   1733450  
  8150.000000   1732358   1730968   1729383   1727758   1726285  
  8140.000000   1725125   1724391   1724096   1724157   1724397  
  8130.000000   1724585   1724491   1723939   1722851   1721250  
  8120.000000   1719250   1717002   1714669   1712378   1710233  
  8110.000000   1708307   1706662   1705351   1704393   1703773  
  8100.000000   1703402   1703152   1702862   1702414   1701759  
  8090.000000   1700947   1700103   1699359   1698796   1698387  
  8080.000000   1698012   1697484   1696644   1695411   1693829  
  8070.000000   1692040   1690231   1688561   1687108   1685863  
  8060.000000   1684747   1683678   1682604   1681543   1680556  
  8050.000000   1679720   1679077   1678612   1678247   1677863  
  8040.000000   1677343   1676593   1675573   1674286   1672785  
  8030.000000   1671145   1669464   1667838   1666358   1665084  
  8020.000000   1664040   1663196   1662486   1661825   1661146  
  8010.000000   1660424   1659687   1659005   1658455   1658093  
  8000.000000   1657929   1657926   1658027   1658172   1658331  
  7990.000000   1658491   1658648   1658778   1658823   1658691  
  7980.000000   1658295   1657575   1656547   1655292   1653946  
  7970.000000   1652646   1651494   1650529   1649731   1649059  
  7960.000000   1648479   1648002   1647676   1647571   1647732  
  7950.000000   1648147   1648732   1649345   1649826   1650040  
  7940.000000   1649924   1649486   1648820   1648051   1647315  
  7930.000000   1646715   1646295   1646045   1645903   1645794  
  7920.000000   1645648   1645437   1645187   1644959   1644833  
  7910.000000   1644855   1645012   1645212   1645313   1645165  
  7900.000000   1644684   1643894   1642944   1642077   1641543  
  7890.000000   1641534   1642093   1643115   1644361   1645546  
  7880.000000   1646415   1646810   1646699   1646149   1645290  
  7870.000000   1644252   1643141   1642025   1640958   1640000  
  7860.000000   1639222   1638701   1638482   1638567   1638879  
  7850.000000   1639307   1639714   1639996   1640111   1640073  
  7840.000000   1639945   1639782   1639611   1639403   1639098  
  7830.000000   1638632   1637986   1637207   1636406   1635732  
  7820.000000   1635315   1635227   1635437   1635839   1636261  
  7810.000000   1636542   1636559   1636280   1635751   1635082  
  7800.000000   1634390   1633772   1633261   1632836   1632428  
  7790.000000   1631957   1631362   1630608   1629691   1628625  
  7780.000000   1627424   1626103   1624682   1623196   1621715  
  7770.000000   1620336   1619169   1618306   1617788   1617594  
  7760.000000   1617635   1617798   1617975   1618098   1618159  
  7750.000000   1618185   1618222   1618276   1618313   1618238  
  7740.000000   1617947   1617355   1616456   1615327   1614128  
  7730.000000   1613059   1612303   1611983   1612115   1612626  
  7720.000000   1613362   1614138   1614784   1615174   1615249  
  7710.000000   1615011   1614509   1613817   1613012   1612157  
  7700.000000   1611305   1610493   1609756   1609129   1608646  
  7690.000000   1608335   1608198   1608210   1608305   1608394  
  7680.000000   1608387   1608214   1607855   1607339   1606740  
  7670.000000   1606148   1605642   1605268   1605035   1604919  
  7660.000000   1604885   1604910   1604980   1605098   1605263  
  7650.000000   1605460   1605654   1605792   1605829   1605724  
  7640.000000   1605475   1605091   1604607   1604050   1603448  
  7630.000000   1602828   1602223   1601692   1601309   1601162  
  7620.000000   1601323   1601824   1602643   1603696   1604855  
  7610.000000   1605969   1606907   1607566   1607910   1607952  
  7600.000000   1607764   1607450   1607138   1606950   1606993  
  7590.000000   1607329   1607971   1608868   1609925   1611018  
  7580.000000   1612023   1612847   1613440   1613801   1613980  
  7570.000000   1614050   1614112   1614260   1614580   1615123  
  7560.000000   1615906   1616899   1618037   1619230   1620395  
  7550.000000   1621476   1622464   1623394   1624332   1625328  
  7540.000000   1626407   1627536   1628661   1629710   1630653  
  7530.000000   1631501   1632325   1633215   1634247   1635448  
  7520.000000   1636792   1638211   1639638   1641034   1642416  
  7510.000000   1643835   1645357   1647010   1648782   1650607  
  7500.000000   1652411   1654128   1655751   1657312   1658882  
  7490.000000   1660518   1662255   1664079   1665958   1667852  
  7480.000000   1669755   1671686   1673692   1675806   1678035  
  7470.000000   1680338   1682648   1684895   1687041   1689094  
  7460.000000   1691108   1693155   1695299   1697567   1699947  
  7450.000000   1702392   1704853   1707286   1709680   1712035  
  7440.000000   1714376   1716718   1719076   1721453   1723853  
  7430.000000   1726275   1728724   1731203   1733712   1736254  
  7420.000000   1738834   1741467   1744172   1746962   1749834  
  7410.000000   1752752   1755649   1758435   1761026   1763370  
  7400.000000   1765476   1767413   1769289   1771231   1773346  
  7390.000000   1775705   1778322   1781174   1784204   1787340  
  7380.000000   1790495   1793573   1796481   1799138   1801496  
  7370.000000   1803557   1805388   1807102   1808839   1810725  
  7360.000000   1812836   1815189   1817729   1820373   1823026  
  7350.000000   1825625   1828136   1830565   1832930   1835252  
  7340.000000   1837537   1839778   1841959   1844065   1846086  
  7330.000000   1848022   1849870   1851642   1853353   1855046  
  7320.000000   1856771   1858602   1860596   1862787   1865146  
  7310.000000   1867589   1869980   1872179   1874070   1875609  
  7300.000000   1876833   1877852   1878807   1879838   1881030  
  7290.000000   1882405   1883911   1885456   1886929   1888239  
  7280.000000   1889339   1890237   1890983   1891663   1892367  
  7270.000000   1893174   1894138   1895270   1896558   1897964  
  7260.000000   1899456   1900998   1902579   1904183   1905812  
  7250.000000   1907450   1909093   1910725   1912360   1914011  
  7240.000000   1915731   1917562   1919557   1921726   1924072  
  7230.000000   1926556   1929150   1931820   1934566   1937387  
  7220.000000   1940306   1943317   1946416   1949568   1952762  
  7210.000000   1955981   1959258   1962616   1966106   1969727  
  7200.000000   1973469   1977270   1981083   1984868   1988655  
  7190.000000   1992507   1996538   2000836   2005461   2010379  
  7180.000000   2015507   2020704   2025858   2030878   2035760  
  7170.000000   2040526   2045261   2050022   2054873   2059826  
  7160.000000   2064903   2070100   2075446   2080962   2086692  
  7150.000000   2092653   2098859   2105281   2111888   2118619  
  7140.000000   2125441   2132305   2139210   2146137   2153114  
  7130.000000   2160138   2167239   2174413   2181673   2188997  
  7120.000000   2196381   2203799   2211262   2218786   2226425  
  7110.000000   2234231   2242259   2250518   2258990   2267601  
  7100.000000   2276272   2284914   2293491   2301994   2310471  
  7090.000000   2318969   2327544   2336204   2344946   2353730  
  7080.000000   2362530   2371320   2380104   2388889   2397691  
  7070.000000   2406515   2415361   2424222   2433098   2441989  
  7060.000000   2450901   2459822   2468731   2477583   2486343  
  7050.000000   2494990   2503547   2512073   2520652   2529362  
  7040.000000   2538240   2547270   2556380   2565476   2574461  
  7030.000000   2583282   2591918   2600402   2608772   2617077  
  7020.000000   2625331   2633544   2641691   2649753   2657688  
  7010.000000   2665469   2673050   2680405   2687503   2694358  
  7000.000000   2700991   2707467   2713834   2720146   2726399  
  6990.000000   2732584   2738646   2744570   2750341   2756014  
  6980.000000   2761634   2767272   2772938   2778620   2784241  
  6970.000000   2789730   2795012   2800061   2804869   2809465  
  6960.000000   2813864   2818085   2822124   2826000   2829738  
  6950.000000   2833413   2837098   2840872   2844755   2848728  
  6940.000000   2852696   2856561   2860217   2863624   2866777  
  6930.000000   2869740   2872580   2875373   2878153   2880938  
  6920.000000   2883705   2886433   2889077   2891600   2893950  
  6910.000000   2896087   2897978   2899631   2901089   2902446  
  6900.000000   2903803   2905262   2906868   2908618   2910446  
  6890.000000   2912277   2914036   2915704   2917300   2918886  
  6880.000000   2920519   2922238   2924037   2925883   2927723  
  6870.000000   2929512   2931218   2932826   2934325   2935703  
  6860.000000   2936938   2938018   2938944   2939751   2940496  
  6850.000000   2941249   2942064   2942970   2943948   2944966  
  6840.000000   2945975   2946952   2947890   2948811   2949734  
  6830.000000   2950673   2951607   2952504   2953315   2954010  
  6820.000000   2954573   2955023   2955388   2955711   2956021  
  6810.000000   2956341   2956672   2957015   2957353   2957670  
  6800.000000   2957937   2958130   2958220   2958197   2958062  
  6790.000000   2957842   2957571   2957290   2957023   2956781  
  6780.000000   2956549   2956307   2956029   2955704   2955325  
  6770.000000   2954905   2954452   2953984   2953509   2953044  
  6760.000000   2952597   2952177   2951780   2951392   2950978  
  6750.000000   2950500   2949921   2949229   2948435   2947581  
  6740.000000   2946712   2945872   2945078   2944320   2943565  
  6730.000000   2942779   2941933   2941027   2940072   2939096  
  6720.000000   2938115   2937142   2936176   2935218   2934271  
  6710.000000   2933348   2932460   2931614   2930797   2929981  
  6700.000000   2929125   2928195   2927169   2926051   2924857  
  6690.000000   2923614   2922340   2921050   2919746   2918438  
  6680.000000   2917138   2915868   2914642   2913463   2912304  
  6670.000000   2911120   2909851   2908452   2906899   2905209  
  6660.000000   2903424   2901605   2899803   2898061   2896397  
  6650.000000   2894818   2893319   2891895   2890528   2889193  
  6640.000000   2887847   2886445   2884944   2883329   2881611  
  6630.000000   2879838   2878066   2876344   2874690   2873087  
  6620.000000   2871480   2869812   2868028   2866107   2864058  
  6610.000000   2861916   2859721   2857515   2855322   2853164  
  6600.000000   2851050   2848991   2846996   2845072   2843216  
  6590.000000   2841423   2839680   2837976   2836300   2834643  
  6580.000000   2832993   2831329   2829626   2827856   2826010  
  6570.000000   2824094   2822148   2820223   2818373   2816635  
  6560.000000   2815020   2813511   2812079   2810697   2809353  
  6550.000000   2808052   2806807   2805620   2804473   2803330  
  6540.000000   2802146   2800883   2799531   2798106   2796647  
  6530.000000   2795195   2793784   2792427   2791121   2789857  
  6520.000000   2788631   2787445   2786303   2785207   2784142  
  6510.000000   2783083   2782002   2780880   2779717   2778534  
  6500.000000   2777364   2776231   2775146   2774092   2773043  
  6490.000000   2771967   2770852   2769701   2768539   2767394  
  6480.000000   2766290   2765238   2764244   2763304   2762424  
  6470.000000   2761608   2760861   2760172   2759518   2758860  
  6460.000000   2758165   2757414   2756619   2755820   2755072  
  6450.000000   2754422   2753890   2753460   2753086   2752705  
  6440.000000   2752262   2751721   2751075   2750334   2749525  
  6430.000000   2748671   2747800   2746936   2746105   2745335  
  6420.000000   2744649   2744057   2743554   2743120   2742727  
  6410.000000   2742351   2741979   2741612   2741263   2740942  
  6400.000000   2740656   2740403   2740177   2739977   2739808  
  6390.000000   2739682   2739609   2739586   2739595   2739601  
  6380.000000   2739568   2739464   2739277   2739008   2738674  
  6370.000000   2738289   2737861   2737393   2736885   2736349  
  6360.000000   2735804   2735281   2734802   2734377   2733991  
  6350.000000   2733614   2733210   2732764   2732280   2731785  
  6340.000000   2731312   2730885   2730499   2730127   2729726  
  6330.000000   2729258   2728699   2728051   2727327   2726549  
  6320.000000   2725721   2724843   2723906   2722917   2721888  
  6310.000000   2720857   2719852   2718891   2717956   2717008  
  6300.000000   2715988   2714858   2713603   2712253   2710857  
  6290.000000   2709473   2708130   2706832   2705548   2704237  
  6280.000000   2702859   2701400   2699860   2698256   2696598  
  6270.000000   2694892   2693128   2691301   2689408   2687468  
  6260.000000   2685506   2683561   2681653   2679794   2677975  
  6250.000000   2676178   2674382   2672568   2670720   2668821  
  6240.000000   2666853   2664802   2662662   2660451   2658208  
  6230.000000   2655993   2653866   2651872   2650023   2648298  
  6220.000000   2646651   2645026   2643372   2641660   2639875  
  6210.000000   2638014   2636081   2634080   2632022   2629932  
  6200.000000   2627847   2625815   2623881   2622065   2620354  
  6190.000000   2618706   2617057   2615353   2613563   2611692  
  6180.000000   2609772   2607847   2605953   2604108   2602306  
  6170.000000   2600533   2598774   2597024   2595290   2593578  
  6160.000000   2591890   2590216   2588537   2586833   2585099  
  6150.000000   2583343   2581589   2579866   2578199   2576599  
  6140.000000   2575066   2573592   2572170   2570796   2569470  
  6130.000000   2568189   2566948   2565730   2564520   2563305  
  6120.000000   2562087   2560868   2559664   2558478   2557309  
  6110.000000   2556141   2554966   2553779   2552602   2551465  
  6100.000000   2550414   2549475   2548660   2547950   2547315  
  6090.000000   2546715   2546131   2545559   2545022   2544538  
  6080.000000   2544134   2543808   2543557   2543359   2543207  
  6070.000000   2543090   2543019   2542991   2543013   2543065  
  6060.000000   2543135   2543196   2543244   2543275   2543309  
  6050.000000   2543361   2543454   2543597   2543803   2544078  
  6040.000000   2544442   2544912   2545515   2546254   2547126  
  6030.000000   2548098   2549133   2550186   2551236   2552276  
  6020.000000   2553328   2554416   2555570   2556800   2558105  
  6010.000000   2559468   2560869   2562283   2563695   2565088  
  6000.000000   2566450   2567768   2569037   2570256   2571444  
  5990.000000   2572620   2573815   2575043   2576315   2577614  
  5980.000000   2578931   2580251   2581584   2582954   2584410  
  5970.000000   2585996   2587756   2589701   2591833   2594119  
  5960.000000   2596529   2599018   2601555   2604100   2606634  
  5950.000000   2609129   2611587   2614012   2616443   2618918  
  5940.000000   2621487   2624183   2627020   2629980   2633028  
  5930.000000   2636120   2639218   2642297   2645348   2648363  
  5920.000000   2651338   2654253   2657087   2659812   2662420  
  5910.000000   2664911   2667307   2669636   2671926   2674199  
  5900.000000   2676470   2678751   2681059   2683417   2685848  
  5890.000000   2688374   2690995   2693696   2696440   2699186  
  5880.000000   2701894   2704536   2707101   2709584   2711989  
  5870.000000   2714310   2716548   2718701   2720781   2722814  
  5860.000000   2724835   2726883   2728989   2731170   2733430  
  5850.000000   2735764   2738168   2740638   2743175   2745773  
  5840.000000   2748420   2751090   2753752   2756376   2758947  
  5830.000000   2761463   2763939   2766392   2768834   2771265  
  5820.000000   2773675   2776058   2778413   2780756   2783109  
  5810.000000   2785496   2787914   2790352   2792761   2795104  
  5800.000000   2797329   2799435   2801413   2803303   2805111  
  5790.000000   2806858   2808513   2810053   2811412   2812548  
  5780.000000   2813399   2813936   2814115   2813928   2813362  
  5770.000000   2812451   2811240   2809823   2808296   2806776  
  5760.000000   2805341   2804057   2802937   2801979   2801154  
  5750.000000   2800440   2799813   2799257   2798759   2798300  
  5740.000000   2797867   2797445   2797039   2796659   2796336  
  5730.000000   2796089   2795940   2795884   2795909   2795985  
  5720.000000   2796096   2796225   2796378   2796556   2796768  
  5710.000000   2797004   2797254   2797496   2797723   2797937  
  5700.000000   2798158   2798410   2798715   2799084   2799508  
  5690.000000   2799972   2800455   2800947   2801440   2801940  
  5680.000000   2802442   2802939   2803400   2803793   2804068  
  5670.000000   2804187   2804114   2803829   2803319   2802590  
  5660.000000   2801654   2800546   2799306   2797996   2796666  
  5650.000000   2795371   2794135   2792976   2791885   2790853  
  5640.000000   2789861   2788901   2787958   2787021   2786070  
  5630.000000   2785087   2784057   2782984   2781893   2780822  
  5620.000000   2779816   2778907   2778102   2777379   2776697  
  5610.000000   2776013   2775295   2774536   2773751   2772964  
  5600.000000   2772194   2771448   2770711   2769966   2769192  
  5590.000000   2768382   2767538   2766670   2765779   2764859  
  5580.000000   2763894   2762870   2761778   2760626   2759432  
  5570.000000   2758221   2757008   2755799   2754586   2753359  
  5560.000000   2752112   2750853   2749598   2748368   2747171  
  5550.000000   2746005   2744851   2743688   2742498   2741277  
  5540.000000   2740034   2738790   2737559   2736353   2735171  
  5530.000000   2734007   2732857   2731720   2730596   2729485  
  5520.000000   2728376   2727254   2726098   2724894   2723639  
  5510.000000   2722344   2721028   2719708   2718390   2717071  
  5500.000000   2715737   2714379   2713002   2711625   2710272  
  5490.000000   2708963   2707690   2706427   2705125   2703742  
  5480.000000   2702245   2700637   2698944   2697207   2695462  
  5470.000000   2693728   2692000   2690260   2688483   2686657  
  5460.000000   2684777   2682851   2680887   2678892   2676868  
  5450.000000   2674821   2672762   2670716   2668709   2666764  
  5440.000000   2664894   2663092   2661346   2659637   2657962  
  5430.000000   2656319   2654718   2653151   2651613   2650072  
  5420.000000   2648519   2646944   2645387   2643902   2642573  
  5410.000000   2641451   2640574   2639910   2639419   2639031  
  5400.000000   2638711   2638432   2638217   2638080   2638062  
  5390.000000   2638164   2638406   2638773   2639291   2639967  
  5380.000000   2640850   2641946   2643277   2644801   2646501  
  5370.000000   2648315   2650249   2652283   2654481   2656855  
  5360.000000   2659478   2662338   2665479   2668864   2672542  
  5350.000000   2676497   2680814   2685496   2690627   2696185  
  5340.000000   2702228   2708707   2715684   2723115   2731072  
  5330.000000   2739497   2748438   2757802   2767624   2777827  
  5320.000000   2788506   2799655   2811445   2823901   2837188  
  5310.000000   2851274   2866249   2882011   2898611   2915955  
  5300.000000   2934134   2953112   2973032   2993890   3015827  
  5290.000000   3038797   3062856   3087863   3113762   3140350  
  5280.000000   3167568   3195295   3223597   3252503   3282176  
  5270.000000   3312660   3343995   3376039   3408590   3441372  
  5260.000000   3474151   3506792   3539266   3571644   3603977  
  5250.000000   3636295   3668459   3700303   3731517   3761929  
  5240.000000   3791336   3819791   3847298   3874063   3900128  
  5230.000000   3925640   3950507   3974732   3998113   4020622  
  5220.000000   4042101   4062639   4082207   4101006   4119065  
  5210.000000   4136566   4153448   4169755   4185289   4200011  
  5200.000000   4213728   4226497   4238265   4249216   4259372  
  5190.000000   4268904   4277760   4286000   4293485   4300233  
  5180.000000   4306128   4311246   4315539   4319125   4321970  
  5170.000000   4324179   4325709   4326663   4327021   4326902  
  5160.000000   4326294   4325290   4323837   4321975   4319621  
  5150.000000   4316810   4313493   4309741   4305543   4300977  
  5140.000000   4296028   4290757   4285152   4279284   4273166  
  5130.000000   4266885   4260453   4253921   4247257   4240462  
  5120.000000   4233488   4226343   4219022   4211578   4204037  
  5110.000000   4196449   4188813   4181136   4173390   4165575  
  5100.000000   4157688   4149763   4141827   4133922   4126058  
  5090.000000   4118245   4110462   4102703   4094948   4087200  
  5080.000000   4079451   4071706   4063950   4056172   4048351  
  5070.000000   4040482   4032560   4024601   4016613   4008609  
  5060.000000   4000580   3992518   3984402   3976227   3967991  
  5050.000000   3959717   3951427   3943150   3934892   3926652  
  5040.000000   3918409   3910141   3901828   3893470   3885077  
  5030.000000   3876677   3868302   3859982   3851743   3843595  
  5020.000000   3835548   3827592   3819725   3811928   3804203  
  5010.000000   3796535   3788947   3781446   3774082   3766878  
  5000.000000   3759896   3753148   3746677   3740465   3734531  
  4990.000000   3728840   3723411   3718218   3713298   3708635  
  4980.000000   3704275   3700200   3696450   3693000   3689892  
  4970.000000   3687100   3684674   3682586   3680883   3679529  
  4960.000000   3678561   3677938   3677695   3677796   3678284  
  4950.000000   3679122   3680348   3681915   3683850   3686101  
  4940.000000   3688702   3691617   3694900   3698530   3702564  
  4930.000000   3706972   3711786   3716954   3722489   3728333  
  4920.000000   3734502   3740951   3747706   3754732   3762059  
  4910.000000   3769656   3777547   3785703   3794138   3802817  
  4900.000000   3811736   3820849   3830135   3839550   3849072  
  4890.000000   3858675   3868344   3878060   3887802   3897539  
  4880.000000   3907227   3916829   3926292   3935588   3944673  
  4870.000000   3953532   3962127   3970452   3978474   3986202  
  4860.000000   3993617   4000750   4007596   4014190   4020519  
  4850.000000   4026608   4032434   4038020   4043355   4048482  
  4840.000000   4053408   4058185   4062815   4067330   4071710  
  4830.000000   4075969   4080083   4084065   4087905   4091622  
  4820.000000   4095208   4098678   4102019   4105244   4108353  
  4810.000000   4111370   4114310   4117203   4120058   4122888  
  4800.000000   4125684   4128445   4131160   4133838   4136481  
  4790.000000   4139113   4141738   4144374   4147014   4149658  
  4780.000000   4152292   4154913   4157506   4160068   4162574  
  4770.000000   4165010   4167339   4169541   4171583   4173463  
  4760.000000   4175172   4176731   4178142   4179432   4180591  
  4750.000000   4181635   4182543   4183324   4183956   4184452  
  4740.000000   4184793   4184991   4185029   4184918   4184643  
  4730.000000   4184217   4183634   4182910   4182041   4181040  
  4720.000000   4179904   4178648   4177276   4175816   4174288  
  4710.000000   4172730   4171169   4169639   4168153   4166727  
  4700.000000   4165358   4164042   4162766   4161523   4160299  
  4690.000000   4159091   4157895   4156716   4155558   4154424  
  4680.000000   4153311   4152203   4151078   4149894   4148619  
  4670.000000   4147219   4145690   4144040   4142317   4140575  
  4660.000000   4138888   4137313   4135909   4134703   4133716  
  4650.000000   4132944   4132382   4132011   4131817   4131771  
  4640.000000   4131851   4132028   4132280   4132586   4132935  
  4630.000000   4133313   4133714   4134119   4134508   4134848  
  4620.000000   4135107   4135254   4135268   4135139   4134867  
  4610.000000   4134465   4133949   4133343   4132666   4131951  
  4600.000000   4131220   4130508   4129833   4129220   4128666  
  4590.000000   4128169   4127703   4127245   4126758   4126220  
  4580.000000   4125599   4124883   4124053   4123106   4122037  
  4570.000000   4120860   4119585   4118240   4116842   4115421  
  4560.000000   4113984   4112545   4111094   4109627   4108128  
  4550.000000   4106590   4105001   4103360   4101660   4099902  
  4540.000000   4098088   4096225   4094328   4092411   4090498  
  4530.000000   4088600   4086735   4084895   4083091   4081310  
  4520.000000   4079577   4077892   4076310   4074849   4073582  
  4510.000000   4072523   4071747   4071257   4071132   4071369  
  4500.000000   4072055   4073185   4074848   4077027   4079808  
  4490.000000   4083167   4087197   4091881   4097323   4103508  
  4480.000000   4110528   4118347   4127019   4136471   4146715  
  4470.000000   4157648   4169253   4181409   4194078   4207137  
  4460.000000   4220544   4234190   4248047   4262032   4276129  
  4450.000000   4290269   4304427   4318540   4332574   4346485  
  4440.000000   4360253   4373882   4387382   4400803   4414163  
  4430.000000   4427516   4440842   4454158   4467381   4480481  
  4420.000000   4493324   4505861   4517945   4529538   4540511  
  4410.000000   4550847   4560436   4569273   4577256   4584392  
  4400.000000   4590599   4595916   4600311   4603878   4606647  
  4390.000000   4608760   4610287   4611381   4612111   4612603  
  4380.000000   4612902   4613095   4613212   4613321   4613467  
  4370.000000   4613727   4614176   4614900   4615983   4617494  
  4360.000000   4619493   4622007   4625047   4628592   4632600  
  4350.000000   4637018   4641769   4646797   4652028   4657425  
  4340.000000   4662933   4668508   4674061   4679461   4684502  
  4330.000000   4688923   4692426   4694747   4695696   4695243  
  4320.000000   4693520   4690841   4687608   4684290   4681267  
  4310.000000   4678842   4677127   4676138   4675743   4675802  
  4300.000000   4676135   4676625   4677173   4677732   4678273  
  4290.000000   4678775   4679233   4679638   4680004   4680348  
  4280.000000   4680702   4681106   4681589   4682186   4682897  
  4270.000000   4683731   4684645   4685595   4686472   4687149  
  4260.000000   4687446   4687192   4686222   4684444   4681844  
  4250.000000   4678519   4674640   4670453   4666197   4662107  
  4240.000000   4658335   4654982   4652053   4649521   4647299  
  4230.000000   4645307   4643447   4641640   4639816   4637918  
  4220.000000   4635919   4633794   4631572   4629268   4626958  
  4210.000000   4624688   4622547   4620585   4618874   4617439  
  4200.000000   4616322   4615515   4615027   4614818   4614877  
  4190.000000   4615148   4615626   4616265   4617085   4618062  
  4180.000000   4619242   4620608   4622213   4624037   4626142  
  4170.000000   4628517   4631245   4634335   4637881   4641888  
  4160.000000   4646430   4651481   4657084   4663187   4669828  
  4150.000000   4676955   4684615   4692757   4701423   4710554  
  4140.000000   4720185   4730256   4740814   4751814   4763316  
  4130.000000   4775280   4787755   4800688   4814110   4827965  
  4120.000000   4842288   4857044   4872285   4887992   4904209  
  4110.000000   4920904   4938089   4955704   4973734   4992105  
  4100.000000   5010792   5029730   5048898   5068249   5087773  
  4090.000000   5107445   5127257   5147195   5167241   5187390  
  4080.000000   5207618   5227931   5248301   5268737   5289182  
  4070.000000   5309611   5329912   5350023   5369801   5389200  
  4060.000000   5408109   5426537   5444413   5461786   5478590  
  4050.000000   5494887   5510610   5525841   5540516   5554713  
  4040.000000   5568331   5581399   5593753   5605387   5616134  
  4030.000000   5626030   5634965   5643028   5650147   5656396  
  4020.000000   5661656   5665992   5669361   5671848   5673381  
  4010.000000   5674121   5674153   5673502   5671899   5669439  
  4000.000000   5666552  
##END= 
