##TITLE= Sample 007 By ssteindl date Donnerstag, November 22 2018
##JCAMP-DX= 4.24
##DATA TYPE= INFRARED SPECTRUM
##ORIGIN= Exported PE Spectrum Data File
##OWNER= Sandra Steindl
##DATE= 18/11/22
##TIME= 13:14:20.00
##SPECTROMETER/DATA SYSTEM= PERKIN-ELMER Frontier FT-IR/NIR IR
##INSTRUMENT PARAMETERS=
  APODIZATION=stark
  DETECTOR=INGAAS
##RESOLUTION= 16.000000
##DELTAX= -2.000000
##XUNITS= 1/CM
##YUNITS= A
##XFACTOR= 1.00
##YFACTOR= 0.00000011920928955078
##FIRSTX= 10000.00
##LASTX= 4000.00
##NPOINTS= 3001
##FIRSTY= 0.227562
##MAXY= 0.652568
##MINY= 0.191723
##XYDATA= (X++(Y..Y))
 10000.000000   1908930   1912813   1916730   1920202   1922160  
  9990.000000   1921875   1919676   1916812   1914495   1913449  
  9980.000000   1913737   1914920   1916191   1916888   1916718  
  9970.000000   1915894   1914692   1913336   1911700   1909522  
  9960.000000   1906570   1903025   1899501   1896843   1895662  
  9950.000000   1895858   1896533   1896177   1893397   1887485  
  9940.000000   1878883   1869027   1859779   1852721   1848533  
  9930.000000   1846949   1847078   1848074   1849635   1852134  
  9920.000000   1856224   1862210   1869491   1876467   1881070  
  9910.000000   1881539   1877373   1869510   1860201   1851957  
  9900.000000   1846677   1844870   1845638   1847293   1848161  
  9890.000000   1847481   1845540   1843556   1842868   1844361  
  9880.000000   1847986   1852891   1857834   1861649   1863682  
  9870.000000   1863691   1861826   1858221   1853069   1846589  
  9860.000000   1839324   1832213   1826462   1823221   1823056  
  9850.000000   1825778   1830361   1835519   1840105   1843712  
  9840.000000   1846631   1849623   1853329   1857757   1862170  
  9830.000000   1865241   1865691   1862755   1856604   1848232  
  9820.000000   1839115   1830689   1823908   1819159   1816300  
  9810.000000   1815012   1814904   1815669   1816922   1818185  
  9800.000000   1818838   1818327   1816401   1813284   1809731  
  9790.000000   1806671   1804948   1804793   1805861   1807245  
  9780.000000   1807980   1807410   1805477   1802731   1800072  
  9770.000000   1798410   1798364   1800120   1803506   1808091  
  9760.000000   1813345   1818658   1823354   1826724   1828147  
  9750.000000   1827358   1824624   1820879   1817472   1815802  
  9740.000000   1816739   1820282   1825434   1830553   1833892  
  9730.000000   1834238   1831285   1825670   1818642   1811533  
  9720.000000   1805291   1800270   1796295   1792988   1790042  
  9710.000000   1787466   1785495   1784487   1784633   1785899  
  9700.000000   1787962   1790347   1792574   1794189   1794903  
  9690.000000   1794424   1792636   1789448   1785066   1779911  
  9680.000000   1774728   1770376   1767625   1766952   1768331  
  9670.000000   1771408   1775526   1780154   1784896   1789685  
  9660.000000   1794571   1799577   1804534   1808930   1812079  
  9650.000000   1813148   1811522   1806870   1799392   1789759  
  9640.000000   1779071   1768683   1759929   1753971   1751457  
  9630.000000   1752503   1756508   1762402   1768766   1774280  
  9620.000000   1777947   1779362   1778697   1776546   1773724  
  9610.000000   1770917   1768635   1767007   1765967   1765227  
  9600.000000   1764451   1763278   1761386   1758598   1754918  
  9590.000000   1750681   1746467   1743055   1741124   1741049  
  9580.000000   1742705   1745474   1748455   1750745   1751786  
  9570.000000   1751483   1750190   1748473   1746831   1745502  
  9560.000000   1744423   1743391   1742267   1741158   1740379  
  9550.000000   1740310   1741128   1742653   1744349   1745482  
  9540.000000   1745418   1743798   1740695   1736482   1731722  
  9530.000000   1726915   1722430   1718517   1715396   1713403  
  9520.000000   1712898   1714212   1717347   1721939   1727214  
  9510.000000   1732240   1736189   1738564   1739323   1738719  
  9500.000000   1737170   1734942   1732137   1728659   1724473  
  9490.000000   1719740   1714934   1710743   1707822   1706581  
  9480.000000   1706973   1708603   1710817   1713039   1714875  
  9470.000000   1716234   1717241   1718086   1718922   1719745  
  9460.000000   1720476   1720963   1721109   1720840   1720142  
  9450.000000   1718985   1717383   1715415   1713301   1711427  
  9440.000000   1710189   1709911   1710570   1711863   1713212  
  9430.000000   1714080   1714175   1713618   1712906   1712670  
  9420.000000   1713367   1714927   1716689   1717551   1716458  
  9410.000000   1712854   1707031   1700068   1693507   1688826  
  9400.000000   1686934   1687939   1691120   1695291   1699195  
  9390.000000   1701952   1703250   1703303   1702624   1701737  
  9380.000000   1701004   1700534   1700254   1699966   1699493  
  9370.000000   1698713   1697624   1696308   1694903   1693587  
  9360.000000   1692528   1691881   1691706   1691927   1692309  
  9350.000000   1692506   1692193   1691204   1689619   1687781  
  9340.000000   1686170   1685273   1685382   1686519   1688412  
  9330.000000   1690597   1692586   1693988   1694601   1694391  
  9320.000000   1693418   1691781   1689550   1686834   1683807  
  9310.000000   1680771   1678115   1676236   1675396   1675613  
  9300.000000   1676580   1677725   1678325   1677758   1675689  
  9290.000000   1672202   1667765   1663094   1658964   1655993  
  9280.000000   1654497   1654395   1655266   1656486   1657445  
  9270.000000   1657678   1656972   1655342   1653030   1650378  
  9260.000000   1647773   1645521   1643830   1642765   1642308  
  9250.000000   1642377   1642873   1643711   1644823   1646168  
  9240.000000   1647695   1649331   1650953   1652378   1653405  
  9230.000000   1653818   1653503   1652433   1650764   1648750  
  9220.000000   1646727   1644982   1643683   1642857   1642389  
  9210.000000   1642153   1642035   1642065   1642363   1643152  
  9200.000000   1644615   1646798   1649531   1652433   1655029  
  9190.000000   1656817   1657430   1656681   1654663   1651682  
  9180.000000   1648228   1644852   1642093   1640384   1639955  
  9170.000000   1640803   1642635   1645003   1647347   1649220  
  9160.000000   1650338   1650722   1650645   1650502   1650659  
  9150.000000   1651258   1652205   1653119   1653502   1652903  
  9140.000000   1651114   1648255   1644729   1641175   1638258  
  9130.000000   1636557   1636329   1637534   1639793   1642533  
  9120.000000   1645091   1646871   1647503   1646891   1645233  
  9110.000000   1642887   1640263   1637670   1635282   1633092  
  9100.000000   1631040   1629089   1627374   1626164   1625775  
  9090.000000   1626411   1628008   1630207   1632412   1634027  
  9080.000000   1634688   1634410   1633606   1632916   1632978  
  9070.000000   1634141   1636344   1639121   1641820   1643817  
  9060.000000   1644741   1644537   1643423   1641754   1639850  
  9050.000000   1637950   1636192   1634697   1633596   1633051  
  9040.000000   1633173   1633952   1635167   1636436   1637305  
  9030.000000   1637433   1636708   1635306   1633614   1632079  
  9020.000000   1631047   1630646   1630774   1631186   1631601  
  9010.000000   1631833   1631810   1631588   1631261   1630922  
  9000.000000   1630613   1630338   1630078   1629788   1629403  
  8990.000000   1628811   1627882   1626489   1624578   1622247  
  8980.000000   1619762   1617525   1615924   1615232   1615481  
  8970.000000   1616443   1617692   1618757   1619282   1619116  
  8960.000000   1618329   1617121   1615752   1614411   1613203  
  8950.000000   1612132   1611185   1610343   1609635   1609103  
  8940.000000   1608784   1608685   1608756   1608952   1609240  
  8930.000000   1609635   1610170   1610868   1611732   1612689  
  8920.000000   1613644   1614457   1615020   1615231   1615025  
  8910.000000   1614367   1613284   1611881   1610363   1609045  
  8900.000000   1608291   1608422   1609571   1611619   1614189  
  8890.000000   1616740   1618742   1619829   1619952   1619340  
  8880.000000   1618415   1617581   1617092   1616980   1617120  
  8870.000000   1617356   1617614   1618003   1618738   1620068  
  8860.000000   1622077   1624643   1627413   1629926   1631774  
  8850.000000   1632683   1632616   1631669   1630054   1627946  
  8840.000000   1625497   1622837   1620157   1617749   1615977  
  8830.000000   1615230   1615785   1617730   1620876   1624828  
  8820.000000   1629061   1633052   1636383   1638776   1640150  
  8810.000000   1640540   1640142   1639204   1638071   1637067  
  8800.000000   1636483   1636488   1637093   1638183   1639535  
  8790.000000   1640974   1642384   1643823   1645413   1647308  
  8780.000000   1649536   1651963   1654285   1656119   1657151  
  8770.000000   1657216   1656398   1654951   1653255   1651640  
  8760.000000   1650327   1649358   1648655   1648089   1647564  
  8750.000000   1647073   1646707   1646648   1647114   1648304  
  8740.000000   1650325   1653157   1656635   1660460   1664246  
  8730.000000   1667588   1670187   1671921   1672910   1673455  
  8720.000000   1673953   1674737   1675954   1677520   1679138  
  8710.000000   1680436   1681102   1681027   1680324   1679308  
  8700.000000   1678340   1677712   1677526   1677699   1678015  
  8690.000000   1678236   1678208   1677899   1677426   1676977  
  8680.000000   1676765   1676942   1677586   1678670   1680116  
  8670.000000   1681787   1683560   1685306   1686950   1688459  
  8660.000000   1689898   1691385   1693093   1695158   1697643  
  8650.000000   1700477   1703467   1706350   1708878   1710920  
  8640.000000   1712508   1713843   1715215   1716903   1719049  
  8630.000000   1721604   1724309   1726790   1728667   1729695  
  8620.000000   1729854   1729345   1728546   1727872   1727671  
  8610.000000   1728093   1729080   1730383   1731690   1732736  
  8600.000000   1733406   1733804   1734194   1734951   1736394  
  8590.000000   1738724   1741947   1745879   1750196   1754501  
  8580.000000   1758422   1761647   1763964   1765286   1765668  
  8570.000000   1765297   1764486   1763603   1763029   1763031  
  8560.000000   1763696   1764893   1766310   1767580   1768392  
  8550.000000   1768655   1768509   1768331   1768551   1769530  
  8540.000000   1771400   1774028   1777066   1780058   1782606  
  8530.000000   1784450   1785529   1785927   1785812   1785356  
  8520.000000   1784716   1784014   1783374   1782921   1782787  
  8510.000000   1783059   1783735   1784719   1785827   1786878  
  8500.000000   1787756   1788471   1789167   1790042   1791272  
  8490.000000   1792895   1794798   1796730   1798409   1799633  
  8480.000000   1800380   1800815   1801248   1802009   1803340  
  8470.000000   1805281   1807648   1810082   1812168   1813567  
  8460.000000   1814129   1813959   1813391   1812893   1812914  
  8450.000000   1813758   1815485   1817897   1820597   1823120  
  8440.000000   1825100   1826362   1826966   1827157   1827261  
  8430.000000   1827565   1828207   1829173   1830341   1831577  
  8420.000000   1832815   1834093   1835515   1837184   1839081  
  8410.000000   1841056   1842815   1844062   1844586   1844382  
  8400.000000   1843653   1842764   1842112   1841987   1842452  
  8390.000000   1843352   1844353   1845077   1845200   1844570  
  8380.000000   1843227   1841389   1839359   1837462   1835968  
  8370.000000   1835045   1834728   1834919   1835423   1835979  
  8360.000000   1836319   1836234   1835627   1834560   1833248  
  8350.000000   1831997   1831126   1830865   1831299   1832320  
  8340.000000   1833665   1834984   1835962   1836394   1836242  
  8330.000000   1835629   1834799   1834021   1833512   1833363  
  8320.000000   1833532   1833866   1834174   1834286   1834123  
  8310.000000   1833726   1833226   1832811   1832629   1832761  
  8300.000000   1833179   1833766   1834355   1834780   1834935  
  8290.000000   1834786   1834367   1833746   1832989   1832145  
  8280.000000   1831237   1830295   1829353   1828486   1827768  
  8270.000000   1827287   1827080   1827146   1827402   1827738  
  8260.000000   1828006   1828089   1827895   1827375   1826523  
  8250.000000   1825358   1823936   1822314   1820569   1818764  
  8240.000000   1816959   1815198   1813505   1811907   1810429  
  8230.000000   1809135   1808103   1807436   1807198   1807395  
  8220.000000   1807932   1808630   1809251   1809564   1809403  
  8210.000000   1808719   1807592   1806198   1804753   1803437  
  8200.000000   1802348   1801486   1800762   1800042   1799185  
  8190.000000   1798097   1796736   1795137   1793370   1791548  
  8180.000000   1789770   1788128   1786662   1785377   1784227  
  8170.000000   1783135   1782008   1780760   1779333   1777704  
  8160.000000   1775891   1773930   1771881   1769790   1767710  
  8150.000000   1765674   1763722   1761880   1760169   1758599  
  8140.000000   1757164   1755862   1754695   1753696   1752918  
  8130.000000   1752432   1752293   1752499   1752977   1753556  
  8120.000000   1754016   1754112   1753665   1752591   1750952  
  8110.000000   1748919   1746738   1744658   1742873   1741500  
  8100.000000   1740553   1739988   1739712   1739633   1739656  
  8090.000000   1739707   1739702   1739558   1739190   1738526  
  8080.000000   1737536   1736232   1734695   1733034   1731383  
  8070.000000   1729845   1728482   1727303   1726272   1725341  
  8060.000000   1724470   1723658   1722940   1722388   1722064  
  8050.000000   1722004   1722175   1722480   1722770   1722885  
  8040.000000   1722702   1722164   1721305   1720228   1719079  
  8030.000000   1717982   1717012   1716159   1715355   1714492  
  8020.000000   1713483   1712293   1710955   1709565   1708238  
  8010.000000   1707087   1706166   1705487   1705010   1704686  
  8000.000000   1704473   1704352   1704328   1704392   1704515  
  7990.000000   1704607   1704541   1704159   1703337   1702010  
  7980.000000   1700227   1698139   1695990   1694053   1692572  
  7970.000000   1691709   1691501   1691867   1692623   1693536  
  7960.000000   1694373   1694947   1695155   1694982   1694496  
  7950.000000   1693814   1693074   1692391   1691843   1691448  
  7940.000000   1691186   1690999   1690829   1690630   1690378  
  7930.000000   1690076   1689733   1689359   1688953   1688502  
  7920.000000   1688002   1687459   1686918   1686439   1686099  
  7910.000000   1685950   1686002   1686206   1686476   1686707  
  7900.000000   1686831   1686837   1686787   1686790   1686967  
  7890.000000   1687402   1688113   1689045   1690091   1691126  
  7880.000000   1692037   1692747   1693213   1693418   1693356  
  7870.000000   1693038   1692492   1691785   1691023   1690339  
  7860.000000   1689854   1689642   1689683   1689877   1690062  
  7850.000000   1690088   1689861   1689397   1688799   1688224  
  7840.000000   1687798   1687569   1687475   1687375   1687111  
  7830.000000   1686573   1685756   1684757   1683739   1682864  
  7820.000000   1682229   1681832   1681584   1681354   1681028  
  7810.000000   1680558   1679980   1679396   1678928   1678674  
  7800.000000   1678666   1678868   1679184   1679494   1679693  
  7790.000000   1679704   1679495   1679067   1678445   1677660  
  7780.000000   1676749   1675749   1674706   1673665   1672680  
  7770.000000   1671796   1671045   1670446   1669991   1669670  
  7760.000000   1669458   1669347   1669333   1669429   1669647  
  7750.000000   1669987   1670425   1670895   1671300   1671515  
  7740.000000   1671428   1670959   1670098   1668912   1667539  
  7730.000000   1666163   1664960   1664069   1663540   1663340  
  7720.000000   1663351   1663417   1663382   1663133   1662619  
  7710.000000   1661862   1660931   1659922   1658929   1658020  
  7700.000000   1657238   1656594   1656090   1655721   1655478  
  7690.000000   1655355   1655331   1655377   1655447   1655492  
  7680.000000   1655469   1655351   1655135   1654831   1654458  
  7670.000000   1654021   1653520   1652936   1652262   1651514  
  7660.000000   1650744   1650031   1649468   1649126   1649023  
  7650.000000   1649121   1649330   1649538   1649660   1649652  
  7640.000000   1649532   1649356   1649200   1649114   1649115  
  7630.000000   1649182   1649281   1649388   1649508   1649672  
  7620.000000   1649917   1650263   1650694   1651157   1651590  
  7610.000000   1651934   1652171   1652305   1652372   1652382  
  7600.000000   1652333   1652186   1651907   1651495   1651010  
  7590.000000   1650583   1650386   1650584   1651270   1652429  
  7580.000000   1653929   1655563   1657106   1658374   1659272  
  7570.000000   1659789   1659996   1659986   1659861   1659683  
  7560.000000   1659499   1659331   1659205   1659152   1659210  
  7550.000000   1659419   1659806   1660386   1661154   1662094  
  7540.000000   1663174   1664346   1665553   1666720   1667790  
  7530.000000   1668710   1669478   1670121   1670713   1671329  
  7520.000000   1672038   1672871   1673822   1674864   1675968  
  7510.000000   1677131   1678378   1679754   1681298   1683011  
  7500.000000   1684844   1686696   1688452   1690002   1691299  
  7490.000000   1692347   1693214   1694001   1694818   1695761  
  7480.000000   1696894   1698250   1699837   1701641   1703630  
  7470.000000   1705750   1707932   1710088   1712139   1714013  
  7460.000000   1715679   1717124   1718385   1719504   1720551  
  7450.000000   1721591   1722703   1723962   1725451   1727239  
  7440.000000   1729366   1731826   1734553   1737439   1740352  
  7430.000000   1743170   1745816   1748268   1750573   1752809  
  7420.000000   1755064   1757388   1759791   1762228   1764631  
  7410.000000   1766924   1769062   1771037   1772880   1774653  
  7400.000000   1776416   1778221   1780091   1782034   1784042  
  7390.000000   1786110   1788242   1790449   1792746   1795124  
  7380.000000   1797550   1799955   1802256   1804377   1806280  
  7370.000000   1807989   1809593   1811229   1813039   1815138  
  7360.000000   1817563   1820272   1823142   1826015   1828739  
  7350.000000   1831204   1833366   1835246   1836916   1838468  
  7340.000000   1839988   1841538   1843160   1844880   1846702  
  7330.000000   1848621   1850609   1852622   1854594   1856470  
  7320.000000   1858209   1859809   1861301   1862737   1864167  
  7310.000000   1865614   1867062   1868469   1869791   1871009  
  7300.000000   1872151   1873289   1874509   1875880   1877415  
  7290.000000   1879065   1880734   1882313   1883725   1884948  
  7280.000000   1886020   1887025   1888052   1889172   1890417  
  7270.000000   1891778   1893226   1894722   1896234   1897730  
  7260.000000   1899182   1900551   1901799   1902891   1903830  
  7250.000000   1904651   1905441   1906300   1907338   1908617  
  7240.000000   1910156   1911907   1913803   1915757   1917723  
  7230.000000   1919679   1921648   1923657   1925747   1927931  
  7220.000000   1930231   1932647   1935203   1937914   1940807  
  7210.000000   1943877   1947110   1950442   1953814   1957148  
  7200.000000   1960410   1963585   1966708   1969816   1972964  
  7190.000000   1976179   1979485   1982883   1986386   1990004  
  7180.000000   1993763   1997673   2001732   2005895   2010094  
  7170.000000   2014236   2018252   2022097   2025798   2029407  
  7160.000000   2033022   2036710   2040523   2044452   2048477  
  7150.000000   2052558   2056699   2060927   2065320   2069953  
  7140.000000   2074893   2080142   2085655   2091332   2097082  
  7130.000000   2102815   2108521   2114204   2119937   2125758  
  7120.000000   2131711   2137766   2143887   2149996   2156059  
  7110.000000   2162063   2168067   2174154   2180444   2187020  
  7100.000000   2193939   2201179   2208675   2216295   2223909  
  7090.000000   2231380   2238635   2245642   2252452   2259154  
  7080.000000   2265880   2272742   2279829   2287154   2294673  
  7070.000000   2302285   2309877   2317351   2324666   2331836  
  7060.000000   2338921   2346001   2353147   2360395   2367744  
  7050.000000   2375159   2382591   2389994   2397328   2404574  
  7040.000000   2411718   2418759   2425701   2432560   2439363  
  7030.000000   2446147   2452940   2459760   2466584   2473373  
  7020.000000   2480060   2486602   2492970   2499197   2505337  
  7010.000000   2511475   2517668   2523940   2530253   2536532  
  7000.000000   2542670   2548583   2554210   2559553   2564644  
  6990.000000   2569570   2574411   2579265   2584185   2589214  
  6980.000000   2594337   2599524   2604692   2609759   2614627  
  6970.000000   2619237   2623542   2627552   2631292   2634822  
  6960.000000   2638191   2641453   2644640   2647793   2650933  
  6950.000000   2654103   2657321   2660612   2663955   2667323  
  6940.000000   2670650   2673881   2676959   2679869   2682610  
  6930.000000   2685212   2687696   2690077   2692339   2694455  
  6920.000000   2696386   2698118   2699656   2701055   2702386  
  6910.000000   2703746   2705207   2706828   2708610   2710521  
  6900.000000   2712482   2714404   2716196   2717800   2719197  
  6890.000000   2720422   2721541   2722648   2723826   2725135  
  6880.000000   2726593   2728179   2729845   2731530   2733169  
  6870.000000   2734714   2736126   2737392   2738508   2739495  
  6860.000000   2740388   2741239   2742104   2743037   2744065  
  6850.000000   2745189   2746375   2747573   2748724   2749787  
  6840.000000   2750736   2751576   2752317   2752986   2753601  
  6830.000000   2754186   2754761   2755356   2755997   2756705  
  6820.000000   2757474   2758274   2759038   2759699   2760193  
  6810.000000   2760499   2760636   2760666   2760665   2760710  
  6800.000000   2760842   2761075   2761388   2761750   2762118  
  6790.000000   2762464   2762752   2762956   2763042   2762990  
  6780.000000   2762791   2762471   2762080   2761688   2761357  
  6770.000000   2761123   2760978   2760881   2760773   2760606  
  6760.000000   2760360   2760051   2759718   2759405   2759144  
  6750.000000   2758941   2758789   2758674   2758595   2758560  
  6740.000000   2758583   2758672   2758813   2758976   2759121  
  6730.000000   2759215   2759249   2759238   2759213   2759202  
  6720.000000   2759217   2759247   2759264   2759242   2759167  
  6710.000000   2759055   2758926   2758812   2758715   2758627  
  6700.000000   2758507   2758320   2758029   2757627   2757116  
  6690.000000   2756513   2755827   2755065   2754216   2753281  
  6680.000000   2752261   2751182   2750074   2748975   2747910  
  6670.000000   2746896   2745930   2745012   2744137   2743312  
  6660.000000   2742537   2741811   2741113   2740411   2739662  
  6650.000000   2738831   2737894   2736852   2735724   2734541  
  6640.000000   2733331   2732119   2730912   2729713   2728512  
  6630.000000   2727296   2726041   2724723   2723313   2721796  
  6620.000000   2720169   2718460   2716709   2714975   2713302  
  6610.000000   2711719   2710226   2708803   2707420   2706057  
  6600.000000   2704701   2703350   2701998   2700629   2699212  
  6590.000000   2697710   2696103   2694397   2692631   2690869  
  6580.000000   2689177   2687606   2686166   2684838   2683579  
  6570.000000   2682346   2681102   2679827   2678508   2677130  
  6560.000000   2675672   2674112   2672446   2670691   2668901  
  6550.000000   2667143   2665482   2663954   2662552   2661238  
  6540.000000   2659957   2658674   2657389   2656135   2654963  
  6530.000000   2653912   2652987   2652149   2651336   2650474  
  6520.000000   2649519   2648456   2647303   2646090   2644847  
  6510.000000   2643590   2642329   2641073   2639846   2638683  
  6500.000000   2637615   2636659   2635796   2634976   2634129  
  6490.000000   2633194   2632137   2630964   2629717   2628447  
  6480.000000   2627201   2625999   2624844   2623723   2622628  
  6470.000000   2621558   2620518   2619507   2618513   2617509  
  6460.000000   2616469   2615383   2614271   2613182   2612181  
  6450.000000   2611317   2610605   2610011   2609468   2608894  
  6440.000000   2608231   2607455   2606591   2605685   2604797  
  6430.000000   2603959   2603185   2602458   2601758   2601066  
  6420.000000   2600383   2599721   2599107   2598562   2598106  
  6410.000000   2597748   2597493   2597339   2597279   2597290  
  6400.000000   2597343   2597395   2597412   2597369   2597267  
  6390.000000   2597120   2596953   2596780   2596598   2596383  
  6380.000000   2596105   2595746   2595313   2594848   2594414  
  6370.000000   2594077   2593875   2593814   2593854   2593936  
  6360.000000   2593991   2593965   2593824   2593556   2593160  
  6350.000000   2592643   2592014   2591293   2590510   2589712  
  6340.000000   2588945   2588254   2587655   2587146   2586696  
  6330.000000   2586271   2585832   2585361   2584845   2584282  
  6320.000000   2583663   2582976   2582201   2581326   2580351  
  6310.000000   2579297   2578198   2577093   2576003   2574937  
  6300.000000   2573878   2572811   2571712   2570580   2569413  
  6290.000000   2568223   2567009   2565767   2564480   2563140  
  6280.000000   2561738   2560291   2558815   2557335   2555856  
  6270.000000   2554373   2552862   2551298   2549662   2547954  
  6260.000000   2546190   2544398   2542603   2540826   2539070  
  6250.000000   2537336   2535616   2533909   2532210   2530520  
  6240.000000   2528830   2527131   2525415   2523679   2521930  
  6230.000000   2520185   2518458   2516755   2515066   2513363  
  6220.000000   2511618   2509808   2507932   2506016   2504103  
  6210.000000   2502239   2500458   2498774   2497178   2495650  
  6200.000000   2494167   2492717   2491296   2489904   2488537  
  6190.000000   2487181   2485813   2484412   2482966   2481478  
  6180.000000   2479972   2478479   2477031   2475650   2474342  
  6170.000000   2473098   2471897   2470715   2469522   2468294  
  6160.000000   2467011   2465663   2464253   2462799   2461334  
  6150.000000   2459898   2458525   2457235   2456026   2454873  
  6140.000000   2453741   2452596   2451417   2450196   2448944  
  6130.000000   2447672   2446394   2445113   2443835   2442567  
  6120.000000   2441329   2440149   2439064   2438100   2437274  
  6110.000000   2436581   2436001   2435502   2435055   2434629  
  6100.000000   2434209   2433771   2433305   2432788   2432216  
  6090.000000   2431581   2430905   2430208   2429533   2428907  
  6080.000000   2428358   2427889   2427502   2427185   2426940  
  6070.000000   2426765   2426674   2426670   2426762   2426936  
  6060.000000   2427190   2427505   2427885   2428328   2428860  
  6050.000000   2429486   2430227   2431073   2432022   2433049  
  6040.000000   2434146   2435296   2436508   2437782   2439141  
  6030.000000   2440589   2442144   2443803   2445566   2447412  
  6020.000000   2449322   2451253   2453174   2455044   2456849  
  6010.000000   2458580   2460263   2461925   2463609   2465339  
  6000.000000   2467141   2469009   2470946   2472942   2475002  
  5990.000000   2477128   2479335   2481626   2484013   2486492  
  5980.000000   2489074   2491761   2494578   2497533   2500641  
  5970.000000   2503883   2507237   2510648   2514081   2517495  
  5960.000000   2520893   2524283   2527703   2531172   2534707  
  5950.000000   2538290   2541903   2545517   2549129   2552752  
  5940.000000   2556428   2560204   2564124   2568208   2572449  
  5930.000000   2576813   2581246   2585688   2590073   2594345  
  5920.000000   2598453   2602360   2606049   2609525   2612817  
  5910.000000   2615973   2619043   2622070   2625074   2628061  
  5900.000000   2631012   2633920   2636774   2639600   2642420  
  5890.000000   2645279   2648199   2651199   2654267   2657388  
  5880.000000   2660528   2663658   2666735   2669715   2672543  
  5870.000000   2675163   2677531   2679630   2681481   2683144  
  5860.000000   2684707   2686265   2687898   2689655   2691549  
  5850.000000   2693574   2695705   2697924   2700213   2702564  
  5840.000000   2704962   2707395   2709842   2712291   2714737  
  5830.000000   2717186   2719655   2722151   2724673   2727201  
  5820.000000   2729706   2732157   2734543   2736869   2739157  
  5810.000000   2741438   2743726   2746029   2748321   2750590  
  5800.000000   2752810   2755003   2757177   2759378   2761606  
  5790.000000   2763864   2766084   2768198   2770084   2771648  
  5780.000000   2772776   2773406   2773475   2772980   2771927  
  5770.000000   2770385   2768441   2766228   2763872   2761509  
  5760.000000   2759222   2757081   2755094   2753267   2751577  
  5750.000000   2750024   2748597   2747301   2746128   2745063  
  5740.000000   2744082   2743154   2742259   2741381   2740518  
  5730.000000   2739660   2738804   2737931   2737031   2736093  
  5720.000000   2735132   2734172   2733255   2732413   2731666  
  5710.000000   2731009   2730422   2729873   2729346   2728836  
  5700.000000   2728354   2727916   2727529   2727189   2726874  
  5690.000000   2726562   2726233   2725890   2725535   2725187  
  5680.000000   2724839   2724482   2724075   2723581   2722955  
  5670.000000   2722170   2721203   2720047   2718686   2717114  
  5660.000000   2715321   2713321   2711143   2708849   2706509  
  5650.000000   2704203   2701980   2699872   2697875   2695974  
  5640.000000   2694148   2692385   2690680   2689031   2687428  
  5630.000000   2685855   2684290   2682715   2681136   2679574  
  5620.000000   2678071   2676661   2675370   2674186   2673080  
  5610.000000   2672001   2670915   2669801   2668672   2667556  
  5600.000000   2666493   2665506   2664605   2663779   2663007  
  5590.000000   2662265   2661534   2660800   2660051   2659274  
  5580.000000   2658456   2657586   2656662   2655693   2654695  
  5570.000000   2653686   2652676   2651664   2650639   2649589  
  5560.000000   2648505   2647387   2646247   2645098   2643950  
  5550.000000   2642807   2641667   2640530   2639401   2638294  
  5540.000000   2637225   2636208   2635238   2634301   2633370  
  5530.000000   2632423   2631448   2630453   2629456   2628475  
  5520.000000   2627516   2626568   2625602   2624586   2623495  
  5510.000000   2622322   2621076   2619780   2618451   2617107  
  5500.000000   2615754   2614401   2613056   2611737   2610458  
  5490.000000   2609228   2608032   2606842   2605614   2604315  
  5480.000000   2602925   2601458   2599937   2598402   2596873  
  5470.000000   2595354   2593822   2592247   2590599   2588867  
  5460.000000   2587050   2585163   2583218   2581221   2579172  
  5450.000000   2577073   2574932   2572772   2570624   2568519  
  5440.000000   2566477   2564504   2562597   2560751   2558971  
  5430.000000   2557267   2555652   2554124   2552670   2551255  
  5420.000000   2549854   2548450   2547067   2545745   2544554  
  5410.000000   2543528   2542684   2541977   2541355   2540747  
  5400.000000   2540132   2539506   2538930   2538453   2538144  
  5390.000000   2538016   2538074   2538281   2538627   2539094  
  5380.000000   2539716   2540505   2541499   2542679   2544037  
  5370.000000   2545511   2547082   2548703   2550400   2552162  
  5360.000000   2554048   2556056   2558246   2560614   2563236  
  5350.000000   2566125   2569374   2572996   2577065   2581550  
  5340.000000   2586486   2591816   2597583   2603746   2610375  
  5330.000000   2617428   2624960   2632896   2641267   2649997  
  5320.000000   2659156   2668721   2678826   2689480   2700821  
  5310.000000   2712823   2725573   2738993   2753149   2767977  
  5300.000000   2783576   2799930   2817171   2835295   2854418  
  5290.000000   2874487   2895536   2917424   2940095   2963360  
  5280.000000   2987168   3011408   3036146   3061405   3087333  
  5270.000000   3113970   3141358   3169373   3197848   3226538  
  5260.000000   3255247   3283858   3312357   3340815   3369293  
  5250.000000   3397825   3426304   3454579   3482381   3509541  
  5240.000000   3535871   3561398   3586121   3610209   3633705  
  5230.000000   3656733   3679219   3701160   3722373   3742818  
  5220.000000   3762352   3781039   3798856   3815984   3832463  
  5210.000000   3848467   3863956   3878974   3893343   3907017  
  5200.000000   3919810   3931757   3942802   3953101   3962676  
  5190.000000   3971678   3980066   3987896   3995048   4001544  
  5180.000000   4007288   4012356   4016710   4020455   4023551  
  5170.000000   4026073   4027960   4029284   4030010   4030244  
  5160.000000   4029983   4029326   4028243   4026781   4024873  
  5150.000000   4022551   4019767   4016585   4012996   4009077  
  5140.000000   4004819   4000278   3995437   3990347   3985012  
  5130.000000   3979501   3973831   3968062   3962190   3956240  
  5120.000000   3950187   3944047   3937812   3931513   3925163  
  5110.000000   3918792   3912404   3906008   3899596   3893178  
  5100.000000   3886764   3880380   3874048   3867788   3861601  
  5090.000000   3855482   3849416   3843393   3837408   3831467  
  5080.000000   3825569   3819708   3813860   3807992   3802063  
  5070.000000   3796049   3789940   3783755   3777516   3771259  
  5060.000000   3764998   3758742   3752469   3746166   3739806  
  5050.000000   3733385   3726899   3720361   3713773   3707143  
  5040.000000   3700465   3693738   3686960   3680141   3673299  
  5030.000000   3666459   3659644   3652873   3646160   3639510  
  5020.000000   3632933   3626429   3620016   3613701   3607507  
  5010.000000   3601436   3595510   3589723   3584096   3578622  
  5000.000000   3573330   3568214   3563306   3558594   3554106  
  4990.000000   3549825   3545776   3541938   3538343   3534969  
  4980.000000   3531853   3528974   3526373   3524034   3522008  
  4970.000000   3520287   3518926   3517909   3517280   3516998  
  4960.000000   3517088   3517500   3518267   3519357   3520829  
  4950.000000   3522673   3524955   3527646   3530783   3534301  
  4940.000000   3538212   3542441   3547011   3551875   3557083  
  4930.000000   3562614   3568530   3574806   3581492   3588553  
  4920.000000   3596023   3603860   3612089   3620667   3629611  
  4910.000000   3638877   3648477   3658368   3668554   3678996  
  4900.000000   3689680   3700563   3711617   3722799   3734071  
  4890.000000   3745399   3756739   3768058   3779293   3790399  
  4880.000000   3801285   3811897   3822135   3831960   3841287  
  4870.000000   3850108   3858360   3866065   3873184   3879762  
  4860.000000   3885775   3891283   3896267   3900784   3904807  
  4850.000000   3908387   3911503   3914217   3916534   3918541  
  4840.000000   3920270   3921812   3923197   3924494   3925714  
  4830.000000   3926901   3928056   3929209   3930360   3931529  
  4820.000000   3932708   3933903   3935102   3936306   3937518  
  4810.000000   3938750   3940022   3941352   3942758   3944241  
  4800.000000   3945798   3947415   3949080   3950780   3952509  
  4790.000000   3954267   3956057   3957880   3959737   3961626  
  4780.000000   3963542   3965480   3967434   3969394   3971346  
  4770.000000   3973274   3975155   3976975   3978719   3980390  
  4760.000000   3981991   3983539   3985041   3986509   3987933  
  4750.000000   3989308   3990609   3991824   3992932   3993935  
  4740.000000   3994829   3995630   3996345   3996993   3997581  
  4730.000000   3998120   3998608   3999048   3999432   3999758  
  4720.000000   4000026   4000239   4000409   4000550   4000687  
  4710.000000   4000838   4001033   4001294   4001649   4002117  
  4700.000000   4002725   4003488   4004424   4005537   4006830  
  4690.000000   4008292   4009915   4011675   4013556   4015525  
  4680.000000   4017560   4019615   4021657   4023632   4025509  
  4670.000000   4027249   4028851   4030317   4031691   4033018  
  4660.000000   4034371   4035807   4037395   4039176   4041184  
  4650.000000   4043431   4045915   4048622   4051529   4054603  
  4640.000000   4057813   4061124   4064501   4067913   4071325  
  4630.000000   4074705   4078017   4081232   4084314   4087238  
  4620.000000   4089972   4092497   4094777   4096796   4098520  
  4610.000000   4099946   4101056   4101883   4102446   4102812  
  4600.000000   4103021   4103144   4103199   4103228   4103209  
  4590.000000   4103147   4102998   4102751   4102358   4101808  
  4580.000000   4101058   4100098   4098895   4097453   4095764  
  4570.000000   4093861   4091770   4089546   4087220   4084839  
  4560.000000   4082410   4079950   4077440   4074878   4072248  
  4550.000000   4069557   4066806   4064019   4061208   4058393  
  4540.000000   4055585   4052790   4050014   4047254   4044518  
  4530.000000   4041801   4039116   4036458   4033844   4031267  
  4520.000000   4028753   4026292   4023926   4021650   4019524  
  4510.000000   4017559   4015840   4014391   4013321   4012655  
  4500.000000   4012498   4012851   4013797   4015302   4017435  
  4490.000000   4020156   4023548   4027588   4032383   4037914  
  4480.000000   4044279   4051431   4059430   4068197   4077764  
  4470.000000   4088042   4099058   4110724   4123059   4135970  
  4460.000000   4149453   4163400   4177785   4192495   4207494  
  4450.000000   4222680   4238025   4253459   4268972   4284531  
  4440.000000   4300142   4315799   4331496   4347232   4362968  
  4430.000000   4378688   4394318   4409835   4425145   4440228  
  4420.000000   4454982   4469390   4483342   4496816   4509691  
  4410.000000   4521935   4533419   4544110   4553893   4562771  
  4400.000000   4570683   4577702   4583850   4589271   4594045  
  4390.000000   4598346   4602260   4605935   4609425   4612830  
  4380.000000   4616164   4619487   4622797   4626140   4629525  
  4370.000000   4633004   4636604   4640373   4644336   4648513  
  4360.000000   4652903   4657498   4662267   4667201   4672251  
  4350.000000   4677422   4682654   4687965   4693291   4698665  
  4340.000000   4704026   4709382   4714617   4719606   4724057  
  4330.000000   4727626   4729850   4730308   4728649   4724758  
  4320.000000   4718760   4711085   4702347   4693285   4684572  
  4310.000000   4676763   4670158   4664876   4660819   4657817  
  4300.000000   4655648   4654127   4653111   4652501   4652245  
  4290.000000   4652281   4652596   4653138   4653921   4654922  
  4280.000000   4656172   4657665   4659403   4661366   4663510  
  4270.000000   4665794   4668137   4670462   4672622   4674447  
  4260.000000   4675693   4676109   4675438   4673519   4670286  
  4250.000000   4665849   4660431   4654388   4648079   4641876  
  4240.000000   4636027   4630714   4625964   4621754   4617964  
  4230.000000   4614485   4611185   4607966   4604750   4601479  
  4220.000000   4598142   4594723   4591276   4587830   4584487  
  4210.000000   4581308   4578401   4575819   4573635   4571862  
  4200.000000   4570520   4569573   4569002   4568736   4568740  
  4190.000000   4568936   4569301   4569773   4570361   4571025  
  4180.000000   4571800   4572662   4573657   4574769   4576061  
  4170.000000   4577535   4579281   4581322   4583754   4586594  
  4160.000000   4589914   4593695   4597974   4602706   4607921  
  4150.000000   4613577   4619716   4626298   4633369   4640875  
  4140.000000   4648852   4657236   4666068   4675297   4684980  
  4130.000000   4695085   4705678   4716728   4728295   4740345  
  4120.000000   4752932   4766025   4779678   4793866   4808636  
  4110.000000   4823956   4839847   4856252   4873154   4890463  
  4100.000000   4908130   4926054   4944181   4962435   4980793  
  4090.000000   4999225   5017731   5036309   5054949   5073648  
  4080.000000   5092375   5111122   5129842   5148526   5167101  
  4070.000000   5185538   5203720   5221595   5239031   5255999  
  4060.000000   5272399   5288253   5303490   5318157   5332175  
  4050.000000   5345596   5358346   5370509   5382036   5393033  
  4040.000000   5403439   5413318   5422550   5431152   5438980  
  4030.000000   5446067   5452310   5457780   5462415   5466288  
  4020.000000   5469318   5471590   5473100   5473959   5474140  
  4010.000000   5473796   5473003   5471770   5469851   5467283  
  4000.000000   5464382  
##END= 
