##TITLE= Sample 030 By ssteindl date Montag, November 26 2018
##JCAMP-DX= 4.24
##DATA TYPE= INFRARED SPECTRUM
##ORIGIN= Exported PE Spectrum Data File
##OWNER= Sandra Steindl
##DATE= 18/11/26
##TIME= 11:49:06.00
##SPECTROMETER/DATA SYSTEM= PERKIN-ELMER Frontier FT-IR/NIR IR
##INSTRUMENT PARAMETERS=
  APODIZATION=stark
  DETECTOR=INGAAS
##RESOLUTION= 16.000000
##DELTAX= -2.000000
##XUNITS= 1/CM
##YUNITS= A
##XFACTOR= 1.00
##YFACTOR= 0.00000011920928955078
##FIRSTX= 10000.00
##LASTX= 4000.00
##NPOINTS= 3001
##FIRSTY= 0.262683
##MAXY= 0.656188
##MINY= 0.208778
##XYDATA= (X++(Y..Y))
 10000.000000   2203541   2206881   2212349   2221960   2234065  
  9990.000000   2244761   2251058   2251818   2246936   2237343  
  9980.000000   2225317   2213792   2205039   2200218   2199356  
  9970.000000   2201663   2205680   2209962   2213326   2215153  
  9960.000000   2215285   2214042   2211946   2209646   2207692  
  9950.000000   2206419   2205862   2205718   2205482   2204603  
  9940.000000   2202712   2199788   2196160   2192417   2189147  
  9930.000000   2186683   2184943   2183402   2181321   2177994  
  9920.000000   2173112   2166880   2160050   2153664   2148771  
  9910.000000   2146110   2145931   2147980   2151589   2155886  
  9900.000000   2160011   2163306   2165458   2166512   2166820  
  9890.000000   2166854   2167058   2167639   2168569   2169524  
  9880.000000   2170113   2169933   2168794   2166739   2164012  
  9870.000000   2161007   2158034   2155362   2153049   2151174  
  9860.000000   2149790   2149111   2149399   2150857   2153456  
  9850.000000   2156748   2159949   2161986   2161885   2158934  
  9840.000000   2153023   2144630   2134833   2125045   2116768  
  9830.000000   2111291   2109458   2111546   2117179   2125438  
  9820.000000   2134943   2144177   2151716   2156606   2158518  
  9810.000000   2157834   2155523   2152788   2150797   2150246  
  9800.000000   2151295   2153457   2155830   2157355   2157113  
  9790.000000   2154641   2150004   2143868   2137248   2131334  
  9780.000000   2127108   2125174   2125523   2127617   2130463  
  9770.000000   2133005   2134361   2134191   2132695   2130551  
  9760.000000   2128577   2127383   2127140   2127437   2127506  
  9750.000000   2126408   2123440   2118333   2111374   2103339  
  9740.000000   2095236   2088114   2082766   2079664   2078853  
  9730.000000   2080016   2082514   2085473   2087958   2089104  
  9720.000000   2088386   2085685   2081417   2076315   2071328  
  9710.000000   2067214   2064487   2063185   2063081   2063756  
  9700.000000   2064858   2066206   2067758   2069605   2071754  
  9690.000000   2074199   2076833   2079620   2082605   2085910  
  9680.000000   2089636   2093649   2097533   2100516   2101740  
  9670.000000   2100460   2096413   2089911   2081832   2073396  
  9660.000000   2065800   2059986   2056379   2055005   2055513  
  9650.000000   2057499   2060524   2064257   2068318   2072284  
  9640.000000   2075614   2077753   2078280   2077026   2074217  
  9630.000000   2070356   2066161   2062276   2059155   2056927  
  9620.000000   2055431   2054333   2053240   2051850   2049984  
  9610.000000   2047644   2044953   2042153   2039503   2037249  
  9600.000000   2035542   2034438   2033916   2033896   2034322  
  9590.000000   2035124   2036260   2037600   2038934   2039916  
  9580.000000   2040173   2039395   2037515   2034771   2031714  
  9570.000000   2029066   2027512   2027487   2029012   2031709  
  9560.000000   2034895   2037836   2039918   2040840   2040586  
  9550.000000   2039396   2037608   2035574   2033581   2031849  
  9540.000000   2030515   2029622   2029081   2028657   2028001  
  9530.000000   2026741   2024640   2021681   2018153   2014532  
  9520.000000   2011343   2008914   2007255   2006070   2004935  
  9510.000000   2003574   2002042   2000783   2000462   2001684  
  9500.000000   2004706   2009249   2014546   2019513   2023087  
  9490.000000   2024512   2023568   2020598   2016393   2011960  
  9480.000000   2008256   2005986   2005474   2006634   2008995  
  9470.000000   2011791   2014090   2015010   2013919   2010675  
  9460.000000   2005662   1999766   1994103   1989741   1987377  
  9450.000000   1987190   1988821   1991544   1994497   1996941  
  9440.000000   1998398   1998710   1997960   1996355   1994133  
  9430.000000   1991495   1988627   1985698   1982879   1980316  
  9420.000000   1978107   1976309   1974945   1974057   1973680  
  9410.000000   1973818   1974359   1975040   1975451   1975119  
  9400.000000   1973669   1970951   1967212   1963043   1959286  
  9390.000000   1956716   1955800   1956495   1958289   1960394  
  9380.000000   1962026   1962669   1962220   1960993   1959576  
  9370.000000   1958581   1958418   1959156   1960555   1962173  
  9360.000000   1963551   1964329   1964373   1963756   1962758  
  9350.000000   1961714   1960918   1960488   1960356   1960282  
  9340.000000   1959974   1959198   1957911   1956347   1954973  
  9330.000000   1954404   1955133   1957402   1961026   1965494  
  9320.000000   1970069   1974036   1976862   1978320   1978477  
  9310.000000   1977582   1975915   1973679   1970986   1967883  
  9300.000000   1964449   1960829   1957229   1953882   1950925  
  9290.000000   1948417   1946252   1944317   1942480   1940770  
  9280.000000   1939331   1938385   1938097   1938430   1939139  
  9270.000000   1939803   1939958   1939215   1937374   1934497  
  9260.000000   1930925   1927175   1923830   1921368   1920100  
  9250.000000   1920037   1920892   1922060   1922791   1922384  
  9240.000000   1920433   1916971   1912499   1907915   1904287  
  9230.000000   1902538   1903140   1905952   1910288   1915133  
  9220.000000   1919446   1922413   1923619   1923121   1921360  
  9210.000000   1918968   1916547   1914540   1913211   1912625  
  9200.000000   1912694   1913178   1913747   1914061   1913810  
  9190.000000   1912823   1911076   1908765   1906239   1903921  
  9180.000000   1902161   1901135   1900807   1900954   1901248  
  9170.000000   1901410   1901274   1900864   1900298   1899752  
  9160.000000   1899347   1899096   1898914   1898615   1898038  
  9150.000000   1897032   1895537   1893527   1891030   1888117  
  9140.000000   1884913   1881634   1878592   1876200   1874885  
  9130.000000   1874967   1876504   1879240   1882621   1885894  
  9120.000000   1888298   1889289   1888746   1886968   1884587  
  9110.000000   1882324   1880784   1880243   1880602   1881452  
  9100.000000   1882303   1882762   1882686   1882172   1881452  
  9090.000000   1880750   1880138   1879512   1878669   1877468  
  9080.000000   1875974   1874469   1873357   1873014   1873606  
  9070.000000   1875010   1876817   1878522   1879725   1880269  
  9060.000000   1880249   1879899   1879426   1878873   1878089  
  9050.000000   1876822   1874925   1872495   1869931   1867796  
  9040.000000   1866586   1866517   1867382   1868646   1869623  
  9030.000000   1869787   1868987   1867502   1865912   1864822  
  9020.000000   1864599   1865227   1866326   1867339   1867776  
  9010.000000   1867410   1866362   1865005   1863779   1863014  
  9000.000000   1862791   1862974   1863256   1863333   1862996  
  8990.000000   1862202   1861054   1859727   1858405   1857209  
  8980.000000   1856183   1855281   1854402   1853394   1852109  
  8970.000000   1850451   1848440   1846235   1844122   1842471  
  8960.000000   1841628   1841794   1842932   1844748   1846785  
  8950.000000   1848526   1849567   1849705   1849019   1847774  
  8940.000000   1846348   1845067   1844148   1843654   1843521  
  8930.000000   1843635   1843886   1844239   1844723   1845422  
  8920.000000   1846398   1847659   1849092   1850475   1851506  
  8910.000000   1851882   1851417   1850095   1848133   1845926  
  8900.000000   1843945   1842590   1842027   1842161   1842655  
  8890.000000   1843087   1843113   1842604   1841706   1840741  
  8880.000000   1840048   1839799   1839898   1840015   1839762  
  8870.000000   1838877   1837415   1835747   1834460   1834104  
  8860.000000   1834962   1836912   1839456   1841907   1843643  
  8850.000000   1844312   1843940   1842872   1841616   1840633  
  8840.000000   1840185   1840294   1840801   1841481   1842147  
  8830.000000   1842685   1843063   1843265   1843273   1843042  
  8820.000000   1842534   1841767   1840832   1839896   1839146  
  8810.000000   1838731   1838723   1839120   1839875   1840942  
  8800.000000   1842290   1843892   1845682   1847505   1849128  
  8790.000000   1850251   1850654   1850230   1849108   1847572  
  8780.000000   1846021   1844825   1844218   1844266   1844861  
  8770.000000   1845863   1847149   1848728   1850675   1853099  
  8760.000000   1855999   1859214   1862404   1865107   1866892  
  8750.000000   1867448   1866733   1864937   1862461   1859780  
  8740.000000   1857320   1855402   1854172   1853672   1853833  
  8730.000000   1854575   1855778   1857322   1859037   1860707  
  8720.000000   1862091   1862946   1863123   1862562   1861374  
  8710.000000   1859764   1858041   1856512   1855449   1855049  
  8700.000000   1855400   1856527   1858359   1860792   1863645  
  8690.000000   1866698   1869690   1872338   1874395   1875660  
  8680.000000   1876073   1875659   1874581   1873042   1871309  
  8670.000000   1869627   1868220   1867267   1866896   1867212  
  8660.000000   1868247   1869997   1872347   1875142   1878164  
  8650.000000   1881201   1884054   1886567   1888655   1890248  
  8640.000000   1891319   1891815   1891737   1891085   1889951  
  8630.000000   1888473   1886878   1885421   1884341   1883825  
  8620.000000   1883960   1884771   1886195   1888162   1890566  
  8610.000000   1893327   1896352   1899546   1902791   1905939  
  8600.000000   1908839   1911321   1913247   1914502   1915054  
  8590.000000   1914933   1914275   1913294   1912273   1911502  
  8580.000000   1911196   1911463   1912239   1913346   1914514  
  8570.000000   1915497   1916141   1916437   1916507   1916537  
  8560.000000   1916709   1917111   1917733   1918474   1919232  
  8550.000000   1919932   1920583   1921255   1922041   1923021  
  8540.000000   1924208   1925575   1927068   1928655   1930326  
  8530.000000   1932089   1933916   1935710   1937282   1938401  
  8520.000000   1938870   1938607   1937702   1936398   1935031  
  8510.000000   1933913   1933235   1933007   1933086   1933252  
  8500.000000   1933312   1933185   1932926   1932698   1932701  
  8490.000000   1933090   1933927   1935172   1936725   1938450  
  8480.000000   1940246   1942037   1943791   1945482   1947081  
  8470.000000   1948550   1949865   1951028   1952082   1953103  
  8460.000000   1954176   1955364   1956663   1958005   1959261  
  8450.000000   1960293   1960990   1961309   1961294   1961059  
  8440.000000   1960757   1960531   1960467   1960589   1960847  
  8430.000000   1961178   1961514   1961861   1962278   1962891  
  8420.000000   1963812   1965102   1966709   1968457   1970079  
  8410.000000   1971265   1971775   1971485   1970458   1968895  
  8400.000000   1967091   1965358   1963952   1963042   1962671  
  8390.000000   1962818   1963398   1964337   1965535   1966902  
  8380.000000   1968312   1969625   1970681   1971330   1971468  
  8370.000000   1971056   1970152   1968870   1967376   1965822  
  8360.000000   1964335   1963001   1961855   1960925   1960221  
  8350.000000   1959777   1959619   1959775   1960225   1960902  
  8340.000000   1961676   1962380   1962851   1962963   1962680  
  8330.000000   1962057   1961242   1960423   1959780   1959423  
  8320.000000   1959372   1959560   1959860   1960136   1960272  
  8310.000000   1960219   1959973   1959579   1959081   1958533  
  8300.000000   1957976   1957457   1957023   1956701   1956481  
  8290.000000   1956302   1956040   1955545   1954680   1953397  
  8280.000000   1951783   1950054   1948494   1947354   1946753  
  8270.000000   1946627   1946729   1946722   1946300   1945315  
  8260.000000   1943841   1942143   1940570   1939425   1938849  
  8250.000000   1938773   1938955   1939065   1938829   1938108  
  8240.000000   1936943   1935519   1934072   1932824   1931900  
  8230.000000   1931328   1931048   1930949   1930907   1930804  
  8220.000000   1930538   1930018   1929170   1927953   1926365  
  8210.000000   1924480   1922420   1920356   1918454   1916856  
  8200.000000   1915631   1914790   1914269   1913966   1913739  
  8190.000000   1913435   1912887   1911942   1910477   1908438  
  8180.000000   1905868   1902918   1899828   1896881   1894343  
  8170.000000   1892395   1891085   1890318   1889878   1889491  
  8160.000000   1888895   1887913   1886487   1884687   1882681  
  8150.000000   1880687   1878916   1877518   1876548   1875956  
  8140.000000   1875612   1875336   1874960   1874348   1873445  
  8130.000000   1872254   1870842   1869293   1867688   1866080  
  8120.000000   1864495   1862947   1861463   1860099   1858942  
  8110.000000   1858093   1857631   1857577   1857867   1858358  
  8100.000000   1858845   1859112   1858986   1858376   1857311  
  8090.000000   1855919   1854408   1852995   1851855   1851068  
  8080.000000   1850601   1850324   1850043   1849580   1848811  
  8070.000000   1847725   1846407   1845030   1843775   1842791  
  8060.000000   1842123   1841716   1841420   1841047   1840428  
  8050.000000   1839468   1838171   1836622   1834955   1833290  
  8040.000000   1831706   1830206   1828751   1827272   1825734  
  8030.000000   1824148   1822596   1821206   1820115   1819434  
  8020.000000   1819211   1819425   1819990   1820777   1821647  
  8010.000000   1822467   1823136   1823580   1823767   1823690  
  8000.000000   1823376   1822865   1822215   1821482   1820719  
  7990.000000   1819964   1819239   1818556   1817910   1817302  
  7980.000000   1816721   1816162   1815608   1815042   1814442  
  7970.000000   1813789   1813079   1812326   1811554   1810798  
  7960.000000   1810080   1809413   1808793   1808216   1807688  
  7950.000000   1807236   1806898   1806707   1806664   1806721  
  7940.000000   1806777   1806708   1806409   1805830   1805016  
  7930.000000   1804081   1803180   1802440   1801914   1801554  
  7920.000000   1801243   1800845   1800281   1799570   1798835  
  7910.000000   1798257   1798000   1798137   1798609   1799246  
  7900.000000   1799828   1800169   1800194   1799957   1799631  
  7890.000000   1799412   1799460   1799817   1800397   1801015  
  7880.000000   1801464   1801581   1801317   1800749   1800055  
  7870.000000   1799462   1799162   1799269   1799770   1800556  
  7860.000000   1801433   1802209   1802728   1802931   1802853  
  7850.000000   1802607   1802329   1802121   1802004   1801905  
  7840.000000   1801679   1801163   1800244   1798906   1797251  
  7830.000000   1795484   1793842   1792551   1791747   1791469  
  7820.000000   1791643   1792125   1792728   1793271   1793601  
  7810.000000   1793613   1793259   1792548   1791552   1790390  
  7800.000000   1789212   1788167   1787372   1786876   1786660  
  7790.000000   1786635   1786678   1786663   1786489   1786103  
  7780.000000   1785494   1784691   1783751   1782755   1781800  
  7770.000000   1780992   1780436   1780201   1780300   1780661  
  7760.000000   1781139   1781542   1781686   1781452   1780825  
  7750.000000   1779902   1778851   1777862   1777080   1776564  
  7740.000000   1776282   1776132   1775987   1775739   1775319  
  7730.000000   1774712   1773941   1773058   1772125   1771213  
  7720.000000   1770390   1769713   1769220   1768905   1768725  
  7710.000000   1768596   1768422   1768125   1767671   1767079  
  7700.000000   1766413   1765760   1765193   1764758   1764458  
  7690.000000   1764274   1764171   1764116   1764077   1764021  
  7680.000000   1763900   1763648   1763204   1762515   1761577  
  7670.000000   1760429   1759158   1757863   1756636   1755538  
  7660.000000   1754599   1753833   1753255   1752897   1752794  
  7650.000000   1752974   1753417   1754049   1754748   1755369  
  7640.000000   1755800   1755983   1755946   1755768   1755557  
  7630.000000   1755387   1755275   1755175   1755006   1754699  
  7620.000000   1754235   1753663   1753090   1752636   1752400  
  7610.000000   1752412   1752627   1752931   1753190   1753279  
  7600.000000   1753135   1752769   1752267   1751763   1751416  
  7590.000000   1751359   1751672   1752356   1753329   1754445  
  7580.000000   1755530   1756425   1757027   1757309   1757321  
  7570.000000   1757162   1756951   1756784   1756709   1756726  
  7560.000000   1756804   1756909   1757023   1757162   1757357  
  7550.000000   1757642   1758021   1758461   1758889   1759209  
  7540.000000   1759339   1759221   1758859   1758302   1757656  
  7530.000000   1757048   1756614   1756460   1756661   1757228  
  7520.000000   1758124   1759256   1760505   1761744   1762881  
  7510.000000   1763870   1764738   1765555   1766427   1767436  
  7500.000000   1768632   1769995   1771455   1772909   1774273  
  7490.000000   1775501   1776617   1777685   1778797   1780019  
  7480.000000   1781371   1782804   1784229   1785538   1786655  
  7470.000000   1787557   1788296   1788973   1789715   1790632  
  7460.000000   1791793   1793204   1794818   1796547   1798291  
  7450.000000   1799956   1801487   1802856   1804091   1805238  
  7440.000000   1806383   1807596   1808938   1810427   1812046  
  7430.000000   1813756   1815516   1817319   1819206   1821262  
  7420.000000   1823589   1826256   1829248   1832450   1835652  
  7410.000000   1838602   1841089   1842992   1844338   1845278  
  7400.000000   1846041   1846860   1847896   1849216   1850793  
  7390.000000   1852550   1854404   1856305   1858235   1860199  
  7380.000000   1862175   1864113   1865932   1867556   1868960  
  7370.000000   1870187   1871359   1872622   1874114   1875898  
  7360.000000   1877949   1880168   1882419   1884589   1886621  
  7350.000000   1888532   1890388   1892269   1894223   1896254  
  7340.000000   1898316   1900341   1902266   1904053   1905697  
  7330.000000   1907216   1908635   1909978   1911263   1912503  
  7320.000000   1913708   1914894   1916076   1917271   1918496  
  7310.000000   1919766   1921096   1922501   1923985   1925549  
  7300.000000   1927174   1928834   1930496   1932136   1933746  
  7290.000000   1935335   1936914   1938486   1940028   1941487  
  7280.000000   1942800   1943915   1944815   1945532   1946138  
  7270.000000   1946716   1947333   1948011   1948730   1949451  
  7260.000000   1950146   1950827   1951548   1952385   1953402  
  7250.000000   1954612   1955973   1957394   1958790   1960108  
  7240.000000   1961378   1962677   1964119   1965775   1967667  
  7230.000000   1969722   1971842   1973912   1975886   1977767  
  7220.000000   1979643   1981607   1983759   1986137   1988750  
  7210.000000   1991552   1994496   1997527   2000611   2003718  
  7200.000000   2006831   2009931   2013020   2016108   2019242  
  7190.000000   2022470   2025847   2029379   2033033   2036702  
  7180.000000   2040267   2043602   2046647   2049408   2051980  
  7170.000000   2054494   2057110   2059955   2063121   2066631  
  7160.000000   2070469   2074570   2078863   2083259   2087689  
  7150.000000   2092086   2096431   2100723   2105023   2109394  
  7140.000000   2113925   2118645   2123560   2128600   2133694  
  7130.000000   2138762   2143784   2148777   2153825   2159005  
  7120.000000   2164398   2170017   2175841   2181789   2187792  
  7110.000000   2193775   2199718   2205611   2211486   2217368  
  7100.000000   2223305   2229334   2235513   2241886   2248498  
  7090.000000   2255354   2262426   2269627   2276851   2283974  
  7080.000000   2290913   2297616   2304098   2310403   2316615  
  7070.000000   2322802   2329030   2335337   2341748   2348273  
  7060.000000   2354917   2361672   2368524   2375451   2382427  
  7050.000000   2389425   2396423   2403402   2410342   2417219  
  7040.000000   2424004   2430682   2437254   2443753   2450234  
  7030.000000   2456758   2463355   2470011   2476650   2483165  
  7020.000000   2489445   2495432   2501132   2506630   2512041  
  7010.000000   2517484   2523017   2528653   2534334   2540005  
  7000.000000   2545606   2551128   2556569   2561948   2567248  
  6990.000000   2572433   2577438   2582217   2586753   2591085  
  6980.000000   2595280   2599423   2603561   2607717   2611862  
  6970.000000   2615977   2620035   2624062   2628075   2632110  
  6960.000000   2636146   2640143   2644011   2647683   2651108  
  6950.000000   2654300   2657300   2660170   2662937   2665600  
  6940.000000   2668113   2670444   2672578   2674568   2676492  
  6930.000000   2678453   2680509   2682677   2684901   2687114  
  6920.000000   2689240   2691264   2693203   2695118   2697056  
  6910.000000   2699038   2701038   2703005   2704884   2706644  
  6900.000000   2708279   2709807   2711244   2712592   2713831  
  6890.000000   2714948   2715948   2716883   2717835   2718900  
  6880.000000   2720142   2721577   2723147   2724758   2726295  
  6870.000000   2727676   2728861   2729867   2730738   2731528  
  6860.000000   2732283   2733035   2733808   2734628   2735521  
  6850.000000   2736511   2737602   2738777   2739989   2741187  
  6840.000000   2742325   2743393   2744406   2745404   2746425  
  6830.000000   2747487   2748579   2749671   2750719   2751693  
  6820.000000   2752571   2753349   2754021   2754586   2755037  
  6810.000000   2755385   2755654   2755902   2756190   2756580  
  6800.000000   2757088   2757690   2758304   2758830   2759171  
  6790.000000   2759278   2759155   2758861   2758483   2758113  
  6780.000000   2757820   2757641   2757582   2757629   2757753  
  6770.000000   2757925   2758107   2758270   2758386   2758449  
  6760.000000   2758468   2758479   2758526   2758650   2758864  
  6750.000000   2759148   2759451   2759709   2759865   2759889  
  6740.000000   2759787   2759594   2759359   2759129   2758938  
  6730.000000   2758804   2758733   2758728   2758785   2758898  
  6720.000000   2759046   2759203   2759332   2759404   2759398  
  6710.000000   2759320   2759188   2759031   2758869   2758711  
  6700.000000   2758546   2758352   2758104   2757787   2757390  
  6690.000000   2756916   2756368   2755756   2755089   2754389  
  6680.000000   2753680   2752996   2752356   2751774   2751232  
  6670.000000   2750703   2750144   2749526   2748835   2748084  
  6660.000000   2747292   2746482   2745657   2744805   2743897  
  6650.000000   2742913   2741840   2740695   2739506   2738312  
  6640.000000   2737135   2735988   2734861   2733750   2732641  
  6630.000000   2731537   2730431   2729322   2728187   2727001  
  6620.000000   2725730   2724356   2722877   2721315   2719697  
  6610.000000   2718051   2716387   2714707   2713003   2711285  
  6600.000000   2709576   2707922   2706366   2704934   2703611  
  6590.000000   2702351   2701080   2699733   2698270   2696690  
  6580.000000   2695025   2693320   2691611   2689913   2688219  
  6570.000000   2686513   2684785   2683042   2681305   2679600  
  6560.000000   2677942   2676332   2674754   2673194   2671646  
  6550.000000   2670119   2668632   2667200   2665825   2664485  
  6540.000000   2663149   2661786   2660385   2658960   2657542  
  6530.000000   2656169   2654868   2653643   2652480   2651352  
  6520.000000   2650237   2649120   2647993   2646850   2645676  
  6510.000000   2644449   2643148   2641764   2640316   2638842  
  6500.000000   2637396   2636023   2634747   2633560   2632432  
  6490.000000   2631330   2630234   2629144   2628080   2627064  
  6480.000000   2626103   2625179   2624257   2623300   2622285  
  6470.000000   2621215   2620122   2619045   2618018   2617052  
  6460.000000   2616132   2615227   2614305   2613347   2612349  
  6450.000000   2611324   2610293   2609272   2608276   2607314  
  6440.000000   2606398   2605531   2604717   2603939   2603172  
  6430.000000   2602371   2601506   2600555   2599538   2598502  
  6420.000000   2597521   2596661   2595971   2595462   2595114  
  6410.000000   2594887   2594739   2594637   2594565   2594511  
  6400.000000   2594468   2594419   2594344   2594225   2594057  
  6390.000000   2593845   2593610   2593368   2593132   2592903  
  6380.000000   2592678   2592457   2592248   2592074   2591952  
  6370.000000   2591890   2591869   2591847   2591772   2591603  
  6360.000000   2591324   2590960   2590555   2590164   2589820  
  6350.000000   2589526   2589253   2588960   2588609   2588187  
  6340.000000   2587702   2587181   2586647   2586114   2585572  
  6330.000000   2585007   2584398   2583738   2583029   2582287  
  6320.000000   2581520   2580739   2579938   2579118   2578275  
  6310.000000   2577424   2576573   2575735   2574903   2574057  
  6300.000000   2573161   2572183   2571098   2569906   2568620  
  6290.000000   2567270   2565882   2564481   2563080   2561697  
  6280.000000   2560346   2559051   2557821   2556656   2555528  
  6270.000000   2554393   2553191   2551879   2550433   2548868  
  6260.000000   2547219   2545538   2543860   2542206   2540571  
  6250.000000   2538942   2537307   2535668   2534036   2532430  
  6240.000000   2530851   2529289   2527715   2526105   2524442  
  6230.000000   2522733   2521003   2519286   2517603   2515958  
  6220.000000   2514328   2512683   2510993   2509248   2507460  
  6210.000000   2505659   2503880   2502148   2500472   2498847  
  6200.000000   2497262   2495705   2494174   2492669   2491192  
  6190.000000   2489733   2488282   2486819   2485333   2483825  
  6180.000000   2482309   2480810   2479355   2477963   2476644  
  6170.000000   2475394   2474203   2473061   2471957   2470882  
  6160.000000   2469826   2468773   2467708   2466614   2465483  
  6150.000000   2464315   2463121   2461916   2460715   2459528  
  6140.000000   2458359   2457200   2456044   2454882   2453710  
  6130.000000   2452523   2451326   2450124   2448932   2447763  
  6120.000000   2446637   2445567   2444562   2443614   2442712  
  6110.000000   2441837   2440979   2440139   2439334   2438589  
  6100.000000   2437932   2437371   2436905   2436507   2436153  
  6090.000000   2435815   2435489   2435178   2434903   2434672  
  6080.000000   2434495   2434350   2434224   2434092   2433956  
  6070.000000   2433829   2433748   2433744   2433854   2434084  
  6060.000000   2434437   2434887   2435426   2436032   2436711  
  6050.000000   2437460   2438293   2439205   2440207   2441291  
  6040.000000   2442470   2443743   2445133   2446639   2448271  
  6030.000000   2450008   2451834   2453712   2455623   2457543  
  6020.000000   2459476   2461424   2463404   2465423   2467492  
  6010.000000   2469599   2471741   2473894   2476047   2478176  
  6000.000000   2480280   2482352   2484411   2486478   2488593  
  5990.000000   2490784   2493082   2495491   2498011   2500614  
  5980.000000   2503288   2506015   2508804   2511668   2514637  
  5970.000000   2517723   2520933   2524243   2527628   2531040  
  5960.000000   2534457   2537852   2541229   2544588   2547951  
  5950.000000   2551328   2554741   2558206   2561749   2565395  
  5940.000000   2569164   2573065   2577093   2581226   2585427  
  5930.000000   2589664   2593899   2598109   2602270   2606356  
  5920.000000   2610335   2614165   2617809   2621236   2624440  
  5910.000000   2627440   2630273   2632989   2635633   2638242  
  5900.000000   2640837   2643440   2646062   2648733   2651471  
  5890.000000   2654308   2657246   2660288   2663401   2666549  
  5880.000000   2669677   2672732   2675658   2678409   2680946  
  5870.000000   2683248   2685323   2687203   2688955   2690657  
  5860.000000   2692390   2694213   2696151   2698193   2700306  
  5850.000000   2702452   2704608   2706771   2708959   2711199  
  5840.000000   2713512   2715902   2718364   2720880   2723445  
  5830.000000   2726052   2728711   2731420   2734170   2736934  
  5820.000000   2739676   2742363   2744980   2747536   2750055  
  5810.000000   2752571   2755098   2757637   2760156   2762634  
  5800.000000   2765036   2767380   2769676   2771982   2774304  
  5790.000000   2776661   2778985   2781205   2783183   2784804  
  5780.000000   2785928   2786475   2786370   2785616   2784238  
  5770.000000   2782338   2780030   2777479   2774820   2772186  
  5760.000000   2769640   2767226   2764930   2762752   2760680  
  5750.000000   2758745   2756976   2755412   2754058   2752889  
  5740.000000   2751848   2750856   2749848   2748781   2747657  
  5730.000000   2746497   2745348   2744241   2743202   2742230  
  5720.000000   2741319   2740453   2739625   2738826   2738057  
  5710.000000   2737311   2736585   2735874   2735182   2734516  
  5700.000000   2733893   2733325   2732819   2732369   2731961  
  5690.000000   2731581   2731214   2730863   2730524   2730201  
  5680.000000   2729875   2729523   2729099   2728566   2727881  
  5670.000000   2727025   2725980   2724747   2723317   2721691  
  5660.000000   2719866   2717863   2715714   2713479   2711221  
  5650.000000   2709007   2706872   2704835   2702879   2700985  
  5640.000000   2699129   2697305   2695516   2693774   2692089  
  5630.000000   2690461   2688887   2687360   2685886   2684476  
  5620.000000   2683154   2681930   2680806   2679755   2678746  
  5610.000000   2677737   2676705   2675648   2674588   2673557  
  5600.000000   2672586   2671686   2670856   2670072   2669312  
  5590.000000   2668556   2667797   2667034   2666270   2665504  
  5580.000000   2664733   2663951   2663153   2662339   2661511  
  5570.000000   2660666   2659794   2658879   2657902   2656855  
  5560.000000   2655744   2654598   2653449   2652335   2651272  
  5550.000000   2650260   2649276   2648293   2647289   2646259  
  5540.000000   2645212   2644168   2643138   2642125   2641118  
  5530.000000   2640104   2639072   2638028   2636985   2635964  
  5520.000000   2634977   2634025   2633089   2632145   2631163  
  5510.000000   2630129   2629036   2627893   2626713   2625514  
  5500.000000   2624309   2623121   2621960   2620845   2619770  
  5490.000000   2618722   2617658   2616528   2615277   2613874  
  5480.000000   2612307   2610607   2608817   2606995   2605178  
  5470.000000   2603389   2601621   2599862   2598093   2596309  
  5460.000000   2594506   2592688   2590846   2588969   2587041  
  5450.000000   2585056   2583024   2580973   2578943   2576969  
  5440.000000   2575072   2573245   2571477   2569745   2568044  
  5430.000000   2566372   2564742   2563148   2561581   2560008  
  5420.000000   2558413   2556790   2555184   2553658   2552306  
  5410.000000   2551187   2550330   2549691   2549206   2548784  
  5400.000000   2548381   2547967   2547577   2547244   2547026  
  5390.000000   2546934   2546984   2547148   2547433   2547832  
  5380.000000   2548387   2549112   2550043   2551160   2552454  
  5370.000000   2553866   2555384   2556970   2558655   2560436  
  5360.000000   2562367   2564443   2566716   2569177   2571894  
  5350.000000   2574882   2578232   2581958   2586130   2590711  
  5340.000000   2595726   2601100   2606861   2612952   2619431  
  5330.000000   2626257   2633492   2641081   2649082   2657451  
  5320.000000   2666287   2675594   2685517   2696068   2707375  
  5310.000000   2719394   2732190   2745661   2759850   2774673  
  5300.000000   2790211   2806431   2823461   2841298   2860076  
  5290.000000   2879771   2900461   2922045   2944504   2967665  
  5280.000000   2991474   3015798   3040674   3066090   3092175  
  5270.000000   3118954   3146471   3174608   3203210   3232037  
  5260.000000   3260907   3289703   3318422   3347138   3375918  
  5250.000000   3404793   3433648   3462316   3490510   3518048  
  5240.000000   3544742   3570628   3595722   3620216   3644165  
  5230.000000   3667699   3690734   3713246   3735027   3756019  
  5220.000000   3776062   3795219   3813469   3830995   3847838  
  5210.000000   3864166   3879936   3895185   3909737   3923554  
  5200.000000   3936464   3948514   3959658   3970061   3979744  
  5190.000000   3988859   3997368   4005335   4012656   4019371  
  5180.000000   4025404   4030841   4035650   4039927   4043623  
  5170.000000   4046794   4049370   4051407   4052871   4053858  
  5160.000000   4054366   4054483   4054174   4053481   4052341  
  5150.000000   4050793   4048814   4046490   4043835   4040933  
  5140.000000   4037768   4034370   4030685   4026725   4022462  
  5130.000000   4017944   4013188   4008268   4003201   3998035  
  5120.000000   3992764   3987413   3981975   3976474   3970911  
  5110.000000   3965306   3959651   3953954   3948212   3942447  
  5100.000000   3936684   3930969   3925333   3919804   3914375  
  5090.000000   3909027   3903723   3898435   3893145   3887858  
  5080.000000   3882587   3877346   3872133   3866935   3861720  
  5070.000000   3856460   3851128   3845724   3840246   3834714  
  5060.000000   3829129   3823495   3817789   3812002   3806107  
  5050.000000   3800104   3793991   3787789   3781506   3775166  
  5040.000000   3768773   3762337   3755854   3749328   3742751  
  5030.000000   3736126   3729446   3722718   3715947   3709151  
  5020.000000   3702355   3695589   3688884   3682259   3675730  
  5010.000000   3669288   3662931   3656641   3650424   3644276  
  5000.000000   3638232   3632304   3626539   3620946   3615562  
  4990.000000   3610382   3605436   3600708   3596231   3591989  
  4980.000000   3588015   3584293   3580857   3577690   3574837  
  4970.000000   3572283   3570085   3568224   3566750   3565628  
  4960.000000   3564890   3564488   3564452   3564742   3565407  
  4950.000000   3566421   3567842   3569641   3571865   3574471  
  4940.000000   3577496   3580894   3584704   3588886   3593486  
  4930.000000   3598460   3603846   3609594   3615739   3622236  
  4920.000000   3629127   3636380   3644034   3652055   3660465  
  4910.000000   3669215   3678307   3687688   3697353   3707260  
  4900.000000   3717403   3727748   3738280   3748966   3759774  
  4890.000000   3770667   3781590   3792491   3803291   3813929  
  4880.000000   3824309   3834387   3844086   3853395   3862264  
  4870.000000   3870709   3878682   3886193   3893179   3899648  
  4860.000000   3905540   3910884   3915651   3919905   3923646  
  4850.000000   3926955   3929844   3932392   3934611   3936574  
  4840.000000   3938291   3939828   3941195   3942447   3943596  
  4830.000000   3944688   3945735   3946777   3947825   3948905  
  4820.000000   3950022   3951186   3952396   3953650   3954945  
  4810.000000   3956277   3957644   3959042   3960477   3961950  
  4800.000000   3963478   3965073   3966760   3968549   3970451  
  4790.000000   3972456   3974548   3976696   3978875   3981060  
  4780.000000   3983244   3985427   3987617   3989817   3992025  
  4770.000000   3994229   3996414   3998567   4000682   4002766  
  4760.000000   4004824   4006864   4008874   4010839   4012721  
  4750.000000   4014493   4016125   4017617   4018974   4020228  
  4740.000000   4021402   4022530   4023619   4024682   4025710  
  4730.000000   4026705   4027657   4028570   4029439   4030263  
  4720.000000   4031031   4031735   4032371   4032938   4033457  
  4710.000000   4033954   4034474   4035057   4035749   4036579  
  4700.000000   4037577   4038752   4040114   4041662   4043397  
  4690.000000   4045310   4047393   4049623   4051979   4054419  
  4680.000000   4056905   4059381   4061805   4064122   4066307  
  4670.000000   4068329   4070200   4071928   4073561   4075145  
  4660.000000   4076747   4078424   4080245   4082256   4084502  
  4650.000000   4087001   4089758   4092759   4095971   4099351  
  4640.000000   4102853   4106430   4110043   4113664   4117265  
  4630.000000   4120829   4124333   4127757   4131072   4134256  
  4620.000000   4137274   4140104   4142705   4145058   4147124  
  4610.000000   4148895   4150353   4151532   4152454   4153191  
  4600.000000   4153784   4154307   4154773   4155210   4155582  
  4590.000000   4155878   4156042   4156061   4155894   4155548  
  4580.000000   4155002   4154271   4153342   4152232   4150935  
  4570.000000   4149477   4147869   4146148   4144327   4142439  
  4560.000000   4140484   4138476   4136404   4134272   4132070  
  4550.000000   4129806   4127477   4125092   4122649   4120156  
  4540.000000   4117620   4115056   4112484   4109926   4107410  
  4530.000000   4104948   4102554   4100217   4097940   4095705  
  4520.000000   4093529   4091404   4089375   4087444   4085671  
  4510.000000   4084057   4082667   4081503   4080649   4080115  
  4500.000000   4080006   4080334   4081199   4082595   4084608  
  4490.000000   4087215   4090506   4094467   4099202   4104698  
  4480.000000   4111050   4118212   4126235   4135030   4144607  
  4470.000000   4154860   4165794   4177311   4189425   4202052  
  4460.000000   4215203   4228791   4242812   4257171   4271846  
  4450.000000   4286742   4301826   4317023   4332306   4347627  
  4440.000000   4362973   4378325   4393670   4408999   4424279  
  4430.000000   4439497   4454593   4469550   4484293   4498811  
  4420.000000   4513021   4526919   4540412   4553488   4566033  
  4410.000000   4578013   4589291   4599822   4609483   4618261  
  4400.000000   4626094   4633052   4639165   4644584   4649405  
  4390.000000   4653810   4657905   4661845   4665692   4669543  
  4380.000000   4673405   4677322   4681277   4685298   4689392  
  4370.000000   4693605   4697976   4702557   4707382   4712468  
  4360.000000   4717802   4723359   4729086   4734951   4740883  
  4350.000000   4746872   4752839   4758797   4764672   4770503  
  4340.000000   4776243   4781936   4787495   4792840   4797688  
  4330.000000   4801691   4804333   4805128   4803644   4799706  
  4320.000000   4793415   4785227   4775818   4766023   4756601  
  4310.000000   4748177   4741083   4735434   4731103   4727882  
  4300.000000   4725507   4723764   4722495   4721593   4721010  
  4290.000000   4720684   4720615   4720767   4721179   4721853  
  4280.000000   4722843   4724155   4725790   4727714   4729864  
  4270.000000   4732184   4734590   4737017   4739335   4741388  
  4260.000000   4742924   4743661   4743284   4741557   4738349  
  4250.000000   4733720   4727885   4721226   4714161   4707137  
  4240.000000   4700480   4694435   4689066   4684365   4680205  
  4230.000000   4676455   4672951   4669561   4666178   4662725  
  4220.000000   4659179   4655533   4651853   4648196   4644692  
  4210.000000   4641418   4638494   4635958   4633861   4632176  
  4200.000000   4630892   4629944   4629303   4628902   4628721  
  4190.000000   4628700   4628829   4629050   4629366   4629728  
  4180.000000   4630160   4630636   4631210   4631883   4632733  
  4170.000000   4633783   4635128   4636797   4638885   4641404  
  4160.000000   4644425   4647926   4651944   4656424   4661388  
  4150.000000   4666775   4672615   4678859   4685556   4692669  
  4140.000000   4700261   4708301   4716852   4725875   4735421  
  4130.000000   4745435   4755949   4766898   4778309   4790133  
  4120.000000   4802417   4815145   4828391   4842158   4856515  
  4110.000000   4871446   4886975   4903036   4919591   4936529  
  4100.000000   4953780   4971236   4988846   5006555   5024360  
  4090.000000   5042259   5060263   5078374   5096573   5114841  
  4080.000000   5133128   5151415   5169650   5187828   5205878  
  4070.000000   5223776   5241408   5258722   5275587   5291983  
  4060.000000   5307823   5323145   5337896   5352131   5365775  
  4050.000000   5378869   5391326   5403207   5414450   5425142  
  4040.000000   5435216   5444735   5453587   5461803   5469267  
  4030.000000   5476039   5482047   5487383   5491994   5495941  
  4020.000000   5499117   5501566   5503247   5504239   5504501  
  4010.000000   5504183   5503370   5502082   5500088   5497437  
  4000.000000   5494451  
##END= 
