##TITLE= Sample 009 By ssteindl date Montag, November 26 2018
##JCAMP-DX= 4.24
##DATA TYPE= INFRARED SPECTRUM
##ORIGIN= Exported PE Spectrum Data File
##OWNER= Sandra Steindl
##DATE= 18/11/26
##TIME= 12:11:59.00
##SPECTROMETER/DATA SYSTEM= PERKIN-ELMER Frontier FT-IR/NIR IR
##INSTRUMENT PARAMETERS=
  APODIZATION=stark
  DETECTOR=INGAAS
##RESOLUTION= 16.000000
##DELTAX= -2.000000
##XUNITS= 1/CM
##YUNITS= A
##XFACTOR= 1.00
##YFACTOR= 0.00000011920928955078
##FIRSTX= 10000.00
##LASTX= 4000.00
##NPOINTS= 3001
##FIRSTY= 0.259165
##MAXY= 0.666013
##MINY= 0.215120
##XYDATA= (X++(Y..Y))
 10000.000000   2174030   2173550   2173319   2173522   2173905  
  9990.000000   2174096   2174062   2174241   2175222   2177545  
  9980.000000   2181508   2186953   2193215   2199257   2204050  
  9970.000000   2206860   2207392   2205854   2202727   2198698  
  9960.000000   2194432   2190647   2188032   2187247   2188681  
  9950.000000   2192244   2197148   2201934   2204795   2204089  
  9940.000000   2198965   2189721   2177857   2165634   2155351  
  9930.000000   2148675   2146124   2147192   2150644   2155220  
  9920.000000   2159998   2164674   2169290   2173930   2178314  
  9910.000000   2181687   2183059   2181513   2176784   2169280  
  9900.000000   2160189   2150918   2142771   2136501   2132208  
  9890.000000   2129529   2127867   2126814   2126231   2126319  
  9880.000000   2127328   2129414   2132387   2135786   2138978  
  9870.000000   2141398   2142771   2143105   2142731   2142004  
  9860.000000   2141246   2140515   2139644   2138287   2136071  
  9850.000000   2132795   2128518   2123656   2118850   2114864  
  9840.000000   2112324   2111559   2112475   2114551   2116985  
  9830.000000   2118843   2119341   2117978   2114739   2110047  
  9820.000000   2104753   2099879   2096449   2095204   2096470  
  9810.000000   2100039   2105243   2111090   2116576   2120923  
  9800.000000   2123833   2125495   2126448   2127343   2128596  
  9790.000000   2130306   2132182   2133843   2135036   2135921  
  9780.000000   2137014   2138987   2142202   2146412   2150603  
  9770.000000   2153250   2152835   2148410   2140060   2128914  
  9760.000000   2116850   2105882   2097543   2092528   2090629  
  9750.000000   2091079   2092948   2095552   2098522   2101759  
  9740.000000   2105142   2108413   2111149   2112941   2113679  
  9730.000000   2113606   2113382   2113671   2114928   2117035  
  9720.000000   2119371   2121027   2121201   2119602   2116531  
  9710.000000   2112849   2109533   2107379   2106640   2107066  
  9700.000000   2108041   2108906   2109186   2108679   2107390  
  9690.000000   2105375   2102643   2099169   2095003   2090406  
  9680.000000   2085903   2082163   2079809   2079151   2080061  
  9670.000000   2081998   2084169   2085847   2086553   2086247  
  9660.000000   2085235   2084047   2083185   2082978   2083489  
  9650.000000   2084544   2085815   2086875   2087303   2086695  
  9640.000000   2084778   2081444   2076825   2071301   2065411  
  9630.000000   2059764   2054861   2051031   2048382   2046849  
  9620.000000   2046282   2046493   2047300   2048466   2049693  
  9610.000000   2050582   2050754   2049938   2048129   2045639  
  9600.000000   2043046   2041064   2040299   2041106   2043447  
  9590.000000   2046971   2051090   2055156   2058569   2060804  
  9580.000000   2061475   2060256   2057028   2051838   2045069  
  9570.000000   2037357   2029542   2022490   2016877   2013124  
  9560.000000   2011316   2011380   2013138   2016455   2021164  
  9550.000000   2026970   2033291   2039221   2043678   2045683  
  9540.000000   2044766   2041154   2035851   2030328   2026118  
  9530.000000   2024335   2025292   2028488   2032712   2036556  
  9520.000000   2038777   2038724   2036398   2032352   2027397  
  9510.000000   2022276   2017484   2013143   2009128   2005155  
  9500.000000   2001022   1996703   1992438   1988711   1986084  
  9490.000000   1985086   1985948   1988554   1992394   1996687  
  9480.000000   2000627   2003535   2005107   2005365   2004655  
  9470.000000   2003402   2001986   2000585   1999245   1997928  
  9460.000000   1996703   1995734   1995284   1995524   1996412  
  9450.000000   1997623   1998604   1998809   1997927   1996108  
  9440.000000   1993950   1992365   1992193   1993938   1997517  
  9430.000000   2002362   2007599   2012365   2016052   2018391  
  9420.000000   2019442   2019394   2018402   2016475   2013497  
  9410.000000   2009422   2004403   1998949   1993782   1989720  
  9400.000000   1987348   1986908   1988144   1990415   1992812  
  9390.000000   1994391   1994408   1992441   1988523   1983035  
  9380.000000   1976678   1970276   1964661   1960530   1958310  
  9370.000000   1958142   1959815   1962910   1966834   1971015  
  9360.000000   1974940   1978238   1980662   1982003   1982104  
  9350.000000   1980747   1977836   1973338   1967528   1960875  
  9340.000000   1954100   1947969   1943132   1940010   1938666  
  9330.000000   1938938   1940465   1942892   1945920   1949348  
  9320.000000   1953049   1956846   1960479   1963522   1965515  
  9310.000000   1966080   1965160   1963060   1960452   1958204  
  9300.000000   1957128   1957752   1960070   1963594   1967406  
  9290.000000   1970546   1972198   1971978   1969928   1966491  
  9280.000000   1962319   1958062   1954190   1950887   1948108  
  9270.000000   1945655   1943287   1940801   1938066   1935109  
  9260.000000   1932108   1929402   1927375   1926382   1926607  
  9250.000000   1927980   1930149   1932505   1934385   1935250  
  9240.000000   1934919   1933591   1931777   1930074   1928941  
  9230.000000   1928520   1928615   1928807   1928703   1928091  
  9220.000000   1927041   1925814   1924695   1923821   1923087  
  9210.000000   1922222   1920950   1919166   1917035   1914954  
  9200.000000   1913411   1912749   1913031   1914009   1915287  
  9190.000000   1916457   1917278   1917690   1917799   1917736  
  9180.000000   1917571   1917275   1916809   1916248   1915844  
  9170.000000   1915975   1916974   1918966   1921737   1924777  
  9160.000000   1927404   1929034   1929365   1928493   1926787  
  9150.000000   1924732   1922696   1920847   1919154   1917506  
  9140.000000   1915832   1914187   1912678   1911393   1910229  
  9130.000000   1908945   1907212   1904836   1901884   1898731  
  9120.000000   1895965   1894081   1893288   1893321   1893584  
  9110.000000   1893332   1892025   1889564   1886391   1883300  
  9100.000000   1881147   1880544   1881681   1884292   1887785  
  9090.000000   1891475   1894807   1897442   1899251   1900260  
  9080.000000   1900585   1900395   1899883   1899265   1898766  
  9070.000000   1898550   1898659   1898955   1899160   1898951  
  9060.000000   1898068   1896452   1894226   1891688   1889161  
  9050.000000   1886900   1885043   1883609   1882601   1882022  
  9040.000000   1881902   1882225   1882865   1883580   1884062  
  9030.000000   1884069   1883577   1882841   1882384   1882762  
  9020.000000   1884353   1887117   1890571   1893886   1896168  
  9010.000000   1896809   1895717   1893377   1890670   1888597  
  9000.000000   1887946   1889048   1891655   1895066   1898331  
  8990.000000   1900570   1901153   1899900   1897034   1893185  
  8980.000000   1889162   1885803   1883712   1883131   1883863  
  8970.000000   1885290   1886559   1886793   1885403   1882217  
  8960.000000   1877557   1872109   1866727   1862166   1858886  
  8950.000000   1856983   1856265   1856419   1857171   1858387  
  8940.000000   1860060   1862214   1864793   1867565   1870158  
  8930.000000   1872104   1873032   1872714   1871214   1868790  
  8920.000000   1865894   1863004   1860566   1858916   1858245  
  8910.000000   1858594   1859829   1861687   1863777   1865688  
  8900.000000   1867036   1867611   1867424   1866730   1865957  
  8890.000000   1865552   1865855   1866941   1868614   1870430  
  8880.000000   1871877   1872529   1872209   1871041   1869401  
  8870.000000   1867800   1866700   1866391   1866902   1868029  
  8860.000000   1869439   1870781   1871825   1872490   1872834  
  8850.000000   1872999   1873093   1873186   1873251   1873270  
  8840.000000   1873253   1873304   1873592   1874287   1875467  
  8830.000000   1877014   1878610   1879768   1879994   1878912  
  8820.000000   1876434   1872774   1868453   1864138   1860500  
  8810.000000   1858056   1857074   1857567   1859308   1861944  
  8800.000000   1865036   1868193   1871084   1873518   1875443  
  8790.000000   1876929   1878154   1879281   1880421   1881515  
  8780.000000   1882385   1882741   1882339   1881076   1879107  
  8770.000000   1876820   1874750   1873405   1873090   1873815  
  8760.000000   1875276   1876988   1878447   1879336   1879618  
  8750.000000   1879548   1879550   1880069   1881404   1883610  
  8740.000000   1886473   1889581   1892456   1894688   1896043  
  8730.000000   1896490   1896185   1895398   1894432   1893533  
  8720.000000   1892833   1892332   1891934   1891497   1890910  
  8710.000000   1890141   1889255   1888408   1887768   1887486  
  8700.000000   1887622   1888167   1889048   1890177   1891501  
  8690.000000   1892976   1894591   1896273   1897915   1899321  
  8680.000000   1900305   1900713   1900550   1899961   1899256  
  8670.000000   1898795   1898910   1899791   1901449   1903752  
  8660.000000   1906466   1909368   1912267   1915076   1917762  
  8650.000000   1920332   1922763   1924996   1926946   1928507  
  8640.000000   1929605   1930181   1930249   1929840   1929035  
  8630.000000   1927925   1926642   1925343   1924200   1923392  
  8620.000000   1923065   1923338   1924250   1925808   1927941  
  8610.000000   1930562   1933535   1936710   1939919   1942980  
  8600.000000   1945746   1948071   1949878   1951104   1951752  
  8590.000000   1951835   1951403   1950547   1949425   1948279  
  8580.000000   1947391   1947076   1947565   1948962   1951141  
  8570.000000   1953798   1956489   1958777   1960335   1961041  
  8560.000000   1961006   1960491   1959827   1959275   1958995  
  8550.000000   1959000   1959221   1959553   1959939   1960384  
  8540.000000   1960942   1961682   1962632   1963781   1965063  
  8530.000000   1966404   1967738   1969035   1970301   1971560  
  8520.000000   1972845   1974175   1975560   1976996   1978456  
  8510.000000   1979887   1981199   1982275   1983000   1983301  
  8500.000000   1983190   1982776   1982253   1981836   1981691  
  8490.000000   1981871   1982296   1982785   1983144   1983250  
  8480.000000   1983129   1982946   1982955   1983393   1984393  
  8470.000000   1985917   1987786   1989742   1991574   1993177  
  8460.000000   1994596   1995979   1997497   1999264   2001258  
  8450.000000   2003355   2005378   2007180   2008705   2009996  
  8440.000000   2011170   2012323   2013457   2014444   2015058  
  8430.000000   2015074   2014373   2013031   2011335   2009739  
  8420.000000   2008708   2008608   2009534   2011346   2013667  
  8410.000000   2016061   2018131   2019651   2020595   2021081  
  8400.000000   2021282   2021296   2021115   2020619   2019668  
  8390.000000   2018184   2016245   2014105   2012132   2010721  
  8380.000000   2010126   2010432   2011481   2012977   2014541  
  8370.000000   2015849   2016693   2017010   2016860   2016343  
  8360.000000   2015575   2014620   2013520   2012289   2010965  
  8350.000000   2009608   2008321   2007214   2006377   2005862  
  8340.000000   2005657   2005713   2005940   2006250   2006562  
  8330.000000   2006827   2007025   2007160   2007259   2007338  
  8320.000000   2007417   2007484   2007517   2007463   2007273  
  8310.000000   2006907   2006357   2005661   2004885   2004134  
  8300.000000   2003511   2003121   2003024   2003240   2003725  
  8290.000000   2004384   2005081   2005655   2005954   2005855  
  8280.000000   2005296   2004297   2002953   2001424   1999885  
  8270.000000   1998511   1997425   1996713   1996382   1996396  
  8260.000000   1996654   1997025   1997337   1997412   1997077  
  8250.000000   1996208   1994766   1992807   1990490   1988028  
  8240.000000   1985650   1983538   1981797   1980453   1979465  
  8230.000000   1978783   1978355   1978164   1978179   1978358  
  8220.000000   1978602   1978783   1978758   1978431   1977787  
  8210.000000   1976899   1975895   1974897   1973964   1973061  
  8200.000000   1972074   1970872   1969364   1967563   1965573  
  8190.000000   1963565   1961684   1960011   1958519   1957116  
  8180.000000   1955691   1954185   1952616   1951075   1949671  
  8170.000000   1948484   1947509   1946674   1945863   1944986  
  8160.000000   1944012   1942987   1941989   1941088   1940289  
  8150.000000   1939522   1938664   1937584   1936215   1934557  
  8140.000000   1932695   1930730   1928748   1926783   1924822  
  8130.000000   1922840   1920838   1918888   1917114   1915676  
  8120.000000   1914702   1914241   1914225   1914484   1914784  
  8110.000000   1914882   1914600   1913837   1912615   1911032  
  8100.000000   1909268   1907509   1905934   1904656   1903712  
  8090.000000   1903058   1902573   1902125   1901596   1900962  
  8080.000000   1900271   1899656   1899255   1899152   1899317  
  8070.000000   1899579   1899674   1899300   1898233   1896383  
  8060.000000   1893852   1890895   1887864   1885106   1882881  
  8050.000000   1881318   1880395   1879994   1879940   1880070  
  8040.000000   1880259   1880439   1880578   1880668   1880699  
  8030.000000   1880640   1880458   1880101   1879551   1878798  
  8020.000000   1877886   1876871   1875835   1874846   1873949  
  8010.000000   1873161   1872464   1871832   1871238   1870685  
  8000.000000   1870191   1869796   1869526   1869393   1869364  
  7990.000000   1869384   1869381   1869287   1869066   1868698  
  7980.000000   1868189   1867541   1866754   1865815   1864726  
  7970.000000   1863512   1862235   1860992   1859883   1858998  
  7960.000000   1858369   1857989   1857805   1857758   1857797  
  7950.000000   1857891   1858018   1858138   1858182   1858042  
  7940.000000   1857616   1856826   1855689   1854297   1852828  
  7930.000000   1851473   1850384   1849630   1849185   1848963  
  7920.000000   1848868   1848844   1848892   1849062   1849396  
  7910.000000   1849898   1850503   1851098   1851573   1851858  
  7900.000000   1851974   1851995   1852030   1852135   1852292  
  7890.000000   1852390   1852277   1851825   1851003   1849909  
  7880.000000   1848748   1847778   1847215   1847175   1847625  
  7870.000000   1848418   1849329   1850139   1850683   1850893  
  7860.000000   1850793   1850478   1850077   1849716   1849488  
  7850.000000   1849436   1849547   1849758   1849972   1850078  
  7840.000000   1849986   1849649   1849072   1848315   1847468  
  7830.000000   1846631   1845878   1845249   1844743   1844340  
  7820.000000   1844013   1843749   1843547   1843422   1843383  
  7810.000000   1843432   1843551   1843714   1843884   1844025  
  7800.000000   1844098   1844067   1843902   1843587   1843136  
  7790.000000   1842595   1842039   1841554   1841203   1841014  
  7780.000000   1840945   1840915   1840811   1840545   1840067  
  7770.000000   1839395   1838589   1837733   1836891   1836094  
  7760.000000   1835328   1834555   1833737   1832851   1831902  
  7750.000000   1830910   1829899   1828883   1827867   1826850  
  7740.000000   1825844   1824874   1823984   1823210   1822578  
  7730.000000   1822087   1821716   1821447   1821277   1821230  
  7720.000000   1821344   1821644   1822113   1822672   1823189  
  7710.000000   1823505   1823494   1823095   1822343   1821350  
  7700.000000   1820276   1819276   1818452   1817834   1817380  
  7690.000000   1817011   1816642   1816228   1815766   1815310  
  7680.000000   1814928   1814690   1814620   1814695   1814843  
  7670.000000   1814958   1814940   1814703   1814224   1813517  
  7660.000000   1812648   1811697   1810743   1809852   1809064  
  7650.000000   1808414   1807931   1807655   1807619   1807839  
  7640.000000   1808287   1808882   1809499   1809989   1810234  
  7630.000000   1810159   1809777   1809149   1808379   1807559  
  7620.000000   1806757   1806014   1805362   1804852   1804560  
  7610.000000   1804576   1804962   1805713   1806730   1807833  
  7600.000000   1808816   1809500   1809807   1809756   1809464  
  7590.000000   1809077   1808730   1808497   1808398   1808422  
  7580.000000   1808568   1808863   1809353   1810069   1810977  
  7570.000000   1811969   1812871   1813510   1813779   1813694  
  7560.000000   1813394   1813089   1812987   1813216   1813785  
  7550.000000   1814585   1815440   1816172   1816663   1816875  
  7540.000000   1816843   1816634   1816329   1815993   1815684  
  7530.000000   1815460   1815386   1815517   1815891   1816502  
  7520.000000   1817309   1818244   1819249   1820295   1821394  
  7510.000000   1822572   1823845   1825168   1826460   1827598  
  7500.000000   1828500   1829149   1829643   1830150   1830862  
  7490.000000   1831918   1833362   1835117   1837032   1838928  
  7480.000000   1840677   1842227   1843610   1844890   1846135  
  7470.000000   1847367   1848574   1849719   1850787   1851793  
  7460.000000   1852800   1853883   1855115   1856522   1858089  
  7450.000000   1859757   1861464   1863149   1864778   1866333  
  7440.000000   1867821   1869256   1870672   1872111   1873640  
  7430.000000   1875325   1877227   1879362   1881696   1884143  
  7420.000000   1886593   1888943   1891137   1893173   1895103  
  7410.000000   1896996   1898909   1900858   1902820   1904750  
  7400.000000   1906612   1908401   1910153   1911926   1913776  
  7390.000000   1915729   1917761   1919811   1921801   1923667  
  7380.000000   1925384   1926978   1928516   1930093   1931791  
  7370.000000   1933668   1935733   1937953   1940249   1942524  
  7360.000000   1944679   1946640   1948377   1949907   1951289  
  7350.000000   1952606   1953937   1955335   1956820   1958373  
  7340.000000   1959965   1961572   1963189   1964833   1966523  
  7330.000000   1968275   1970078   1971906   1973726   1975519  
  7320.000000   1977283   1979044   1980826   1982637   1984457  
  7310.000000   1986230   1987894   1989396   1990725   1991907  
  7300.000000   1992998   1994055   1995107   1996157   1997175  
  7290.000000   1998145   1999066   1999991   2000993   2002159  
  7280.000000   2003535   2005119   2006843   2008595   2010253  
  7270.000000   2011712   2012920   2013867   2014598   2015174  
  7260.000000   2015668   2016140   2016654   2017256   2017999  
  7250.000000   2018920   2020051   2021402   2022965   2024716  
  7240.000000   2026622   2028647   2030760   2032926   2035120  
  7230.000000   2037299   2039444   2041524   2043548   2045520  
  7220.000000   2047486   2049472   2051519   2053636   2055833  
  7210.000000   2058104   2060462   2062924   2065537   2068339  
  7200.000000   2071369   2074632   2078107   2081737   2085463  
  7190.000000   2089219   2092969   2096692   2100401   2104105  
  7180.000000   2107825   2111552   2115272   2118936   2122508  
  7170.000000   2125938   2129220   2132355   2135403   2138426  
  7160.000000   2141516   2144745   2148175   2151837   2155753  
  7150.000000   2159922   2164356   2169050   2174010   2179208  
  7140.000000   2184609   2190130   2195696   2201204   2206603  
  7130.000000   2211852   2216983   2222033   2227096   2232244  
  7120.000000   2237568   2243114   2248927   2255005   2261335  
  7110.000000   2267862   2274516   2281200   2287833   2294342  
  7100.000000   2300720   2306998   2313267   2319617   2326131  
  7090.000000   2332825   2339669   2346578   2353476   2360309  
  7080.000000   2367085   2373858   2380706   2387683   2394796  
  7070.000000   2401983   2409143   2416159   2422956   2429505  
  7060.000000   2435843   2442043   2448199   2454389   2460681  
  7050.000000   2467114   2473711   2480476   2487387   2494396  
  7040.000000   2501432   2508416   2515285   2522017   2528641  
  7030.000000   2535229   2541861   2548598   2555441   2562336  
  7020.000000   2569181   2575878   2582352   2588595   2594638  
  7010.000000   2600554   2606398   2612214   2618000   2623750  
  7000.000000   2629441   2635076   2640653   2646180   2651633  
  6990.000000   2656981   2662161   2667144   2671911   2676510  
  6980.000000   2681006   2685493   2690025   2694626   2699254  
  6970.000000   2703844   2708306   2712578   2716610   2720403  
  6960.000000   2723962   2727323   2730514   2733590   2736595  
  6950.000000   2739595   2742626   2745725   2748878   2752060  
  6940.000000   2755208   2758273   2761205   2763988   2766602  
  6930.000000   2769041   2771283   2773317   2775134   2776768  
  6920.000000   2778284   2779783   2781362   2783095   2784983  
  6910.000000   2786979   2788984   2790912   2792697   2794338  
  6900.000000   2795874   2797370   2798871   2800395   2801920  
  6890.000000   2803410   2804834   2806188   2807489   2808769  
  6880.000000   2810045   2811320   2812575   2813798   2814991  
  6870.000000   2816194   2817456   2818825   2820312   2821876  
  6860.000000   2823433   2824885   2826153   2827209   2828083  
  6850.000000   2828847   2829586   2830366   2831212   2832119  
  6840.000000   2833056   2833999   2834929   2835854   2836780  
  6830.000000   2837719   2838661   2839593   2840488   2841326  
  6820.000000   2842088   2842763   2843339   2843808   2844162  
  6810.000000   2844408   2844564   2844671   2844767   2844895  
  6800.000000   2845072   2845305   2845579   2845888   2846223  
  6790.000000   2846591   2846991   2847409   2847805   2848116  
  6780.000000   2848271   2848219   2847949   2847497   2846936  
  6770.000000   2846360   2845845   2845445   2845175   2845035  
  6760.000000   2845006   2845077   2845228   2845431   2845640  
  6750.000000   2845793   2845831   2845712   2845442   2845064  
  6740.000000   2844658   2844299   2844042   2843899   2843847  
  6730.000000   2843850   2843883   2843957   2844105   2844377  
  6720.000000   2844796   2845355   2845995   2846635   2847188  
  6710.000000   2847595   2847832   2847908   2847847   2847673  
  6700.000000   2847394   2847010   2846515   2845916   2845230  
  6690.000000   2844485   2843703   2842906   2842094   2841276  
  6680.000000   2840453   2839654   2838903   2838235   2837662  
  6670.000000   2837180   2836753   2836339   2835890   2835374  
  6660.000000   2834770   2834064   2833241   2832284   2831173  
  6650.000000   2829907   2828508   2827040   2825582   2824225  
  6640.000000   2823025   2822002   2821117   2820302   2819468  
  6630.000000   2818549   2817503   2816331   2815057   2813718  
  6620.000000   2812346   2810964   2809580   2808196   2806806  
  6610.000000   2805410   2803999   2802571   2801119   2799648  
  6600.000000   2798161   2796675   2795201   2793746   2792301  
  6590.000000   2790852   2789372   2787847   2786279   2784690  
  6580.000000   2783113   2781579   2780102   2778670   2777244  
  6570.000000   2775778   2774231   2772589   2770864   2769101  
  6560.000000   2767354   2765676   2764105   2762651   2761299  
  6550.000000   2760012   2758740   2757427   2756031   2754524  
  6540.000000   2752912   2751230   2749539   2747910   2746407  
  6530.000000   2745068   2743895   2742860   2741921   2741035  
  6520.000000   2740175   2739329   2738495   2737663   2736809  
  6510.000000   2735888   2734852   2733665   2732323   2730857  
  6500.000000   2729331   2727822   2726392   2725080   2723884  
  6490.000000   2722780   2721731   2720703   2719673   2718633  
  6480.000000   2717580   2716514   2715431   2714326   2713199  
  6470.000000   2712053   2710907   2709775   2708677   2707618  
  6460.000000   2706596   2705601   2704621   2703647   2702678  
  6450.000000   2701717   2700771   2699846   2698946   2698070  
  6440.000000   2697220   2696390   2695581   2694787   2694007  
  6430.000000   2693239   2692487   2691756   2691059   2690402  
  6420.000000   2689794   2689228   2688698   2688190   2687703  
  6410.000000   2687235   2686801   2686412   2686083   2685816  
  6400.000000   2685611   2685463   2685374   2685353   2685411  
  6390.000000   2685551   2685756   2685986   2686184   2686287  
  6380.000000   2686254   2686081   2685804   2685487   2685203  
  6370.000000   2684999   2684880   2684810   2684721   2684547  
  6360.000000   2684244   2683808   2683273   2682700   2682150  
  6350.000000   2681674   2681293   2681008   2680792   2680610  
  6340.000000   2680415   2680167   2679833   2679400   2678874  
  6330.000000   2678288   2677677   2677086   2676531   2676009  
  6320.000000   2675480   2674893   2674192   2673352   2672371  
  6310.000000   2671286   2670142   2668989   2667854   2666750  
  6300.000000   2665671   2664614   2663573   2662553   2661549  
  6290.000000   2660551   2659529   2658450   2657280   2656013  
  6280.000000   2654662   2653269   2651879   2650532   2649239  
  6270.000000   2647988   2646745   2645482   2644175   2642825  
  6260.000000   2641438   2640024   2638583   2637107   2635580  
  6250.000000   2634000   2632377   2630738   2629114   2627529  
  6240.000000   2625984   2624465   2622946   2621408   2619846  
  6230.000000   2618277   2616721   2615198   2613707   2612229  
  6220.000000   2610738   2609213   2607652   2606074   2604511  
  6210.000000   2602991   2601524   2600098   2598682   2597249  
  6200.000000   2595787   2594310   2592851   2591450   2590135  
  6190.000000   2588910   2587757   2586636   2585510   2584349  
  6180.000000   2583138   2581875   2580571   2579235   2577885  
  6170.000000   2576539   2575220   2573951   2572750   2571619  
  6160.000000   2570547   2569509   2568477   2567429   2566358  
  6150.000000   2565273   2564186   2563105   2562028   2560937  
  6140.000000   2559813   2558645   2557439   2556221   2555025  
  6130.000000   2553878   2552792   2551754   2550739   2549717  
  6120.000000   2548678   2547626   2546586   2545583   2544642  
  6110.000000   2543764   2542941   2542154   2541397   2540669  
  6100.000000   2539994   2539392   2538890   2538491   2538193  
  6090.000000   2537969   2537796   2537645   2537503   2537354  
  6080.000000   2537202   2537048   2536909   2536794   2536729  
  6070.000000   2536721   2536785   2536907   2537078   2537270  
  6060.000000   2537479   2537699   2537961   2538294   2538746  
  6050.000000   2539335   2540072   2540933   2541895   2542920  
  6040.000000   2544001   2545135   2546343   2547638   2549032  
  6030.000000   2550511   2552064   2553662   2555297   2556961  
  6020.000000   2558669   2560423   2562226   2564060   2565910  
  6010.000000   2567748   2569571   2571379   2573199   2575049  
  6000.000000   2576954   2578909   2580912   2582941   2584996  
  5990.000000   2587071   2589195   2591385   2593676   2596079  
  5980.000000   2598605   2601245   2604000   2606857   2609824  
  5970.000000   2612893   2616068   2619332   2622679   2626084  
  5960.000000   2629543   2633040   2636586   2640173   2643811  
  5950.000000   2647487   2651208   2654970   2658788   2662682  
  5940.000000   2666678   2670797   2675044   2679408   2683854  
  5930.000000   2688342   2692824   2697261   2701614   2705855  
  5920.000000   2709954   2713883   2717616   2721141   2724460  
  5910.000000   2727597   2730582   2733454   2736239   2738966  
  5900.000000   2741643   2744297   2746945   2749635   2752397  
  5890.000000   2755269   2758248   2761312   2764403   2767456  
  5880.000000   2770402   2773197   2775817   2778261   2780542  
  5870.000000   2782674   2784676   2786567   2788379   2790155  
  5860.000000   2791952   2793823   2795812   2797936   2800187  
  5850.000000   2802538   2804951   2807397   2809855   2812321  
  5840.000000   2814802   2817305   2819841   2822412   2825026  
  5830.000000   2827679   2830373   2833096   2835833   2838555  
  5820.000000   2841238   2843858   2846408   2848900   2851358  
  5810.000000   2853812   2856285   2858794   2861332   2863905  
  5800.000000   2866495   2869124   2871784   2874499   2877238  
  5790.000000   2879985   2882656   2885181   2887443   2889356  
  5780.000000   2890808   2891733   2892061   2891776   2890873  
  5770.000000   2889421   2887506   2885278   2882872   2880441  
  5760.000000   2878075   2875847   2873758   2871807   2869961  
  5750.000000   2868216   2866561   2865007   2863555   2862203  
  5740.000000   2860936   2859734   2858583   2857471   2856402  
  5730.000000   2855370   2854372   2853386   2852394   2851370  
  5720.000000   2850310   2849224   2848144   2847104   2846139  
  5710.000000   2845260   2844471   2843756   2843103   2842502  
  5700.000000   2841953   2841458   2841017   2840628   2840276  
  5690.000000   2839954   2839651   2839372   2839121   2838906  
  5680.000000   2838714   2838528   2838303   2837998   2837562  
  5670.000000   2836965   2836173   2835175   2833953   2832501  
  5660.000000   2830814   2828910   2826817   2824589   2822283  
  5650.000000   2819961   2817664   2815425   2813250   2811149  
  5640.000000   2809120   2807177   2805325   2803567   2801892  
  5630.000000   2800277   2798700   2797141   2795607   2794114  
  5620.000000   2792698   2791380   2790172   2789050   2787978  
  5610.000000   2786908   2785812   2784680   2783535   2782408  
  5600.000000   2781338   2780347   2779438   2778599   2777809  
  5590.000000   2777049   2776305   2775568   2774831   2774083  
  5580.000000   2773313   2772511   2771676   2770814   2769938  
  5570.000000   2769060   2768182   2767294   2766380   2765420  
  5560.000000   2764405   2763338   2762235   2761115   2759995  
  5550.000000   2758883   2757776   2756668   2755552   2754431  
  5540.000000   2753306   2752181   2751050   2749905   2748736  
  5530.000000   2747542   2746332   2745135   2743978   2742889  
  5520.000000   2741874   2740919   2739994   2739065   2738104  
  5510.000000   2737099   2736052   2734972   2733866   2732734  
  5500.000000   2731569   2730369   2729133   2727876   2726615  
  5490.000000   2725369   2724134   2722899   2721632   2720310  
  5480.000000   2718910   2717437   2715899   2714321   2712715  
  5470.000000   2711090   2709436   2707749   2706021   2704257  
  5460.000000   2702461   2700640   2698785   2696883   2694916  
  5450.000000   2692872   2690761   2688609   2686461   2684360  
  5440.000000   2682344   2680429   2678622   2676919   2675319  
  5430.000000   2673815   2672402   2671052   2669734   2668401  
  5420.000000   2667031   2665614   2664194   2662829   2661602  
  5410.000000   2660555   2659708   2659013   2658422   2657864  
  5400.000000   2657325   2656802   2656349   2656006   2655820  
  5390.000000   2655788   2655906   2656137   2656485   2656952  
  5380.000000   2657590   2658427   2659504   2660800   2662295  
  5370.000000   2663921   2665652   2667443   2669317   2671266  
  5360.000000   2673344   2675544   2677920   2680467   2683260  
  5350.000000   2686323   2689757   2693583   2697878   2702609  
  5340.000000   2707803   2713391   2719406   2725800   2732637  
  5330.000000   2739874   2747566   2755640   2764131   2772967  
  5320.000000   2782226   2791891   2802106   2812888   2824386  
  5310.000000   2836583   2849571   2863276   2877758   2892937  
  5300.000000   2908892   2925577   2943104   2961454   2980747  
  5290.000000   3000950   3022128   3044173   3067048   3090572  
  5280.000000   3114676   3139227   3164263   3189791   3215958  
  5270.000000   3242814   3270419   3298663   3327383   3356327  
  5260.000000   3385289   3414143   3442877   3471579   3500335  
  5250.000000   3529201   3558078   3586812   3615107   3642768  
  5240.000000   3669582   3695566   3720720   3745227   3769138  
  5230.000000   3792585   3815483   3837813   3859374   3880113  
  5220.000000   3899884   3918761   3936738   3954006   3970611  
  5210.000000   3986724   4002296   4017363   4031752   4045430  
  5200.000000   4058235   4070226   4081360   4091799   4101549  
  5190.000000   4110740   4119308   4127297   4134588   4141216  
  5180.000000   4147107   4152353   4156926   4160927   4164303  
  5170.000000   4167112   4169284   4170884   4171884   4172393  
  5160.000000   4172415   4172049   4171260   4170094   4168486  
  5150.000000   4166478   4164042   4161258   4158130   4154732  
  5140.000000   4151039   4147077   4142798   4138223   4133341  
  5130.000000   4128217   4122880   4117404   4111808   4106133  
  5120.000000   4100370   4094544   4088653   4082726   4076768  
  5110.000000   4070796   4064797   4058766   4052693   4046592  
  5100.000000   4040490   4034439   4028484   4022660   4016967  
  5090.000000   4011389   4005885   4000427   3994992   3989583  
  5080.000000   3984208   3978883   3973603   3968354   3963105  
  5070.000000   3957831   3952504   3947119   3941664   3936139  
  5060.000000   3930524   3924801   3918937   3912922   3906744  
  5050.000000   3900427   3893996   3887491   3880936   3874354  
  5040.000000   3867746   3861120   3854470   3847804   3841121  
  5030.000000   3834424   3827700   3820937   3814121   3807248  
  5020.000000   3800334   3793410   3786524   3779721   3773044  
  5010.000000   3766510   3760136   3753909   3747838   3741911  
  5000.000000   3736153   3730561   3725167   3719957   3714955  
  4990.000000   3710137   3705528   3701113   3696935   3692984  
  4980.000000   3689309   3685892   3682770   3679920   3677380  
  4970.000000   3675134   3673236   3671674   3670503   3669693  
  4960.000000   3669279   3669213   3669523   3670163   3671173  
  4950.000000   3672518   3674242   3676305   3678746   3681521  
  4940.000000   3684674   3688174   3692081   3696377   3701116  
  4930.000000   3706261   3711839   3717789   3724125   3730796  
  4920.000000   3737835   3745216   3752982   3761106   3769615  
  4910.000000   3778462   3787649   3797126   3806889   3816899  
  4900.000000   3827146   3837591   3848206   3858944   3869759  
  4890.000000   3880613   3891456   3902260   3912970   3923553  
  4880.000000   3933932   3944065   3953862   3963285   3972248  
  4870.000000   3980734   3988667   3996046   4002811   4008985  
  4860.000000   4014533   4019510   4023908   4027803   4031202  
  4850.000000   4034185   4036761   4039011   4040951   4042663  
  4840.000000   4044164   4045524   4046749   4047883   4048924  
  4830.000000   4049907   4050844   4051777   4052731   4053740  
  4820.000000   4054813   4055950   4057133   4058342   4059561  
  4810.000000   4060786   4062032   4063317   4064670   4066103  
  4800.000000   4067628   4069238   4070928   4072687   4074517  
  4790.000000   4076415   4078386   4080425   4082529   4084682  
  4780.000000   4086873   4089090   4091324   4093568   4095813  
  4770.000000   4098051   4100264   4102438   4104552   4106599  
  4760.000000   4108565   4110449   4112244   4113949   4115552  
  4750.000000   4117055   4118452   4119757   4120977   4122135  
  4740.000000   4123239   4124301   4125315   4126279   4127179  
  4730.000000   4128012   4128775   4129473   4130110   4130693  
  4720.000000   4131224   4131704   4132141   4132545   4132941  
  4710.000000   4133354   4133820   4134366   4135021   4135794  
  4700.000000   4136701   4137737   4138909   4140213   4141657  
  4690.000000   4143239   4144968   4146840   4148861   4151011  
  4680.000000   4153276   4155614   4157986   4160329   4162604  
  4670.000000   4164760   4166795   4168708   4170549   4172361  
  4660.000000   4174217   4176166   4178269   4180556   4183061  
  4650.000000   4185798   4188777   4191994   4195432   4199060  
  4640.000000   4202831   4206697   4210606   4214519   4218401  
  4630.000000   4222230   4225979   4229626   4233129   4236455  
  4620.000000   4239555   4242400   4244954   4247214   4249164  
  4610.000000   4250822   4252187   4253297   4254168   4254866  
  4600.000000   4255427   4255928   4256398   4256887   4257376  
  4590.000000   4257859   4258267   4258561   4258666   4258555  
  4580.000000   4258189   4257572   4256702   4255607   4254300  
  4570.000000   4252818   4251174   4249407   4247528   4245568  
  4560.000000   4243534   4241452   4239322   4237168   4234986  
  4550.000000   4232796   4230588   4228367   4226114   4223818  
  4540.000000   4221463   4219042   4216560   4214028   4211471  
  4530.000000   4208904   4206353   4203820   4201321   4198850  
  4520.000000   4196430   4194062   4191787   4189610   4187586  
  4510.000000   4185716   4184063   4182633   4181514   4180724  
  4500.000000   4180373   4180477   4181138   4182339   4184155  
  4490.000000   4186547   4189588   4193249   4197626   4202706  
  4480.000000   4208586   4215232   4222706   4230933   4239936  
  4470.000000   4249619   4259992   4270955   4282513   4294567  
  4460.000000   4307106   4320026   4333305   4346846   4360631  
  4450.000000   4374583   4388696   4402919   4417255   4431676  
  4440.000000   4446191   4460789   4475468   4490221   4505016  
  4430.000000   4519833   4534606   4549305   4563844   4578200  
  4420.000000   4592287   4606096   4619541   4632611   4645202  
  4410.000000   4657278   4668712   4679452   4689373   4698451  
  4400.000000   4706613   4713910   4720354   4726076   4731158  
  4390.000000   4735778   4740040   4744115   4748082   4752051  
  4380.000000   4756040   4760087   4764158   4768257   4772355  
  4370.000000   4776479   4780653   4784936   4789380   4794033  
  4360.000000   4798913   4804021   4809315   4814768   4820302  
  4350.000000   4825897   4831469   4837031   4842521   4847989  
  4340.000000   4853397   4858792   4864086   4869184   4873798  
  4330.000000   4877578   4880022   4880667   4879107   4875191  
  4320.000000   4869024   4861046   4851899   4842368   4833163  
  4310.000000   4824869   4817797   4812060   4807547   4804078  
  4300.000000   4801421   4799399   4797883   4796789   4796085  
  4290.000000   4795717   4795677   4795907   4796413   4797161  
  4280.000000   4798168   4799417   4800903   4802608   4804497  
  4270.000000   4806552   4808722   4810963   4813154   4815136  
  4260.000000   4816648   4817404   4817091   4815479   4812447  
  4250.000000   4808062   4802535   4796233   4789555   4782919  
  4240.000000   4776629   4770911   4765820   4761341   4757350  
  4230.000000   4753719   4750291   4746951   4743607   4740203  
  4220.000000   4736737   4733210   4729687   4726208   4722871  
  4210.000000   4719725   4716863   4714318   4712154   4710373  
  4200.000000   4709001   4708004   4707371   4707032   4706951  
  4190.000000   4707044   4707281   4707594   4707991   4708436  
  4180.000000   4708973   4709591   4710351   4711248   4712355  
  4170.000000   4713681   4715312   4717269   4719639   4722431  
  4160.000000   4725705   4729431   4733639   4738272   4743357  
  4150.000000   4748841   4754769   4761105   4767907   4775141  
  4140.000000   4782868   4791046   4799728   4808865   4818503  
  4130.000000   4828584   4839147   4850135   4861593   4873481  
  4120.000000   4885861   4898715   4912113   4926044   4940562  
  4110.000000   4955644   4971315   4987523   5004252   5021411  
  4100.000000   5038938   5056714   5074660   5092679   5110727  
  4090.000000   5128771   5146813   5164863   5182926   5201011  
  4080.000000   5219095   5237182   5255232   5273257   5291202  
  4070.000000   5309064   5326737   5344176   5361232   5377855  
  4060.000000   5393911   5409394   5424216   5438414   5451913  
  4050.000000   5464767   5476911   5488427   5499273   5509562  
  4040.000000   5519253   5528437   5537029   5545077   5552462  
  4030.000000   5559222   5565249   5570593   5575169   5579025  
  4020.000000   5582063   5584351   5585879   5586745   5586919  
  4010.000000   5586544   5585693   5584374   5582358   5579695  
  4000.000000   5576702  
##END= 
