##TITLE= Sample 015 By ssteindl date Montag, November 26 2018
##JCAMP-DX= 4.24
##DATA TYPE= INFRARED SPECTRUM
##ORIGIN= Exported PE Spectrum Data File
##OWNER= Sandra Steindl
##DATE= 18/11/26
##TIME= 12:22:35.00
##SPECTROMETER/DATA SYSTEM= PERKIN-ELMER Frontier FT-IR/NIR IR
##INSTRUMENT PARAMETERS=
  APODIZATION=stark
  DETECTOR=INGAAS
##RESOLUTION= 16.000000
##DELTAX= -2.000000
##XUNITS= 1/CM
##YUNITS= A
##XFACTOR= 1.00
##YFACTOR= 0.00000011920928955078
##FIRSTX= 10000.00
##LASTX= 4000.00
##NPOINTS= 3001
##FIRSTY= 0.276086
##MAXY= 0.601625
##MINY= 0.226757
##XYDATA= (X++(Y..Y))
 10000.000000   2315981   2316725   2316006   2312198   2305882  
  9990.000000   2299439   2295169   2294686   2298876   2307656  
  9980.000000   2319477   2331795   2342113   2348644   2350754  
  9970.000000   2348855   2344156   2337959   2331223   2324423  
  9960.000000   2317740   2311473   2306251   2303103   2302974  
  9950.000000   2306384   2312832   2320944   2328678   2334095  
  9940.000000   2335970   2334130   2329426   2323133   2316465  
  9930.000000   2310046   2303952   2297983   2292071   2286624  
  9920.000000   2282404   2280303   2280762   2283541   2287653  
  9910.000000   2291715   2294503   2295250   2293921   2290836  
  9900.000000   2286503   2281177   2274955   2267944   2260634  
  9890.000000   2254112   2249910   2249608   2254117   2263263  
  9880.000000   2275543   2288576   2299729   2306950   2309320  
  9870.000000   2307125   2301644   2294466   2287097   2280498  
  9860.000000   2275136   2271069   2268159   2266222   2264999  
  9850.000000   2264252   2263642   2262995   2262228   2261577  
  9840.000000   2261367   2261905   2263218   2264887   2266201  
  9830.000000   2266314   2264714   2261382   2256889   2252138  
  9820.000000   2248001   2244983   2243098   2241977   2241197  
  9810.000000   2240527   2240089   2240184   2241032   2242474  
  9800.000000   2243911   2244510   2243615   2241153   2237798  
  9790.000000   2234790   2233445   2234615   2238303   2243691  
  9780.000000   2249453   2254289   2257372   2258512   2258067  
  9770.000000   2256582   2254498   2251949   2248832   2245039  
  9760.000000   2240675   2236208   2232311   2229670   2228614  
  9750.000000   2229077   2230544   2232384   2234001   2235052  
  9740.000000   2235422   2235064   2233948   2231865   2228692  
  9730.000000   2224350   2219157   2213655   2208607   2204666  
  9720.000000   2202176   2201135   2201241   2202249   2204133  
  9710.000000   2207277   2212263   2219586   2229169   2240184  
  9700.000000   2251006   2259685   2264502   2264596   2260328  
  9690.000000   2253147   2245162   2238373   2234018   2232189  
  9680.000000   2231820   2231202   2228579   2222909   2214168  
  9670.000000   2203468   2192580   2183455   2177500   2175239  
  9660.000000   2176173   2179027   2182261   2184507   2185025  
  9650.000000   2183747   2181220   2178270   2175705   2174034  
  9640.000000   2173449   2173811   2174928   2176540   2178493  
  9630.000000   2180573   2182503   2183896   2184331   2183538  
  9620.000000   2181549   2178776   2175966   2173961   2173427  
  9610.000000   2174584   2177087   2180168   2182844   2184338  
  9600.000000   2184281   2182888   2180823   2178960   2178030  
  9590.000000   2178353   2179705   2181385   2182465   2182103  
  9580.000000   2179875   2175910   2170874   2165753   2161509  
  9570.000000   2158819   2157850   2158269   2159392   2160430  
  9560.000000   2160797   2160255   2158987   2157435   2156100  
  9550.000000   2155316   2155151   2155429   2155904   2156390  
  9540.000000   2156909   2157638   2158805   2160544   2162757  
  9530.000000   2165155   2167307   2168857   2169620   2169679  
  9520.000000   2169293   2168759   2168259   2167759   2167069  
  9510.000000   2165910   2164118   2161654   2158667   2155380  
  9500.000000   2152003   2148701   2145536   2142631   2140158  
  9490.000000   2138501   2138111   2139420   2142603   2147412  
  9480.000000   2153172   2158858   2163378   2165771   2165479  
  9470.000000   2162401   2156984   2150091   2142903   2136665  
  9460.000000   2132453   2130950   2132228   2135780   2140536  
  9450.000000   2145233   2148652   2150043   2149265   2146836  
  9440.000000   2143716   2140902   2139111   2138452   2138527  
  9430.000000   2138555   2137784   2135737   2132416   2128303  
  9420.000000   2124199   2121006   2119424   2119788   2121970  
  9410.000000   2125448   2129458   2133170   2135892   2137190  
  9400.000000   2136998   2135610   2133628   2131787   2130758  
  9390.000000   2130922   2132269   2134388   2136631   2138327  
  9380.000000   2138993   2138488   2136993   2134962   2132901  
  9370.000000   2131238   2130174   2129696   2129634   2129782  
  9360.000000   2129948   2130009   2129852   2129417   2128637  
  9350.000000   2127533   2126192   2124788   2123529   2122555  
  9340.000000   2121899   2121381   2120680   2119350   2117025  
  9330.000000   2113534   2109057   2104089   2099350   2095592  
  9320.000000   2093429   2093204   2094894   2098143   2102303  
  9310.000000   2106657   2110536   2113509   2115410   2116354  
  9300.000000   2116677   2116770   2116978   2117359   2117738  
  9290.000000   2117675   2116712   2114491   2110899   2106164  
  9280.000000   2100785   2095542   2091228   2088564   2087934  
  9270.000000   2089401   2092640   2097025   2101698   2105690  
  9260.000000   2108161   2108535   2106711   2103000   2098100  
  9250.000000   2092859   2088115   2084482   2082258   2081435  
  9240.000000   2081810   2083145   2085234   2087938   2091068  
  9230.000000   2094329   2097250   2099292   2099988   2099106  
  9220.000000   2096810   2093643   2090444   2088052   2087032  
  9210.000000   2087516   2089159   2091337   2093305   2094482  
  9200.000000   2094555   2093545   2091723   2089451   2087058  
  9190.000000   2084721   2082478   2080238   2077898   2075396  
  9180.000000   2072806   2070327   2068252   2066920   2066600  
  9170.000000   2067432   2069309   2071906   2074722   2077211  
  9160.000000   2078954   2079764   2079763   2079277   2078718  
  9150.000000   2078390   2078396   2078584   2078647   2078270  
  9140.000000   2077297   2075815   2074111   2072578   2071540  
  9130.000000   2071151   2071320   2071793   2072243   2072403  
  9120.000000   2072131   2071441   2070453   2069344   2068281  
  9110.000000   2067404   2066816   2066587   2066725   2067170  
  9100.000000   2067756   2068264   2068429   2068073   2067136  
  9090.000000   2065738   2064134   2062627   2061475   2060733  
  9080.000000   2060248   2059669   2058601   2056694   2053795  
  9070.000000   2049996   2045680   2041418   2037834   2035475  
  9060.000000   2034671   2035469   2037596   2040561   2043790  
  9050.000000   2046772   2049188   2050937   2052141   2053005  
  9040.000000   2053706   2054251   2054496   2054204   2053234  
  9030.000000   2051629   2049676   2047869   2046706   2046551  
  9020.000000   2047375   2048844   2050360   2051324   2051311  
  9010.000000   2050218   2048297   2045952   2043558   2041253  
  9000.000000   2038933   2036316   2033131   2029314   2025133  
  8990.000000   2021169   2018151   2016733   2017256   2019622  
  8980.000000   2023283   2027403   2031086   2033576   2034467  
  8970.000000   2033734   2031770   2029189   2026704   2024893  
  8960.000000   2024128   2024447   2025613   2027165   2028599  
  8950.000000   2029508   2029688   2029207   2028335   2027483  
  8940.000000   2027042   2027285   2028290   2029931   2031946  
  8930.000000   2034005   2035806   2037144   2037916   2038152  
  8920.000000   2037945   2037457   2036855   2036310   2035951  
  8910.000000   2035849   2035989   2036275   2036526   2036507  
  8900.000000   2035973   2034743   2032769   2030164   2027196  
  8890.000000   2024231   2021660   2019798   2018781   2018551  
  8880.000000   2018843   2019335   2019737   2019928   2019994  
  8870.000000   2020167   2020743   2021846   2023376   2024899  
  8860.000000   2025849   2025618   2023884   2020718   2016695  
  8850.000000   2012737   2009842   2008831   2010051   2013384  
  8840.000000   2018223   2023768   2029202   2033941   2037699  
  8830.000000   2040424   2042187   2043019   2042880   2041620  
  8820.000000   2039114   2035358   2030628   2025470   2020613  
  8810.000000   2016807   2014593   2014212   2015470   2017866  
  8800.000000   2020664   2023128   2024676   2025020   2024228  
  8790.000000   2022635   2020773   2019153   2018197   2018083  
  8780.000000   2018784   2020068   2021635   2023200   2024556  
  8770.000000   2025639   2026470   2027177   2027883   2028714  
  8760.000000   2029715   2030869   2032079   2033181   2033975  
  8750.000000   2034255   2033879   2032783   2031018   2028728  
  8740.000000   2026123   2023426   2020821   2018433   2016343  
  8730.000000   2014623   2013365   2012690   2012707   2013464  
  8720.000000   2014892   2016780   2018813   2020648   2022042  
  8710.000000   2022910   2023377   2023691   2024159   2024998  
  8700.000000   2026289   2027936   2029731   2031425   2032812  
  8690.000000   2033786   2034345   2034560   2034538   2034368  
  8680.000000   2034136   2033890   2033670   2033464   2033229  
  8670.000000   2032884   2032350   2031619   2030787   2030111  
  8660.000000   2029943   2030667   2032519   2035507   2039334  
  8650.000000   2043448   2047186   2049949   2051400   2051511  
  8640.000000   2050571   2049020   2047337   2045875   2044825  
  8630.000000   2044205   2043939   2043952   2044217   2044791  
  8620.000000   2045732   2047095   2048845   2050890   2053068  
  8610.000000   2055198   2057116   2058681   2059810   2060460  
  8600.000000   2060654   2060464   2060022   2059497   2059069  
  8590.000000   2058882   2059002   2059399   2059959   2060528  
  8580.000000   2060967   2061197   2061209   2061060   2060846  
  8570.000000   2060663   2060586   2060668   2060954   2061490  
  8560.000000   2062318   2063469   2064926   2066619   2068400  
  8550.000000   2070103   2071570   2072706   2073496   2073984  
  8540.000000   2074267   2074410   2074425   2074242   2073757  
  8530.000000   2072881   2071598   2070029   2068426   2067125  
  8520.000000   2066441   2066589   2067591   2069278   2071302  
  8510.000000   2073248   2074748   2075583   2075736   2075379  
  8500.000000   2074812   2074342   2074199   2074457   2075063  
  8490.000000   2075848   2076620   2077207   2077514   2077524  
  8480.000000   2077280   2076863   2076358   2075870   2075516  
  8470.000000   2075427   2075720   2076458   2077619   2079069  
  8460.000000   2080595   2081931   2082865   2083285   2083236  
  8450.000000   2082886   2082463   2082195   2082235   2082656  
  8440.000000   2083439   2084551   2085977   2087714   2089745  
  8430.000000   2091974   2094211   2096137   2097373   2097582  
  8420.000000   2096608   2094565   2091837   2089022   2086774  
  8410.000000   2085668   2085992   2087720   2090474   2093685  
  8400.000000   2096718   2099030   2100270   2100328   2099334  
  8390.000000   2097553   2095300   2092853   2090446   2088263  
  8380.000000   2086458   2085178   2084549   2084682   2085585  
  8370.000000   2087158   2089136   2091169   2092881   2093960  
  8360.000000   2094232   2093673   2092427   2090717   2088806  
  8350.000000   2086917   2085242   2083928   2083089   2082806  
  8340.000000   2083084   2083855   2084935   2086079   2087015  
  8330.000000   2087539   2087582   2087226   2086671   2086135  
  8320.000000   2085767   2085581   2085469   2085264   2084839  
  8310.000000   2084182   2083411   2082724   2082289   2082155  
  8300.000000   2082207   2082203   2081883   2081083   2079824  
  8290.000000   2078305   2076830   2075684   2075031   2074871  
  8280.000000   2075063   2075419   2075796   2076153   2076541  
  8270.000000   2077043   2077694   2078432   2079106   2079535  
  8260.000000   2079598   2079280   2078696   2078029   2077460  
  8250.000000   2077085   2076878   2076723   2076463   2076000  
  8240.000000   2075316   2074500   2073671   2072952   2072393  
  8230.000000   2071981   2071634   2071257   2070766   2070111  
  8220.000000   2069270   2068228   2066972   2065482   2063757  
  8210.000000   2061841   2059830   2057880   2056154   2054793  
  8200.000000   2053858   2053327   2053090   2052996   2052886  
  8190.000000   2052639   2052186   2051500   2050581   2049427  
  8180.000000   2048039   2046408   2044554   2042527   2040426  
  8170.000000   2038387   2036561   2035075   2033988   2033282  
  8160.000000   2032846   2032523   2032139   2031570   2030761  
  8150.000000   2029749   2028639   2027560   2026620   2025850  
  8140.000000   2025209   2024579   2023825   2022829   2021542  
  8130.000000   2019980   2018233   2016414   2014646   2013019  
  8120.000000   2011593   2010399   2009450   2008755   2008308  
  8110.000000   2008101   2008094   2008236   2008453   2008674  
  8100.000000   2008836   2008893   2008815   2008573   2008141  
  8090.000000   2007480   2006557   2005358   2003908   2002273  
  8080.000000   2000561   1998889   1997359   1996024   1994879  
  8070.000000   1993861   1992874   1991826   1990652   1989346  
  8060.000000   1987968   1986633   1985499   1984716   1984404  
  8050.000000   1984600   1985252   1986210   1987261   1988173  
  8040.000000   1988752   1988899   1988627   1988060   1987394  
  8030.000000   1986827   1986509   1986482   1986680   1986941  
  8020.000000   1987063   1986865   1986228   1985148   1983714  
  8010.000000   1982115   1980566   1979289   1978424   1978027  
  8000.000000   1978028   1978264   1978510   1978539   1978179  
  7990.000000   1977345   1976064   1974448   1972662   1970867  
  7980.000000   1969199   1967720   1966452   1965367   1964434  
  7970.000000   1963625   1962930   1962356   1961916   1961629  
  7960.000000   1961516   1961604   1961923   1962487   1963287  
  7950.000000   1964259   1965300   1966252   1966962   1967297  
  7940.000000   1967199   1966691   1965874   1964899   1963921  
  7930.000000   1963071   1962424   1962014   1961823   1961818  
  7920.000000   1961940   1962124   1962283   1962321   1962142  
  7910.000000   1961672   1960893   1959847   1958646   1957429  
  7900.000000   1956340   1955473   1954867   1954495   1954298  
  7890.000000   1954208   1954181   1954204   1954285   1954431  
  7880.000000   1954626   1954824   1954961   1954975   1954842  
  7870.000000   1954578   1954248   1953935   1953717   1953633  
  7860.000000   1953676   1953795   1953921   1953988   1953958  
  7850.000000   1953824   1953607   1953337   1953045   1952749  
  7840.000000   1952463   1952198   1951972   1951814   1951744  
  7830.000000   1951778   1951898   1952068   1952221   1952300  
  7820.000000   1952254   1952067   1951752   1951342   1950876  
  7810.000000   1950374   1949832   1949218   1948493   1947628  
  7800.000000   1946622   1945519   1944399   1943367   1942519  
  7790.000000   1941931   1941619   1941557   1941662   1941834  
  7780.000000   1941969   1941987   1941846   1941542   1941102  
  7770.000000   1940566   1939973   1939344   1938683   1937977  
  7760.000000   1937217   1936397   1935529   1934641   1933765  
  7750.000000   1932938   1932173   1931482   1930858   1930298  
  7740.000000   1929806   1929398   1929090   1928892   1928789  
  7730.000000   1928733   1928652   1928454   1928065   1927438  
  7720.000000   1926580   1925548   1924438   1923360   1922417  
  7710.000000   1921673   1921151   1920825   1920637   1920508  
  7700.000000   1920362   1920145   1919834   1919442   1919014  
  7690.000000   1918609   1918286   1918076   1917978   1917950  
  7680.000000   1917928   1917843   1917650   1917341   1916948  
  7670.000000   1916535   1916166   1915893   1915725   1915636  
  7660.000000   1915569   1915458   1915253   1914926   1914480  
  7650.000000   1913937   1913327   1912671   1911977   1911247  
  7640.000000   1910481   1909695   1908924   1908225   1907659  
  7630.000000   1907281   1907109   1907123   1907253   1907401  
  7620.000000   1907464   1907359   1907057   1906586   1906026  
  7610.000000   1905481   1905045   1904768   1904638   1904589  
  7600.000000   1904533   1904390   1904130   1903776   1903404  
  7590.000000   1903104   1902945   1902943   1903055   1903191  
  7580.000000   1903259   1903191   1902983   1902686   1902393  
  7570.000000   1902201   1902178   1902337   1902636   1902994  
  7560.000000   1903324   1903559   1903675   1903690   1903666  
  7550.000000   1903677   1903798   1904069   1904489   1905006  
  7540.000000   1905539   1905991   1906287   1906395   1906347  
  7530.000000   1906230   1906164   1906261   1906586   1907140  
  7520.000000   1907857   1908636   1909376   1910017   1910559  
  7510.000000   1911054   1911575   1912176   1912867   1913602  
  7500.000000   1914302   1914878   1915281   1915509   1915618  
  7490.000000   1915693   1915825   1916081   1916497   1917068  
  7480.000000   1917769   1918563   1919418   1920302   1921193  
  7470.000000   1922067   1922909   1923708   1924473   1925228  
  7460.000000   1926014   1926877   1927868   1929011   1930313  
  7450.000000   1931746   1933260   1934779   1936228   1937536  
  7440.000000   1938670   1939633   1940483   1941305   1942199  
  7430.000000   1943237   1944445   1945784   1947165   1948485  
  7420.000000   1949666   1950701   1951656   1952657   1953841  
  7410.000000   1955308   1957075   1959072   1961154   1963151  
  7400.000000   1964925   1966393   1967553   1968457   1969192  
  7390.000000   1969845   1970486   1971166   1971920   1972781  
  7380.000000   1973777   1974933   1976247   1977704   1979256  
  7370.000000   1980861   1982471   1984065   1985636   1987180  
  7360.000000   1988695   1990150   1991503   1992700   1993705  
  7350.000000   1994509   1995148   1995695   1996246   1996896  
  7340.000000   1997712   1998725   1999926   2001281   2002730  
  7330.000000   2004213   2005669   2007056   2008351   2009557  
  7320.000000   2010698   2011817   2012949   2014113   2015301  
  7310.000000   2016471   2017567   2018535   2019345   2020004  
  7300.000000   2020551   2021048   2021554   2022107   2022717  
  7290.000000   2023365   2024018   2024642   2025215   2025729  
  7280.000000   2026189   2026611   2027012   2027415   2027846  
  7270.000000   2028341   2028939   2029674   2030567   2031610  
  7260.000000   2032768   2033973   2035154   2036230   2037154  
  7250.000000   2037903   2038497   2038980   2039428   2039918  
  7240.000000   2040527   2041310   2042302   2043507   2044911  
  7230.000000   2046472   2048147   2049877   2051618   2053319  
  7220.000000   2054962   2056527   2058039   2059523   2061046  
  7210.000000   2062665   2064446   2066415   2068578   2070895  
  7200.000000   2073312   2075771   2078246   2080742   2083309  
  7190.000000   2086003   2088882   2091949   2095169   2098443  
  7180.000000   2101666   2104732   2107599   2110269   2112811  
  7170.000000   2115312   2117875   2120563   2123422   2126447  
  7160.000000   2129618   2132895   2136243   2139627   2143030  
  7150.000000   2146437   2149863   2153329   2156885   2160576  
  7140.000000   2164447   2168500   2172714   2177019   2181355  
  7130.000000   2185656   2189909   2194122   2198358   2202660  
  7120.000000   2207082   2211620   2216259   2220953   2225679  
  7110.000000   2230431   2235252   2240194   2245329   2250688  
  7100.000000   2256280   2262055   2267943   2273846   2279683  
  7090.000000   2285377   2290896   2296225   2301395   2306452  
  7080.000000   2311478   2316555   2321768   2327170   2332781  
  7070.000000   2338579   2344508   2350501   2356498   2362465  
  7060.000000   2368394   2374299   2380204   2386129   2392080  
  7050.000000   2398044   2403996   2409896   2415701   2421360  
  7040.000000   2426836   2432101   2437156   2442035   2446801  
  7030.000000   2451540   2456331   2461241   2466295   2471496  
  7020.000000   2476814   2482225   2487703   2493239   2498810  
  7010.000000   2504384   2509897   2515267   2520402   2525246  
  7000.000000   2529783   2534064   2538176   2542230   2546310  
  6990.000000   2550477   2554729   2559042   2563352   2567610  
  6980.000000   2571749   2575730   2579503   2583052   2586367  
  6970.000000   2589482   2592454   2595372   2598309   2601321  
  6960.000000   2604405   2607523   2610595   2613562   2616377  
  6950.000000   2619057   2621632   2624163   2626671   2629162  
  6940.000000   2631592   2633924   2636115   2638165   2640087  
  6930.000000   2641913   2643654   2645302   2646818   2648165  
  6920.000000   2649321   2650307   2651173   2651999   2652855  
  6910.000000   2653798   2654847   2656011   2657282   2658670  
  6900.000000   2660176   2661802   2663519   2665274   2666980  
  6890.000000   2668554   2669931   2671095   2672076   2672935  
  6880.000000   2673740   2674538   2675340   2676129   2676870  
  6870.000000   2677538   2678129   2678669   2679194   2679749  
  6860.000000   2680361   2681047   2681799   2682606   2683447  
  6850.000000   2684307   2685170   2686030   2686881   2687726  
  6840.000000   2688568   2689409   2690236   2691021   2691717  
  6830.000000   2692276   2692663   2692874   2692942   2692939  
  6820.000000   2692943   2693029   2693230   2693545   2693933  
  6810.000000   2694349   2694744   2695100   2695406   2695667  
  6800.000000   2695876   2696027   2696103   2696103   2696042  
  6790.000000   2695956   2695884   2695854   2695861   2695874  
  6780.000000   2695839   2695715   2695487   2695181   2694847  
  6770.000000   2694535   2694270   2694038   2693791   2693478  
  6760.000000   2693064   2692559   2692013   2691497   2691075  
  6750.000000   2690783   2690613   2690534   2690503   2690487  
  6740.000000   2690470   2690446   2690403   2690318   2690156  
  6730.000000   2689884   2689496   2689023   2688533   2688115  
  6720.000000   2687838   2687736   2687782   2687908   2688019  
  6710.000000   2688040   2687921   2687660   2687279   2686817  
  6700.000000   2686296   2685728   2685101   2684403   2683628  
  6690.000000   2682785   2681894   2680987   2680091   2679230  
  6680.000000   2678410   2677634   2676887   2676156   2675416  
  6670.000000   2674652   2673848   2673006   2672135   2671257  
  6660.000000   2670387   2669531   2668671   2667771   2666784  
  6650.000000   2665674   2664423   2663047   2661583   2660086  
  6640.000000   2658596   2657144   2655731   2654355   2653002  
  6630.000000   2651679   2650392   2649158   2647975   2646831  
  6620.000000   2645683   2644482   2643178   2641745   2640179  
  6610.000000   2638508   2636777   2635033   2633316   2631647  
  6600.000000   2630029   2628456   2626909   2625371   2623826  
  6590.000000   2622264   2620681   2619082   2617478   2615888  
  6580.000000   2614329   2612817   2611362   2609968   2608637  
  6570.000000   2607368   2606154   2604984   2603841   2602693  
  6560.000000   2601506   2600248   2598900   2597465   2595969  
  6550.000000   2594455   2592966   2591534   2590171   2588866  
  6540.000000   2587600   2586350   2585100   2583843   2582574  
  6530.000000   2581282   2579953   2578570   2577132   2575658  
  6520.000000   2574197   2572812   2571566   2570496   2569596  
  6510.000000   2568816   2568083   2567323   2566488   2565570  
  6500.000000   2564598   2563617   2562670   2561770   2560904  
  6490.000000   2560030   2559106   2558100   2557003   2555834  
  6480.000000   2554624   2553409   2552216   2551059   2549940  
  6470.000000   2548856   2547801   2546773   2545770   2544792  
  6460.000000   2543839   2542906   2541986   2541066   2540134  
  6450.000000   2539173   2538174   2537130   2536051   2534956  
  6440.000000   2533875   2532843   2531886   2531018   2530239  
  6430.000000   2529533   2528879   2528253   2527636   2527008  
  6420.000000   2526355   2525660   2524920   2524141   2523353  
  6410.000000   2522602   2521950   2521441   2521100   2520906  
  6400.000000   2520807   2520729   2520610   2520413   2520142  
  6390.000000   2519829   2519516   2519229   2518971   2518718  
  6380.000000   2518437   2518105   2517724   2517317   2516920  
  6370.000000   2516555   2516218   2515882   2515502   2515050  
  6360.000000   2514524   2513956   2513395   2512891   2512459  
  6350.000000   2512081   2511707   2511278   2510752   2510118  
  6340.000000   2509398   2508639   2507885   2507174   2506518  
  6330.000000   2505919   2505368   2504859   2504384   2503933  
  6320.000000   2503480   2502992   2502426   2501748   2500942  
  6310.000000   2500024   2499025   2497987   2496939   2495891  
  6300.000000   2494825   2493720   2492550   2491320   2490045  
  6290.000000   2488771   2487531   2486359   2485252   2484196  
  6280.000000   2483147   2482063   2480895   2479616   2478204  
  6270.000000   2476662   2475004   2473263   2471473   2469676  
  6260.000000   2467896   2466148   2464425   2462709   2460976  
  6250.000000   2459211   2457410   2455588   2453764   2451958  
  6240.000000   2450180   2448432   2446711   2445014   2443345  
  6230.000000   2441711   2440115   2438551   2436996   2435420  
  6220.000000   2433789   2432085   2430311   2428492   2426665  
  6210.000000   2424867   2423124   2421438   2419798   2418186  
  6200.000000   2416588   2415002   2413433   2411894   2410391  
  6190.000000   2408927   2407498   2406101   2404735   2403404  
  6180.000000   2402110   2400852   2399616   2398379   2397119  
  6170.000000   2395815   2394461   2393060   2391622   2390155  
  6160.000000   2388665   2387150   2385612   2384063   2382526  
  6150.000000   2381036   2379624   2378307   2377083   2375924  
  6140.000000   2374796   2373666   2372521   2371363   2370215  
  6130.000000   2369101   2368038   2367027   2366064   2365135  
  6120.000000   2364236   2363366   2362534   2361741   2360985  
  6110.000000   2360245   2359503   2358739   2357950   2357143  
  6100.000000   2356344   2355573   2354849   2354173   2353544  
  6090.000000   2352952   2352399   2351886   2351428   2351026  
  6080.000000   2350679   2350366   2350069   2349766   2349459  
  6070.000000   2349161   2348910   2348739   2348683   2348745  
  6060.000000   2348922   2349182   2349500   2349846   2350216  
  6050.000000   2350606   2351037   2351525   2352101   2352778  
  6040.000000   2353576   2354494   2355529   2356655   2357854  
  6030.000000   2359092   2360359   2361648   2362976   2364360  
  6020.000000   2365824   2367364   2368969   2370599   2372221  
  6010.000000   2373799   2375331   2376827   2378326   2379863  
  6000.000000   2381469   2383150   2384901   2386691   2388499  
  5990.000000   2390298   2392082   2393842   2395591   2397336  
  5980.000000   2399103   2400913   2402803   2404802   2406942  
  5970.000000   2409231   2411673   2414242   2416915   2419659  
  5960.000000   2422459   2425291   2428151   2431015   2433867  
  5950.000000   2436675   2439427   2442119   2444785   2447475  
  5940.000000   2450256   2453179   2456272   2459523   2462888  
  5930.000000   2466303   2469705   2473051   2476316   2479495  
  5920.000000   2482587   2485590   2488489   2491268   2493915  
  5910.000000   2496427   2498820   2501120   2503355   2505553  
  5900.000000   2507730   2509903   2512076   2514265   2516475  
  5890.000000   2518715   2520978   2523255   2525524   2527767  
  5880.000000   2529970   2532137   2534273   2536390   2538492  
  5870.000000   2540568   2542603   2544573   2546469   2548290  
  5860.000000   2550056   2551790   2553518   2555255   2557010  
  5850.000000   2558786   2560592   2562444   2564369   2566395  
  5840.000000   2568547   2570831   2573242   2575757   2578352  
  5830.000000   2580997   2583667   2586333   2588965   2591531  
  5820.000000   2594003   2596363   2598615   2600785   2602914  
  5810.000000   2605051   2607222   2609444   2611690   2613940  
  5800.000000   2616146   2618303   2620391   2622443   2624457  
  5790.000000   2626460   2628415   2630296   2632015   2633495  
  5780.000000   2634624   2635320   2635492   2635103   2634135  
  5770.000000   2632641   2630700   2628450   2626028   2623583  
  5760.000000   2621214   2619003   2616966   2615112   2613416  
  5750.000000   2611872   2610464   2609197   2608066   2607062  
  5740.000000   2606171   2605366   2604626   2603921   2603239  
  5730.000000   2602554   2601862   2601143   2600403   2599642  
  5720.000000   2598889   2598170   2597525   2596975   2596531  
  5710.000000   2596174   2595880   2595616   2595361   2595109  
  5700.000000   2594870   2594660   2594493   2594373   2594295  
  5690.000000   2594250   2594227   2594229   2594252   2594301  
  5680.000000   2594361   2594416   2594425   2594356   2594166  
  5670.000000   2593830   2593317   2592604   2591661   2590470  
  5660.000000   2589013   2587305   2585384   2583327   2581220  
  5650.000000   2579159   2577207   2575406   2573752   2572226  
  5640.000000   2570789   2569412   2568068   2566744   2565431  
  5630.000000   2564125   2562831   2561558   2560333   2559186  
  5620.000000   2558151   2557244   2556462   2555772   2555127  
  5610.000000   2554473   2553776   2553020   2552218   2551395  
  5600.000000   2550581   2549793   2549036   2548301   2547578  
  5590.000000   2546862   2546152   2545454   2544770   2544098  
  5580.000000   2543426   2542743   2542036   2541305   2540553  
  5570.000000   2539786   2539005   2538205   2537373   2536500  
  5560.000000   2535583   2534631   2533659   2532687   2531727  
  5550.000000   2530781   2529839   2528892   2527935   2526974  
  5540.000000   2526023   2525104   2524227   2523395   2522595  
  5530.000000   2521810   2521021   2520215   2519389   2518544  
  5520.000000   2517683   2516811   2515925   2515025   2514110  
  5510.000000   2513181   2512235   2511268   2510269   2509231  
  5500.000000   2508146   2507028   2505897   2504789   2503727  
  5490.000000   2502724   2501755   2500782   2499746   2498604  
  5480.000000   2497332   2495941   2494464   2492951   2491436  
  5470.000000   2489945   2488474   2487009   2485528   2484012  
  5460.000000   2482449   2480828   2479137   2477365   2475506  
  5450.000000   2473564   2471564   2469545   2467555   2465636  
  5440.000000   2463811   2462082   2460440   2458870   2457368  
  5430.000000   2455932   2454562   2453242   2451948   2450637  
  5420.000000   2449284   2447875   2446448   2445056   2443784  
  5410.000000   2442686   2441791   2441065   2440465   2439926  
  5400.000000   2439421   2438941   2438520   2438184   2437966  
  5390.000000   2437857   2437848   2437908   2438043   2438264  
  5380.000000   2438629   2439174   2439941   2440910   2442059  
  5370.000000   2443316   2444650   2446013   2447424   2448879  
  5360.000000   2450431   2452081   2453880   2455828   2457996  
  5350.000000   2460405   2463154   2466265   2469812   2473766  
  5340.000000   2478149   2482890   2488012   2493466   2499303  
  5330.000000   2505489   2512076   2519006   2526316   2533946  
  5320.000000   2541969   2550373   2559283   2568712   2578784  
  5310.000000   2589465   2600821   2612765   2625333   2638447  
  5300.000000   2652183   2666514   2681565   2697345   2713986  
  5290.000000   2731470   2749866   2769075   2789065   2809667  
  5280.000000   2830824   2852417   2874487   2897044   2920223  
  5270.000000   2944065   2968621   2993780   3019387   3045203  
  5260.000000   3071035   3096759   3122363   3147913   3173486  
  5250.000000   3199122   3224733   3250174   3275185   3299592  
  5240.000000   3323218   3346088   3368218   3389786   3410848  
  5230.000000   3431529   3451754   3471498   3490569   3508907  
  5220.000000   3526366   3543005   3558810   3573950   3588466  
  5210.000000   3602510   3616039   3629084   3641487   3653214  
  5200.000000   3664113   3674235   3683546   3692201   3700225  
  5190.000000   3707763   3714781   3721336   3727327   3732777  
  5180.000000   3737601   3741861   3745517   3748654   3751237  
  5170.000000   3753333   3754894   3755986   3756582   3756763  
  5160.000000   3756512   3755897   3754873   3753476   3751648  
  5150.000000   3749428   3746794   3743816   3740498   3736910  
  5140.000000   3733040   3728931   3724564   3719983   3715195  
  5130.000000   3710266   3705217   3700095   3694889   3689607  
  5120.000000   3684215   3678713   3673095   3667392   3661629  
  5110.000000   3655848   3650066   3644304   3638561   3632850  
  5100.000000   3627174   3621555   3615998   3610512   3605078  
  5090.000000   3599677   3594277   3588861   3583420   3577966  
  5080.000000   3572513   3567076   3561650   3556222   3550760  
  5070.000000   3545239   3539639   3533965   3528227   3522453  
  5060.000000   3516653   3510837   3504989   3499097   3493136  
  5050.000000   3487101   3480992   3474829   3468628   3462415  
  5040.000000   3456200   3449991   3443780   3437562   3431329  
  5030.000000   3425079   3418819   3412558   3406317   3400114  
  5020.000000   3393971   3387902   3381925   3376039   3370254  
  5010.000000   3364561   3358972   3353480   3348107   3342852  
  5000.000000   3337746   3332790   3328011   3323404   3318994  
  4990.000000   3314770   3310760   3306949   3303367   3299993  
  4980.000000   3296854   3293927   3291242   3288780   3286589  
  4970.000000   3284661   3283052   3281750   3280796   3280158  
  4960.000000   3279858   3279852   3280168   3280779   3281737  
  4950.000000   3283028   3284707   3286747   3289174   3291930  
  4940.000000   3295023   3298390   3302050   3305965   3310181  
  4930.000000   3314679   3319512   3324659   3330157   3335971  
  4920.000000   3342121   3348561   3355301   3362296   3369558  
  4910.000000   3377056   3384811   3392810   3401075   3409595  
  4900.000000   3418372   3427374   3436569   3445904   3455326  
  4890.000000   3464783   3474219   3483590   3492843   3501941  
  4880.000000   3510828   3519480   3527851   3535938   3543704  
  4870.000000   3551160   3558265   3565024   3571384   3577351  
  4860.000000   3582878   3587992   3592673   3596970   3600881  
  4850.000000   3604464   3607716   3610688   3613375   3615826  
  4840.000000   3618041   3620072   3621930   3623670   3625307  
  4830.000000   3626890   3628429   3629953   3631452   3632929  
  4820.000000   3634358   3635732   3637036   3638281   3639482  
  4810.000000   3640675   3641892   3643159   3644492   3645886  
  4800.000000   3647329   3648804   3650297   3651805   3653332  
  4790.000000   3654883   3656466   3658077   3659712   3661361  
  4780.000000   3663019   3664690   3666381   3668102   3669855  
  4770.000000   3671637   3673426   3675197   3676915   3678559  
  4760.000000   3680107   3681558   3682909   3684173   3685351  
  4750.000000   3686452   3687471   3688413   3689267   3690035  
  4740.000000   3690705   3691279   3691746   3692112   3692374  
  4730.000000   3692547   3692637   3692663   3692632   3692559  
  4720.000000   3692446   3692301   3692130   3691940   3691748  
  4710.000000   3691570   3691425   3691331   3691304   3691352  
  4700.000000   3691484   3691704   3692017   3692424   3692933  
  4690.000000   3693545   3694266   3695089   3696016   3697028  
  4680.000000   3698111   3699231   3700363   3701464   3702515  
  4670.000000   3703491   3704400   3705250   3706080   3706916  
  4660.000000   3707805   3708769   3709842   3711036   3712376  
  4650.000000   3713875   3715559   3717440   3719532   3721832  
  4640.000000   3724328   3726990   3729782   3732665   3735598  
  4630.000000   3738542   3741459   3744311   3747057   3749660  
  4620.000000   3752078   3754284   3756253   3757981   3759466  
  4610.000000   3760728   3761780   3762658   3763381   3763990  
  4600.000000   3764501   3764955   3765358   3765739   3766091  
  4590.000000   3766429   3766730   3766996   3767196   3767324  
  4580.000000   3767350   3767271   3767063   3766734   3766275  
  4570.000000   3765701   3765008   3764211   3763296   3762266  
  4560.000000   3761104   3759811   3758383   3756841   3755202  
  4550.000000   3753500   3751752   3749977   3748169   3746322  
  4540.000000   3744416   3742445   3740406   3738315   3736197  
  4530.000000   3734078   3731985   3729923   3727904   3725911  
  4520.000000   3723956   3722027   3720160   3718362   3716696  
  4510.000000   3715178   3713882   3712819   3712066   3711629  
  4500.000000   3711590   3711950   3712796   3714119   3716007  
  4490.000000   3718444   3721519   3725211   3729608   3734682  
  4480.000000   3740503   3747025   3754298   3762260   3770950  
  4470.000000   3780300   3790336   3800976   3812218   3823954  
  4460.000000   3836149   3848679   3861501   3874512   3887690  
  4450.000000   3900970   3914356   3927814   3941349   3954937  
  4440.000000   3968567   3982214   3995845   4009438   4022950  
  4430.000000   4036369   4049645   4062781   4075720   4088466  
  4420.000000   4100942   4113139   4124956   4136368   4147257  
  4410.000000   4157591   4167254   4176223   4184409   4191823  
  4400.000000   4198422   4204272   4209385   4213872   4217787  
  4390.000000   4221263   4224373   4227247   4229952   4232594  
  4380.000000   4235219   4237895   4240642   4243500   4246486  
  4370.000000   4249636   4252985   4256576   4260450   4264634  
  4360.000000   4269142   4273967   4279071   4284416   4289923  
  4350.000000   4295544   4301186   4306831   4312413   4317972  
  4340.000000   4323489   4329020   4334501   4339854   4344811  
  4330.000000   4349036   4352051   4353414   4352744   4349904  
  4320.000000   4345000   4338451   4330857   4322941   4315342  
  4310.000000   4308581   4302920   4298444   4295037   4292533  
  4300.000000   4290723   4289456   4288618   4288139   4287980  
  4290.000000   4288087   4288441   4288989   4289738   4290670  
  4280.000000   4291812   4293167   4294739   4296513   4298456  
  4270.000000   4300545   4302723   4304946   4307097   4309028  
  4260.000000   4310502   4311260   4311022   4309590   4306865  
  4250.000000   4302923   4297967   4292341   4286401   4280521  
  4240.000000   4274958   4269899   4265380   4261381   4257788  
  4230.000000   4254495   4251368   4248310   4245242   4242111  
  4220.000000   4238910   4235638   4232355   4229106   4225992  
  4210.000000   4223073   4220448   4218157   4216257   4214748  
  4200.000000   4213638   4212881   4212444   4212246   4212237  
  4190.000000   4212327   4212482   4212640   4212812   4212976  
  4180.000000   4213187   4213447   4213826   4214333   4215049  
  4170.000000   4215993   4217259   4218880   4220951   4223488  
  4160.000000   4226552   4230113   4234188   4238706   4243669  
  4150.000000   4249008   4254745   4260833   4267323   4274190  
  4140.000000   4281501   4289238   4297474   4306183   4315421  
  4130.000000   4325139   4335360   4346009   4357091   4368536  
  4120.000000   4380360   4392525   4405076   4418004   4431369  
  4110.000000   4445163   4459425   4474122   4489247   4504723  
  4100.000000   4520499   4536476   4552592   4568776   4585004  
  4090.000000   4601263   4617571   4633950   4650420   4667001  
  4080.000000   4683684   4700474   4717334   4734252   4751157  
  4070.000000   4768008   4784690   4801137   4817222   4832911  
  4060.000000   4848119   4862868   4877109   4890886   4904136  
  4050.000000   4916897   4929101   4940812   4951985   4962711  
  4040.000000   4972933   4982706   4991911   5000552   5008480  
  4030.000000   5015714   5022150   5027854   5032774   5036980  
  4020.000000   5040391   5043073   5045004   5046261   5046794  
  4010.000000   5046739   5046169   5045100   5043306   5040844  
  4000.000000   5038043  
##END= 
