##TITLE= Sample 008 By ssteindl date Montag, November 26 2018
##JCAMP-DX= 4.24
##DATA TYPE= INFRARED SPECTRUM
##ORIGIN= Exported PE Spectrum Data File
##OWNER= Sandra Steindl
##DATE= 18/11/26
##TIME= 12:11:06.00
##SPECTROMETER/DATA SYSTEM= PERKIN-ELMER Frontier FT-IR/NIR IR
##INSTRUMENT PARAMETERS=
  APODIZATION=stark
  DETECTOR=INGAAS
##RESOLUTION= 16.000000
##DELTAX= -2.000000
##XUNITS= 1/CM
##YUNITS= A
##XFACTOR= 1.00
##YFACTOR= 0.00000011920928955078
##FIRSTX= 10000.00
##LASTX= 4000.00
##NPOINTS= 3001
##FIRSTY= 0.282015
##MAXY= 0.657405
##MINY= 0.226412
##XYDATA= (X++(Y..Y))
 10000.000000   2365712   2370127   2375368   2381918   2388533  
  9990.000000   2393112   2394311   2392078   2387077   2380693  
  9980.000000   2374838   2371594   2372256   2377193   2385726  
  9970.000000   2396483   2407530   2416935   2423056   2424896  
  9960.000000   2422207   2415535   2406093   2395482   2385404  
  9950.000000   2377215   2371692   2368825   2367913   2367868  
  9940.000000   2367533   2366195   2363647   2360384   2357219  
  9930.000000   2355097   2354693   2356229   2359459   2363664  
  9920.000000   2367951   2371300   2372956   2372400   2369651  
  9910.000000   2365074   2359462   2353693   2348663   2344967  
  9900.000000   2342908   2342427   2343268   2345174   2347969  
  9890.000000   2351737   2356604   2362752   2370123   2378453  
  9880.000000   2387245   2395891   2403819   2410494   2415463  
  9870.000000   2418272   2418508   2415908   2410523   2402925  
  9860.000000   2394182   2385762   2379075   2375119   2374032  
  9850.000000   2375104   2376922   2377942   2376946   2373504  
  9840.000000   2367978   2361386   2354917   2349617   2346093  
  9830.000000   2344560   2344937   2347013   2350494   2354932  
  9820.000000   2359685   2363833   2366405   2366531   2363823  
  9810.000000   2358429   2351078   2342786   2334568   2327204  
  9800.000000   2321135   2316625   2313876   2313204   2314906  
  9790.000000   2319078   2325278   2332398   2338767   2342563  
  9780.000000   2342425   2337912   2329804   2319819   2310178  
  9770.000000   2302837   2299015   2298899   2301748   2306272  
  9760.000000   2311012   2314789   2316844   2316972   2315386  
  9750.000000   2312634   2309432   2306498   2304432   2303497  
  9740.000000   2303602   2304231   2304666   2304213   2302496  
  9730.000000   2299652   2296288   2293285   2291431   2291102  
  9720.000000   2292139   2293869   2295437   2296068   2295391  
  9710.000000   2293497   2290877   2288225   2286191   2285257  
  9700.000000   2285650   2287397   2290342   2294181   2298460  
  9690.000000   2302598   2305964   2308001   2308393   2307143  
  9680.000000   2304621   2301402   2298132   2295265   2293012  
  9670.000000   2291306   2289950   2288792   2287783   2287076  
  9660.000000   2286843   2287288   2288462   2290342   2292782  
  9650.000000   2295605   2298594   2301470   2303897   2305448  
  9640.000000   2305710   2304385   2301426   2297136   2292118  
  9630.000000   2287157   2282963   2279990   2278310   2277679  
  9620.000000   2277641   2277723   2277495   2276654   2274983  
  9610.000000   2272377   2268880   2264711   2260334   2256363  
  9600.000000   2253475   2252147   2252484   2254122   2256291  
  9590.000000   2258129   2258951   2258585   2257369   2256049  
  9580.000000   2255410   2255945   2257625   2259882   2261829  
  9570.000000   2262543   2261385   2258129   2253021   2246607  
  9560.000000   2239636   2232832   2226859   2222159   2218958  
  9550.000000   2217157   2216403   2216136   2215812   2215107  
  9540.000000   2214086   2213265   2213424   2215388   2219623  
  9530.000000   2226045   2233930   2242121   2249429   2254974  
  9520.000000   2258478   2260155   2260519   2259989   2258678  
  9510.000000   2256354   2252641   2247336   2240659   2233355  
  9500.000000   2226489   2221176   2218105   2217403   2218497  
  9490.000000   2220450   2222224   2223094   2222789   2221490  
  9480.000000   2219632   2217693   2216010   2214738   2213887  
  9470.000000   2213417   2213308   2213558   2214157   2214969  
  9460.000000   2215736   2216035   2215436   2213569   2210316  
  9450.000000   2205798   2200393   2194608   2188961   2183936  
  9440.000000   2179909   2177224   2176161   2176941   2179610  
  9430.000000   2183945   2189367   2194985   2199714   2202513  
  9420.000000   2202661   2199980   2195013   2188882   2183075  
  9410.000000   2178933   2177289   2178166   2180804   2183909  
  9400.000000   2186072   2186233   2183999   2179782   2174601  
  9390.000000   2169744   2166294   2164841   2165363   2167347  
  9380.000000   2170062   2172780   2175028   2176600   2177562  
  9370.000000   2178064   2178228   2178052   2177462   2176376  
  9360.000000   2174819   2172951   2171065   2169543   2168747  
  9350.000000   2168991   2170400   2172931   2176297   2180038  
  9340.000000   2183568   2186278   2187641   2187315   2185218  
  9330.000000   2181600   2176983   2172094   2167673   2164349  
  9320.000000   2162506   2162247   2163332   2165253   2167261  
  9310.000000   2168588   2168556   2166791   2163278   2158401  
  9300.000000   2152891   2147633   2143463   2140876   2139915  
  9290.000000   2140135   2140818   2141174   2140650   2139042  
  9280.000000   2136597   2133840   2131413   2129796   2129190  
  9270.000000   2129487   2130382   2131541   2132765   2134092  
  9260.000000   2135776   2138148   2141412   2145518   2150093  
  9250.000000   2154486   2157922   2159678   2159355   2156948  
  9240.000000   2152924   2148040   2143187   2139139   2136364  
  9230.000000   2134941   2134567   2134770   2135069   2135205  
  9220.000000   2135125   2135045   2135246   2136013   2137421  
  9210.000000   2139341   2141462   2143408   2144869   2145642  
  9200.000000   2145678   2144986   2143629   2141659   2139143  
  9190.000000   2136162   2132845   2129370   2125936   2122740  
  9180.000000   2119902   2117506   2115572   2114161   2113343  
  9170.000000   2113206   2113771   2114936   2116438   2117853  
  9160.000000   2118694   2118562   2117296   2115022   2112127  
  9150.000000   2109128   2106585   2104884   2104207   2104419  
  9140.000000   2105183   2106005   2106381   2105879   2104244  
  9130.000000   2101528   2098109   2094664   2092013   2090967  
  9120.000000   2092106   2095542   2100796   2106883   2112577  
  9110.000000   2116692   2118410   2117475   2114325   2109868  
  9100.000000   2105245   2101445   2099103   2098358   2098880  
  9090.000000   2100096   2101361   2102274   2102693   2102855  
  9080.000000   2103154   2104040   2105758   2108241   2111082  
  9070.000000   2113568   2114928   2114495   2111990   2107557  
  9060.000000   2101791   2095595   2089966   2085751   2083410  
  9050.000000   2082992   2084137   2086248   2088578   2090503  
  9040.000000   2091599   2091760   2091141   2090093   2089068  
  9030.000000   2088431   2088375   2088773   2089271   2089335  
  9020.000000   2088489   2086456   2083338   2079626   2076090  
  9010.000000   2073522   2072441   2072938   2074630   2076808  
  9000.000000   2078682   2079676   2079647   2078891   2077995  
  8990.000000   2077572   2078038   2079447   2081502   2083687  
  8980.000000   2085473   2086508   2086690   2086192   2085333  
  8970.000000   2084499   2083981   2083956   2084422   2085220  
  8960.000000   2086035   2086452   2086053   2084495   2081635  
  8950.000000   2077612   2072855   2067998   2063696   2060463  
  8940.000000   2058534   2057821   2057997   2058625   2059357  
  8930.000000   2060000   2060527   2060994   2061424   2061790  
  8920.000000   2061998   2062004   2061889   2061922   2062503  
  8910.000000   2063985   2066489   2069772   2073231   2076013  
  8900.000000   2077260   2076376   2073269   2068337   2062393  
  8890.000000   2056382   2051176   2047330   2044973   2043878  
  8880.000000   2043593   2043680   2043844   2044048   2044461  
  8870.000000   2045363   2046970   2049303   2052130   2054985  
  8860.000000   2057350   2058771   2059101   2058486   2057413  
  8850.000000   2056468   2056173   2056751   2058056   2059636  
  8840.000000   2060901   2061366   2060829   2059474   2057793  
  8830.000000   2056427   2055911   2056510   2058115   2060316  
  8820.000000   2062544   2064255   2065096   2064978   2064083  
  8810.000000   2062777   2061482   2060567   2060248   2060569  
  8800.000000   2061396   2062498   2063604   2064501   2065071  
  8790.000000   2065320   2065334   2065227   2065063   2064807  
  8780.000000   2064343   2063507   2062200   2060428   2058354  
  8770.000000   2056250   2054407   2053051   2052260   2051989  
  8760.000000   2052096   2052447   2052953   2053603   2054427  
  8750.000000   2055425   2056535   2057597   2058439   2058899  
  8740.000000   2058936   2058597   2058030   2057390   2056809  
  8730.000000   2056369   2056121   2056131   2056490   2057308  
  8720.000000   2058626   2060375   2062307   2064064   2065285  
  8710.000000   2065744   2065459   2064678   2063790   2063146  
  8700.000000   2062918   2063012   2063139   2062955   2062256  
  8690.000000   2061100   2059796   2058793   2058463   2058964  
  8680.000000   2060146   2061640   2063017   2063957   2064384  
  8670.000000   2064435   2064387   2064478   2064816   2065322  
  8660.000000   2065813   2066100   2066115   2065941   2065786  
  8650.000000   2065880   2066376   2067295   2068536   2069934  
  8640.000000   2071348   2072695   2073970   2075183   2076323  
  8630.000000   2077328   2078108   2078613   2078890   2079110  
  8620.000000   2079534   2080429   2081957   2084095   2086600  
  8610.000000   2089079   2091093   2092289   2092513   2091835  
  8600.000000   2090555   2089073   2087803   2087040   2086913  
  8590.000000   2087368   2088207   2089189   2090109   2090901  
  8580.000000   2091637   2092530   2093827   2095727   2098264  
  8570.000000   2101276   2104418   2107239   2109314   2110360  
  8560.000000   2110347   2109482   2108153   2106809   2105821  
  8550.000000   2105394   2105500   2105941   2106417   2106668  
  8540.000000   2106526   2106004   2105236   2104464   2103899  
  8530.000000   2103696   2103877   2104340   2104901   2105324  
  8520.000000   2105442   2105130   2104389   2103261   2101882  
  8510.000000   2100380   2098900   2097560   2096477   2095776  
  8500.000000   2095584   2096041   2097265   2099343   2102276  
  8490.000000   2105962   2110172   2114569   2118749   2122291  
  8480.000000   2124848   2126203   2126364   2125530   2124092  
  8470.000000   2122515   2121251   2120605   2120659   2121283  
  8460.000000   2122175   2123016   2123530   2123640   2123428  
  8450.000000   2123146   2123058   2123372   2124141   2125260  
  8440.000000   2126518   2127654   2128464   2128817   2128696  
  8430.000000   2128147   2127255   2126113   2124820   2123501  
  8420.000000   2122317   2121454   2121082   2121324   2122198  
  8410.000000   2123608   2125347   2127162   2128818   2130152  
  8400.000000   2131091   2131643   2131878   2131884   2131753  
  8390.000000   2131565   2131395   2131311   2131353   2131523  
  8380.000000   2131754   2131937   2131927   2131613   2130938  
  8370.000000   2129949   2128759   2127527   2126381   2125380  
  8360.000000   2124496   2123640   2122708   2121646   2120473  
  8350.000000   2119290   2118234   2117437   2116970   2116818  
  8340.000000   2116886   2117019   2117072   2116922   2116522  
  8330.000000   2115879   2115071   2114203   2113397   2112757  
  8320.000000   2112344   2112186   2112265   2112554   2113016  
  8310.000000   2113633   2114383   2115246   2116161   2117016  
  8300.000000   2117646   2117859   2117499   2116498   2114934  
  8290.000000   2113005   2111000   2109207   2107833   2106943  
  8280.000000   2106436   2106115   2105752   2105205   2104443  
  8270.000000   2103580   2102794   2102292   2102188   2102492  
  8260.000000   2103076   2103736   2104248   2104427   2104174  
  8250.000000   2103460   2102336   2100869   2099144   2097219  
  8240.000000   2095152   2093000   2090836   2088763   2086892  
  8230.000000   2085353   2084249   2083667   2083618   2084060  
  8220.000000   2084864   2085856   2086821   2087547   2087858  
  8210.000000   2087641   2086876   2085627   2084034   2082264  
  8200.000000   2080477   2078785   2077230   2075787   2074364  
  8190.000000   2072867   2071212   2069393   2067456   2065518  
  8180.000000   2063702   2062112   2060783   2059672   2058675  
  8170.000000   2057642   2056456   2055028   2053360   2051501  
  8160.000000   2049548   2047603   2045763   2044111   2042725  
  8150.000000   2041695   2041106   2041032   2041479   2042367  
  8140.000000   2043501   2044602   2045364   2045528   2044959  
  8130.000000   2043665   2041805   2039606   2037315   2035109  
  8120.000000   2033080   2031228   2029499   2027837   2026202  
  8110.000000   2024616   2023113   2021771   2020639   2019766  
  8100.000000   2019164   2018824   2018703   2018713   2018733  
  8090.000000   2018595   2018142   2017232   2015826   2013972  
  8080.000000   2011838   2009651   2007656   2006042   2004905  
  8070.000000   2004248   2003990   2004034   2004276   2004658  
  8060.000000   2005131   2005655   2006161   2006538   2006661  
  8050.000000   2006393   2005656   2004421   2002745   2000741  
  8040.000000   1998567   1996404   1994427   1992809   1991672  
  8030.000000   1991113   1991127   1991651   1992508   1993474  
  8020.000000   1994296   1994761   1994740   1994200   1993207  
  8010.000000   1991858   1990271   1988505   1986594   1984540  
  8000.000000   1982370   1980168   1978072   1976268   1974917  
  7990.000000   1974130   1973899   1974120   1974598   1975113  
  7980.000000   1975471   1975541   1975279   1974703   1973891  
  7970.000000   1972932   1971938   1970998   1970202   1969603  
  7960.000000   1969224   1969033   1968951   1968866   1968661  
  7950.000000   1968262   1967652   1966899   1966125   1965479  
  7940.000000   1965082   1964989   1965175   1965530   1965900  
  7930.000000   1966111   1966020   1965529   1964615   1963322  
  7920.000000   1961765   1960107   1958550   1957287   1956477  
  7910.000000   1956194   1956414   1957011   1957786   1958522  
  7900.000000   1959044   1959261   1959187   1958922   1958614  
  7890.000000   1958394   1958345   1958470   1958713   1958974  
  7880.000000   1959156   1959189   1959046   1958742   1958317  
  7870.000000   1957831   1957341   1956900   1956549   1956309  
  7860.000000   1956171   1956094   1956003   1955812   1955448  
  7850.000000   1954882   1954142   1953316   1952525   1951879  
  7840.000000   1951441   1951199   1951070   1950935   1950681  
  7830.000000   1950254   1949671   1949028   1948452   1948066  
  7820.000000   1947931   1948035   1948284   1948544   1948676  
  7810.000000   1948579   1948221   1947634   1946904   1946138  
  7800.000000   1945426   1944820   1944322   1943896   1943485  
  7790.000000   1943043   1942548   1942011   1941463   1940943  
  7780.000000   1940468   1940040   1939628   1939199   1938730  
  7770.000000   1938227   1937725   1937277   1936928   1936680  
  7760.000000   1936481   1936227   1935788   1935052   1933968  
  7750.000000   1932573   1930991   1929400   1927981   1926867  
  7740.000000   1926100   1925629   1925329   1925049   1924665  
  7730.000000   1924111   1923401   1922606   1921822   1921133  
  7720.000000   1920577   1920140   1919773   1919414   1919026  
  7710.000000   1918608   1918199   1917856   1917626   1917522  
  7700.000000   1917503   1917488   1917380   1917096   1916605  
  7690.000000   1915937   1915183   1914461   1913878   1913491  
  7680.000000   1913281   1913158   1912986   1912634   1912020  
  7670.000000   1911146   1910103   1909048   1908158   1907576  
  7660.000000   1907359   1907462   1907746   1908020   1908102  
  7650.000000   1907864   1907282   1906421   1905419   1904433  
  7640.000000   1903595   1902981   1902601   1902415   1902366  
  7630.000000   1902405   1902510   1902690   1902959   1903322  
  7620.000000   1903753   1904195   1904570   1904799   1904826  
  7610.000000   1904623   1904205   1903617   1902925   1902208  
  7600.000000   1901545   1901007   1900650   1900499   1900550  
  7590.000000   1900755   1901032   1901284   1901419   1901378  
  7580.000000   1901154   1900797   1900396   1900061   1899896  
  7570.000000   1899975   1900331   1900937   1901722   1902567  
  7560.000000   1903335   1903880   1904091   1903901   1903324  
  7550.000000   1902446   1901431   1900463   1899718   1899312  
  7540.000000   1899282   1899595   1900167   1900906   1901734  
  7530.000000   1902609   1903511   1904428   1905337   1906187  
  7520.000000   1906929   1907508   1907918   1908177   1908350  
  7510.000000   1908502   1908694   1908955   1909293   1909700  
  7500.000000   1910178   1910736   1911391   1912149   1912994  
  7490.000000   1913880   1914753   1915560   1916295   1916984  
  7480.000000   1917696   1918497   1919429   1920483   1921612  
  7470.000000   1922751   1923859   1924934   1926024   1927198  
  7460.000000   1928516   1929987   1931571   1933179   1934719  
  7450.000000   1936120   1937361   1938456   1939446   1940363  
  7440.000000   1941230   1942053   1942854   1943677   1944601  
  7430.000000   1945726   1947137   1948873   1950902   1953127  
  7420.000000   1955415   1957640   1959714   1961603   1963328  
  7410.000000   1964930   1966457   1967935   1969376   1970775  
  7400.000000   1972133   1973451   1974739   1975998   1977227  
  7390.000000   1978416   1979558   1980658   1981735   1982819  
  7380.000000   1983943   1985133   1986403   1987765   1989240  
  7370.000000   1990870   1992706   1994788   1997112   1999606  
  7360.000000   2002133   2004515   2006591   2008259   2009526  
  7350.000000   2010499   2011356   2012276   2013386   2014719  
  7340.000000   2016218   2017774   2019275   2020660   2021925  
  7330.000000   2023126   2024331   2025605   2026972   2028428  
  7320.000000   2029934   2031444   2032916   2034316   2035620  
  7310.000000   2036807   2037869   2038805   2039636   2040398  
  7300.000000   2041138   2041897   2042702   2043558   2044445  
  7290.000000   2045342   2046226   2047101   2047979   2048891  
  7280.000000   2049860   2050900   2052003   2053148   2054302  
  7270.000000   2055425   2056486   2057452   2058309   2059042  
  7260.000000   2059666   2060207   2060722   2061268   2061915  
  7250.000000   2062705   2063665   2064787   2066053   2067436  
  7240.000000   2068928   2070530   2072260   2074125   2076124  
  7230.000000   2078220   2080378   2082539   2084677   2086767  
  7220.000000   2088821   2090840   2092846   2094837   2096826  
  7210.000000   2098824   2100874   2103024   2105340   2107863  
  7200.000000   2110608   2113537   2116588   2119677   2122752  
  7190.000000   2125784   2128806   2131866   2135035   2138342  
  7180.000000   2141794   2145336   2148909   2152429   2155861  
  7170.000000   2159188   2162453   2165715   2169062   2172560  
  7160.000000   2176269   2180207   2184386   2188783   2193381  
  7150.000000   2198139   2203026   2207986   2212976   2217924  
  7140.000000   2222792   2227530   2232144   2236645   2241105  
  7130.000000   2245595   2250225   2255073   2260214   2265672  
  7120.000000   2271453   2277521   2283840   2290356   2297034  
  7110.000000   2303821   2310671   2317501   2324237   2330786  
  7100.000000   2337110   2343198   2349124   2354993   2360945  
  7090.000000   2367089   2373495   2380160   2387037   2394043  
  7080.000000   2401098   2408135   2415124   2422050   2428920  
  7070.000000   2435742   2442534   2449310   2456100   2462931  
  7060.000000   2469836   2476823   2483885   2490980   2498057  
  7050.000000   2505058   2511944   2518700   2525334   2531870  
  7040.000000   2538336   2544756   2551143   2557513   2563879  
  7030.000000   2570259   2576664   2583100   2589549   2595988  
  7020.000000   2602382   2608711   2614960   2621140   2627259  
  7010.000000   2633331   2639350   2645306   2651177   2656954  
  7000.000000   2662629   2668215   2673712   2679124   2684424  
  6990.000000   2689593   2694597   2699438   2704120   2708688  
  6980.000000   2713164   2717577   2721910   2726140   2730223  
  6970.000000   2734143   2737891   2741504   2745008   2748446  
  6960.000000   2751822   2755142   2758383   2761551   2764639  
  6950.000000   2767672   2770646   2773557   2776363   2779026  
  6940.000000   2781503   2783801   2785952   2788029   2790089  
  6930.000000   2792175   2794266   2796320   2798267   2800076  
  6920.000000   2801746   2803334   2804901   2806507   2808160  
  6910.000000   2809828   2811445   2812959   2814344   2815619  
  6900.000000   2816828   2818019   2819211   2820400   2821553  
  6890.000000   2822650   2823690   2824705   2825739   2826821  
  6880.000000   2827941   2829055   2830096   2831014   2831796  
  6870.000000   2832485   2833156   2833887   2834722   2835660  
  6860.000000   2836655   2837650   2838603   2839504   2840371  
  6850.000000   2841234   2842101   2842959   2843767   2844488  
  6840.000000   2845105   2845639   2846134   2846642   2847189  
  6830.000000   2847769   2848339   2848851   2849262   2849564  
  6820.000000   2849768   2849899   2849968   2849977   2849912  
  6810.000000   2849779   2849605   2849456   2849407   2849524  
  6800.000000   2849818   2850245   2850706   2851088   2851293  
  6790.000000   2851280   2851061   2850695   2850248   2849779  
  6780.000000   2849314   2848863   2848425   2848004   2847614  
  6770.000000   2847270   2846970   2846696   2846407   2846063  
  6760.000000   2845633   2845114   2844529   2843920   2843327  
  6750.000000   2842782   2842303   2841906   2841601   2841408  
  6740.000000   2841335   2841374   2841488   2841615   2841677  
  6730.000000   2841606   2841366   2840963   2840432   2839829  
  6720.000000   2839198   2838569   2837947   2837339   2836749  
  6710.000000   2836201   2835713   2835295   2834918   2834531  
  6700.000000   2834059   2833443   2832653   2831714   2830686  
  6690.000000   2829648   2828660   2827752   2826911   2826107  
  6680.000000   2825298   2824468   2823608   2822731   2821833  
  6670.000000   2820909   2819929   2818874   2817734   2816531  
  6660.000000   2815302   2814093   2812925   2811788   2810637  
  6650.000000   2809413   2808060   2806557   2804916   2803188  
  6640.000000   2801435   2799716   2798068   2796510   2795034  
  6630.000000   2793626   2792256   2790899   2789524   2788113  
  6620.000000   2786650   2785146   2783618   2782100   2780615  
  6610.000000   2779168   2777735   2776268   2774711   2773024  
  6600.000000   2771193   2769242   2767213   2765155   2763097  
  6590.000000   2761052   2759017   2756994   2754998   2753065  
  6580.000000   2751231   2749521   2747925   2746397   2744871  
  6570.000000   2743281   2741593   2739811   2737985   2736179  
  6560.000000   2734454   2732848   2731371   2730010   2728748  
  6550.000000   2727573   2726477   2725449   2724462   2723473  
  6540.000000   2722429   2721283   2720014   2718628   2717166  
  6530.000000   2715673   2714189   2712726   2711276   2709821  
  6520.000000   2708352   2706882   2705448   2704099   2702877  
  6510.000000   2701804   2700870   2700043   2699280   2698542  
  6500.000000   2697799   2697029   2696222   2695358   2694425  
  6490.000000   2693409   2692307   2691130   2689902   2688650  
  6480.000000   2687400   2686170   2684969   2683805   2682687  
  6470.000000   2681627   2680635   2679712   2678845   2678000  
  6460.000000   2677139   2676223   2675231   2674162   2673038  
  6450.000000   2671890   2670754   2669656   2668618   2667654  
  6440.000000   2666775   2665989   2665296   2664686   2664139  
  6430.000000   2663626   2663123   2662610   2662086   2661549  
  6420.000000   2661003   2660433   2659817   2659122   2658338  
  6410.000000   2657474   2656582   2655735   2655012   2654466  
  6400.000000   2654110   2653912   2653808   2653733   2653637  
  6390.000000   2653503   2653338   2653159   2652980   2652798  
  6380.000000   2652602   2652377   2652119   2651836   2651544  
  6370.000000   2651251   2650947   2650604   2650182   2649657  
  6360.000000   2649027   2648330   2647617   2646949   2646359  
  6350.000000   2645854   2645404   2644975   2644528   2644049  
  6340.000000   2643535   2642997   2642437   2641845   2641201  
  6330.000000   2640487   2639695   2638838   2637944   2637046  
  6320.000000   2636163   2635300   2634439   2633565   2632662  
  6310.000000   2631739   2630808   2629894   2628999   2628117  
  6300.000000   2627215   2626268   2625248   2624158   2623007  
  6290.000000   2621814   2620588   2619322   2617991   2616570  
  6280.000000   2615038   2613405   2611695   2609956   2608234  
  6270.000000   2606568   2604977   2603468   2602028   2600638  
  6260.000000   2599268   2597885   2596451   2594937   2593327  
  6250.000000   2591631   2589884   2588135   2586432   2584800  
  6240.000000   2583231   2581684   2580104   2578445   2576692  
  6230.000000   2574866   2573014   2571192   2569433   2567743  
  6220.000000   2566096   2564456   2562789   2561085   2559359  
  6210.000000   2557640   2555954   2554312   2552705   2551110  
  6200.000000   2549503   2547876   2546238   2544611   2543025  
  6190.000000   2541496   2540032   2538624   2537258   2535921  
  6180.000000   2534602   2533297   2532004   2530716   2529430  
  6170.000000   2528141   2526853   2525570   2524303   2523056  
  6160.000000   2521829   2520611   2519389   2518154   2516903  
  6150.000000   2515644   2514390   2513155   2511940   2510741  
  6140.000000   2509547   2508346   2507139   2505929   2504729  
  6130.000000   2503543   2502372   2501202   2500023   2498830  
  6120.000000   2497640   2496484   2495408   2494448   2493629  
  6110.000000   2492943   2492366   2491854   2491371   2490882  
  6100.000000   2490384   2489874   2489373   2488896   2488465  
  6090.000000   2488092   2487792   2487569   2487427   2487353  
  6080.000000   2487340   2487365   2487424   2487512   2487645  
  6070.000000   2487833   2488095   2488423   2488809   2489221  
  6060.000000   2489644   2490064   2490504   2490989   2491564  
  6050.000000   2492251   2493060   2493966   2494942   2495950  
  6040.000000   2496979   2498029   2499124   2500281   2501517  
  6030.000000   2502822   2504186   2505588   2507030   2508520  
  6020.000000   2510085   2511742   2513502   2515344   2517240  
  6010.000000   2519142   2521028   2522879   2524713   2526546  
  6000.000000   2528408   2530310   2532263   2534259   2536306  
  5990.000000   2538405   2540575   2542823   2545156   2547555  
  5980.000000   2549999   2552452   2554899   2557332   2559777  
  5970.000000   2562260   2564823   2567482   2570250   2573108  
  5960.000000   2576040   2579014   2582014   2585021   2588033  
  5950.000000   2591046   2594072   2597124   2600231   2603419  
  5940.000000   2606722   2610157   2613729   2617421   2621202  
  5930.000000   2625030   2628867   2632678   2636439   2640128  
  5920.000000   2643727   2647214   2650574   2653795   2656880  
  5910.000000   2659846   2662715   2665513   2668257   2670958  
  5900.000000   2673619   2676254   2678876   2681521   2684214  
  5890.000000   2686991   2689853   2692797   2695786   2698789  
  5880.000000   2701762   2704675   2707495   2710192   2712731  
  5870.000000   2715075   2717197   2719090   2720779   2722322  
  5860.000000   2723797   2725286   2726854   2728539   2730354  
  5850.000000   2732298   2734363   2736548   2738854   2741279  
  5840.000000   2743804   2746395   2749006   2751586   2754106  
  5830.000000   2756550   2758931   2761268   2763587   2765897  
  5820.000000   2768206   2770518   2772840   2775190   2777584  
  5810.000000   2780030   2782512   2785000   2787439   2789802  
  5800.000000   2792063   2794257   2796415   2798606   2800840  
  5790.000000   2803124   2805380   2807530   2809445   2811031  
  5780.000000   2812181   2812838   2812937   2812466   2811411  
  5770.000000   2809826   2807785   2805430   2802906   2800381  
  5760.000000   2797964   2795739   2793708   2791859   2790143  
  5750.000000   2788539   2787031   2785630   2784342   2783169  
  5740.000000   2782093   2781084   2780118   2779173   2778258  
  5730.000000   2777378   2776552   2775778   2775055   2774362  
  5720.000000   2773694   2773048   2772444   2771900   2771436  
  5710.000000   2771046   2770713   2770400   2770078   2769723  
  5700.000000   2769339   2768940   2768552   2768197   2767888  
  5690.000000   2767638   2767451   2767345   2767325   2767399  
  5680.000000   2767544   2767719   2767848   2767849   2767635  
  5670.000000   2767147   2766349   2765240   2763834   2762165  
  5660.000000   2760269   2758198   2756008   2753775   2751568  
  5650.000000   2749462   2747495   2745685   2744005   2742419  
  5640.000000   2740874   2739336   2737784   2736222   2734665  
  5630.000000   2733131   2731639   2730198   2728825   2727525  
  5620.000000   2726312   2725183   2724134   2723140   2722176  
  5610.000000   2721212   2720237   2719248   2718267   2717313  
  5600.000000   2716406   2715549   2714731   2713932   2713135  
  5590.000000   2712330   2711521   2710717   2709923   2709137  
  5580.000000   2708342   2707518   2706647   2705720   2704741  
  5570.000000   2703723   2702676   2701608   2700514   2699392  
  5560.000000   2698239   2697066   2695887   2694727   2693599  
  5550.000000   2692511   2691454   2690411   2689363   2688297  
  5540.000000   2687208   2686095   2684963   2683814   2682653  
  5530.000000   2681487   2680325   2679183   2678077   2677013  
  5520.000000   2675990   2674993   2674005   2673010   2672000  
  5510.000000   2670979   2669953   2668926   2667888   2666822  
  5500.000000   2665706   2664528   2663295   2662033   2660775  
  5490.000000   2659552   2658366   2657200   2656012   2654763  
  5480.000000   2653425   2651999   2650502   2648971   2647429  
  5470.000000   2645887   2644334   2642754   2641128   2639454  
  5460.000000   2637737   2635991   2634217   2632412   2630557  
  5450.000000   2628634   2626638   2624578   2622483   2620391  
  5440.000000   2618335   2616337   2614411   2612565   2610811  
  5430.000000   2609157   2607611   2606160   2604779   2603422  
  5420.000000   2602053   2600643   2599213   2597802   2596487  
  5410.000000   2595318   2594335   2593516   2592831   2592223  
  5400.000000   2591677   2591183   2590785   2590510   2590398  
  5390.000000   2590442   2590637   2590945   2591368   2591911  
  5380.000000   2592630   2593557   2594744   2596171   2597822  
  5370.000000   2599620   2601534   2603504   2605550   2607665  
  5360.000000   2609911   2612294   2614884   2617679   2620756  
  5350.000000   2624124   2627869   2631993   2636562   2641536  
  5340.000000   2646946   2652731   2658936   2665522   2672565  
  5330.000000   2680029   2687981   2696355   2705195   2714432  
  5320.000000   2724148   2734325   2745103   2756494   2768646  
  5310.000000   2781529   2795237   2809683   2824928   2840886  
  5300.000000   2857642   2875157   2893561   2912850   2933160  
  5290.000000   2954459   2976811   3000091   3024245   3049071  
  5280.000000   3074492   3100372   3126755   3153658   3181238  
  5270.000000   3209545   3238631   3268371   3298578   3328983  
  5260.000000   3359361   3389578   3419613   3449550   3479460  
  5250.000000   3509393   3539228   3568807   3597822   3626091  
  5240.000000   3653405   3679806   3705305   3730112   3754284  
  5230.000000   3777967   3801066   3823556   3845203   3865937  
  5220.000000   3885579   3904200   3921788   3938565   3954602  
  5210.000000   3970115   3985080   3999557   4013361   4026442  
  5200.000000   4038602   4049873   4060190   4069715   4078461  
  5190.000000   4086587   4094059   4100956   4107186   4112809  
  5180.000000   4117757   4122123   4125865   4129065   4131649  
  5170.000000   4133655   4135001   4135748   4135876   4135505  
  5160.000000   4134651   4133423   4131788   4129785   4127339  
  5150.000000   4124477   4121160   4117463   4113390   4109024  
  5140.000000   4104352   4099419   4094192   4088709   4082967  
  5130.000000   4077035   4070936   4064733   4058422   4052023  
  5120.000000   4045506   4038880   4032137   4025314   4018431  
  5110.000000   4011531   4004622   3997717   3990804   3983888  
  5100.000000   3976972   3970083   3963239   3956468   3949776  
  5090.000000   3943163   3936614   3930120   3923672   3917269  
  5080.000000   3910907   3904581   3898272   3891960   3885622  
  5070.000000   3879247   3872834   3866396   3859945   3853490  
  5060.000000   3847020   3840522   3833965   3827340   3820635  
  5050.000000   3813865   3807040   3800178   3793276   3786324  
  5040.000000   3779301   3772193   3764994   3757722   3750405  
  5030.000000   3743082   3735787   3728544   3721365   3714254  
  5020.000000   3707218   3700258   3693396   3686640   3680016  
  5010.000000   3673524   3667178   3660963   3654889   3648942  
  5000.000000   3643145   3637496   3632035   3626770   3621750  
  4990.000000   3616981   3612509   3608322   3604453   3600867  
  4980.000000   3597579   3594541   3591768   3589224   3586952  
  4970.000000   3584943   3583264   3581908   3580931   3580299  
  4960.000000   3580042   3580106   3580517   3581236   3582313  
  4950.000000   3583729   3585541   3587721   3590307   3593247  
  4940.000000   3596568   3600220   3604244   3608614   3613385  
  4930.000000   3618531   3624094   3630028   3636350   3643003  
  4920.000000   3650002   3657301   3664924   3672840   3681075  
  4910.000000   3689596   3698415   3707491   3716822   3726364  
  4900.000000   3736101   3745991   3756012   3766128   3776309  
  4890.000000   3786525   3796732   3806895   3816952   3826862  
  4880.000000   3836556   3846007   3855155   3863990   3872458  
  4870.000000   3880553   3888207   3895407   3902085   3908246  
  4860.000000   3913854   3918961   3923573   3927771   3931571  
  4850.000000   3935044   3938188   3941057   3943642   3945995  
  4840.000000   3948121   3950079   3951884   3953590   3955208  
  4830.000000   3956780   3958311   3959831   3961342   3962864  
  4820.000000   3964393   3965936   3967486   3969042   3970599  
  4810.000000   3972158   3973721   3975286   3976856   3978431  
  4800.000000   3980014   3981609   3983229   3984881   3986578  
  4790.000000   3988327   3990131   3991989   3993902   3995872  
  4780.000000   3997907   4000010   4002179   4004403   4006650  
  4770.000000   4008884   4011059   4013146   4015124   4017002  
  4760.000000   4018794   4020530   4022222   4023879   4025482  
  4750.000000   4027013   4028434   4029731   4030883   4031901  
  4740.000000   4032790   4033576   4034271   4034901   4035472  
  4730.000000   4035993   4036458   4036863   4037188   4037422  
  4720.000000   4037551   4037573   4037500   4037361   4037197  
  4710.000000   4037053   4036979   4037008   4037171   4037478  
  4700.000000   4037938   4038546   4039303   4040204   4041247  
  4690.000000   4042424   4043729   4045144   4046654   4048225  
  4680.000000   4049835   4051441   4053022   4054543   4055998  
  4670.000000   4057375   4058694   4059965   4061221   4062479  
  4660.000000   4063768   4065103   4066513   4068023   4069673  
  4650.000000   4071498   4073535   4075802   4078297   4080995  
  4640.000000   4083848   4086802   4089800   4092797   4095757  
  4630.000000   4098660   4101482   4104208   4106804   4109246  
  4620.000000   4111494   4113524   4115306   4116834   4118091  
  4610.000000   4119093   4119833   4120346   4120642   4120773  
  4600.000000   4120762   4120668   4120503   4120306   4120058  
  4590.000000   4119766   4119387   4118909   4118287   4117510  
  4580.000000   4116544   4115392   4114037   4112492   4110758  
  4570.000000   4108866   4106829   4104684   4102445   4100140  
  4560.000000   4097776   4095370   4092926   4090462   4087983  
  4550.000000   4085506   4083031   4080559   4078075   4075566  
  4540.000000   4073018   4070431   4067821   4065211   4062644  
  4530.000000   4060145   4057746   4055440   4053229   4051077  
  4520.000000   4048981   4046912   4044899   4042939   4041103  
  4510.000000   4039409   4037947   4036740   4035884   4035393  
  4500.000000   4035366   4035808   4036817   4038388   4040615  
  4490.000000   4043484   4047085   4051388   4056464   4062257  
  4480.000000   4068810   4076040   4083978   4092542   4101774  
  4470.000000   4111611   4122103   4133184   4144879   4157097  
  4460.000000   4169827   4182964   4196488   4210310   4224423  
  4450.000000   4238762   4253321   4268043   4282904   4297849  
  4440.000000   4312845   4327853   4342844   4357803   4372702  
  4430.000000   4387543   4402282   4416918   4431380   4445652  
  4420.000000   4459638   4473309   4486552   4499339   4511556  
  4410.000000   4523185   4534121   4544354   4553795   4562454  
  4400.000000   4570271   4577296   4583527   4589071   4593985  
  4390.000000   4598423   4602476   4606303   4609981   4613626  
  4380.000000   4617272   4620971   4624717   4628527   4632394  
  4370.000000   4636341   4640389   4644582   4648966   4653586  
  4360.000000   4658479   4663674   4669172   4674980   4681049  
  4350.000000   4687367   4693839   4700441   4707065   4713705  
  4340.000000   4720271   4726757   4733032   4738974   4744281  
  4330.000000   4748605   4751470   4752448   4751180   4747554  
  4320.000000   4741705   4734085   4725329   4716208   4707407  
  4310.000000   4699499   4692783   4687377   4683175   4680007  
  4300.000000   4677649   4675930   4674721   4673941   4673553  
  4290.000000   4673505   4673781   4674320   4675118   4676131  
  4280.000000   4677368   4678813   4680462   4682300   4684296  
  4270.000000   4686429   4688639   4690870   4692989   4694832  
  4260.000000   4696149   4696673   4696123   4694307   4691138  
  4250.000000   4686709   4681242   4675104   4668681   4662368  
  4240.000000   4656442   4651096   4646360   4642201   4638489  
  4230.000000   4635098   4631895   4628780   4625688   4622572  
  4220.000000   4619435   4616270   4613140   4610080   4607197  
  4210.000000   4604556   4602269   4600379   4598949   4597964  
  4200.000000   4597419   4597251   4597424   4597865   4598547  
  4190.000000   4599402   4600418   4601531   4602731   4603953  
  4180.000000   4605204   4606440   4607713   4609035   4610510  
  4170.000000   4612198   4614226   4616646   4619553   4622946  
  4160.000000   4626863   4631252   4636117   4641393   4647093  
  4150.000000   4653160   4659629   4666452   4673673   4681252  
  4140.000000   4689244   4697619   4706446   4715701   4725448  
  4130.000000   4735648   4746341   4757467   4769054   4781054  
  4120.000000   4793512   4806411   4819820   4833736   4848218  
  4110.000000   4863244   4878837   4894937   4911524   4928507  
  4100.000000   4945835   4963409   4981178   4999072   5017072  
  4090.000000   5035162   5053350   5071645   5090047   5108555  
  4080.000000   5127133   5145766   5164386   5182966   5201412  
  4070.000000   5219671   5237612   5255169   5272206   5288700  
  4060.000000   5304571   5319870   5334572   5348766   5362428  
  4050.000000   5375645   5388373   5400697   5412555   5424016  
  4040.000000   5434973   5445445   5455271   5464442   5472814  
  4030.000000   5480432   5487222   5493281   5498571   5503166  
  4020.000000   5506970   5510028   5512296   5513838   5514596  
  4010.000000   5514712   5514267   5513288   5511550   5509122  
  4000.000000   5506344  
##END= 
