##TITLE= Sample 035 By ssteindl date Dienstag, November 20 2018
##JCAMP-DX= 4.24
##DATA TYPE= INFRARED SPECTRUM
##ORIGIN= Exported PE Spectrum Data File
##OWNER= Sandra Steindl
##DATE= 18/11/20
##TIME= 15:25:39.00
##SPECTROMETER/DATA SYSTEM= PERKIN-ELMER Frontier FT-IR/NIR IR
##INSTRUMENT PARAMETERS=
  APODIZATION=stark
  DETECTOR=INGAAS
##RESOLUTION= 16.000000
##DELTAX= -2.000000
##XUNITS= 1/CM
##YUNITS= A
##XFACTOR= 1.00
##YFACTOR= 0.00000011920928955078
##FIRSTX= 10000.00
##LASTX= 4000.00
##NPOINTS= 3001
##FIRSTY= 0.196291
##MAXY= 0.600562
##MINY= 0.172611
##XYDATA= (X++(Y..Y))
 10000.000000   1646606   1642657   1638476   1633890   1629181  
  9990.000000   1624808   1621029   1618046   1616245   1616119  
  9980.000000   1617892   1621329   1625836   1630470   1634224  
  9970.000000   1636140   1635716   1632888   1628084   1621986  
  9960.000000   1615357   1608900   1603236   1598981   1596735  
  9950.000000   1597014   1600002   1605403   1612273   1619220  
  9940.000000   1624641   1627195   1626198   1621818   1615153  
  9930.000000   1607795   1601506   1597530   1596344   1597479  
  9920.000000   1599769   1601809   1602445   1601228   1598509  
  9910.000000   1595354   1593119   1592992   1595552   1600529  
  9900.000000   1606892   1613119   1617730   1619709   1618830  
  9890.000000   1615720   1611593   1607915   1605879   1606138  
  9880.000000   1608629   1612675   1617233   1621149   1623437  
  9870.000000   1623440   1620909   1616053   1609461   1602062  
  9860.000000   1594937   1589162   1585560   1584528   1585895  
  9850.000000   1589009   1592850   1596396   1598799   1599684  
  9840.000000   1599095   1597447   1595316   1593175   1591347  
  9830.000000   1589827   1588488   1587021   1585162   1582668  
  9820.000000   1579400   1575390   1570821   1566175   1562101  
  9810.000000   1559431   1558894   1560927   1565444   1571738  
  9800.000000   1578646   1584708   1588662   1589602   1587362  
  9790.000000   1582351   1575578   1568238   1561567   1556556  
  9780.000000   1553864   1553828   1556399   1561317   1568010  
  9770.000000   1575862   1584123   1592184   1599494   1605679  
  9760.000000   1610445   1613546   1614766   1613890   1610824  
  9750.000000   1605638   1598675   1590549   1582064   1574088  
  9740.000000   1567307   1562125   1558485   1556000   1554001  
  9730.000000   1551824   1548957   1545203   1540742   1536043  
  9720.000000   1531819   1528763   1527461   1528121   1530585  
  9710.000000   1534258   1538364   1542117   1545052   1547127  
  9700.000000   1548743   1550545   1553124   1556744   1561171  
  9690.000000   1565735   1569590   1572024   1572766   1572030  
  9680.000000   1570395   1568516   1566788   1565244   1563535  
  9670.000000   1561223   1558014   1554017   1549751   1546010  
  9660.000000   1543528   1542719   1543436   1545073   1546731  
  9650.000000   1547603   1547228   1545656   1543379   1541142  
  9640.000000   1539643   1539315   1540187   1541894   1543862  
  9630.000000   1545428   1546131   1545697   1544146   1541649  
  9620.000000   1538463   1534866   1531078   1527347   1523941  
  9610.000000   1521266   1519819   1520132   1522555   1527060  
  9600.000000   1533083   1539528   1544997   1548115   1547993  
  9590.000000   1544452   1538165   1530430   1522836   1516809  
  9580.000000   1513267   1512483   1514124   1517511   1521805  
  9570.000000   1526259   1530212   1533180   1534777   1534795  
  9560.000000   1533257   1530452   1526986   1523560   1520863  
  9550.000000   1519220   1518547   1518335   1517916   1516788  
  9540.000000   1514814   1512367   1510095   1508741   1508776  
  9530.000000   1510287   1512931   1516119   1519233   1521799  
  9520.000000   1523557   1524391   1524256   1523109   1520962  
  9510.000000   1517947   1514402   1510822   1507736   1505493  
  9500.000000   1504136   1503348   1502634   1501517   1499818  
  9490.000000   1497702   1495632   1494100   1493402   1493511  
  9480.000000   1494124   1494905   1495685   1496652   1498279  
  9470.000000   1501132   1505564   1511467   1518211   1524768  
  9460.000000   1530025   1533077   1533460   1531219   1526835  
  9450.000000   1521088   1514883   1509135   1504645   1502020  
  9440.000000   1501510   1502916   1505506   1508160   1509632  
  9430.000000   1508960   1505813   1500628   1494542   1488994  
  9420.000000   1485303   1484181   1485568   1488709   1492532  
  9410.000000   1496095   1498895   1500984   1502786   1504851  
  9400.000000   1507528   1510814   1514332   1517453   1519579  
  9390.000000   1520279   1519487   1517418   1514499   1511234  
  9380.000000   1508041   1505280   1503105   1501605   1500723  
  9370.000000   1500401   1500546   1501082   1501896   1502822  
  9360.000000   1503589   1503805   1503025   1500827   1497058  
  9350.000000   1491909   1486055   1480450   1476129   1473859  
  9340.000000   1473889   1475897   1479064   1482431   1485190  
  9330.000000   1487014   1488055   1488788   1489699   1491027  
  9320.000000   1492673   1494216   1495140   1494998   1493637  
  9310.000000   1491200   1488052   1484619   1481230   1478111  
  9300.000000   1475378   1473154   1471555   1470668   1470450  
  9290.000000   1470673   1470937   1470780   1469859   1468104  
  9280.000000   1465798   1463489   1461798   1461159   1461662  
  9270.000000   1463035   1464798   1466451   1467676   1468398  
  9260.000000   1468781   1469034   1469303   1469530   1469523  
  9250.000000   1469004   1467789   1465872   1463497   1461086  
  9240.000000   1459107   1457976   1457944   1459114   1461383  
  9230.000000   1464499   1468037   1471501   1474381   1476252  
  9220.000000   1476859   1476187   1474497   1472237   1469945  
  9210.000000   1468039   1466761   1466085   1465800   1465572  
  9200.000000   1465070   1464102   1462661   1460942   1459235  
  9190.000000   1457891   1457229   1457489   1458762   1460947  
  9180.000000   1463767   1466794   1469562   1471640   1472773  
  9170.000000   1472934   1472374   1471492   1470737   1470434  
  9160.000000   1470711   1471478   1472460   1473361   1473938  
  9150.000000   1474146   1474096   1474057   1474311   1475051  
  9140.000000   1476278   1477779   1479175   1479964   1479689  
  9130.000000   1478044   1475055   1471060   1466670   1462641  
  9120.000000   1459683   1458316   1458665   1460507   1463312  
  9110.000000   1466486   1469511   1472084   1474114   1475649  
  9100.000000   1476771   1477447   1477531   1476772   1475008  
  9090.000000   1472229   1468705   1464916   1461473   1458941  
  9080.000000   1457660   1457707   1458834   1460646   1462647  
  9070.000000   1464430   1465711   1466406   1466624   1466582  
  9060.000000   1466549   1466705   1467119   1467663   1468065  
  9050.000000   1467955   1467031   1465201   1462688   1460010  
  9040.000000   1457839   1456799   1457212   1458966   1461466  
  9030.000000   1463861   1465313   1465321   1463893   1461542  
  9020.000000   1459125   1457494   1457198   1458251   1460146  
  9010.000000   1462048   1463114   1462792   1461017   1458241  
  9000.000000   1455281   1453035   1452181   1452953   1455112  
  8990.000000   1457997   1460777   1462652   1463132   1462132  
  8980.000000   1459985   1457350   1454997   1453670   1453871  
  8970.000000   1455784   1459221   1463706   1468577   1473121  
  8960.000000   1476683   1478809   1479307   1478272   1476032  
  8950.000000   1473071   1469943   1467119   1464895   1463347  
  8940.000000   1462356   1461690   1461065   1460301   1459330  
  8930.000000   1458249   1457199   1456328   1455711   1455303  
  8920.000000   1454991   1454592   1454000   1453145   1452079  
  8910.000000   1450892   1449743   1448779   1448144   1447967  
  8900.000000   1448365   1449436   1451195   1453584   1456434  
  8890.000000   1459512   1462542   1465307   1467680   1469641  
  8880.000000   1471212   1472395   1473125   1473243   1472574  
  8870.000000   1470983   1468517   1465390   1461995   1458755  
  8860.000000   1456035   1454017   1452677   1451847   1451314  
  8850.000000   1450950   1450775   1450961   1451769   1453430  
  8840.000000   1456058   1459573   1463742   1468198   1472563  
  8830.000000   1476474   1479697   1482113   1483776   1484839  
  8820.000000   1485552   1486169   1486922   1487935   1489207  
  8810.000000   1490608   1491938   1493015   1493720   1494087  
  8800.000000   1494253   1494456   1494911   1495777   1497089  
  8790.000000   1498779   1500691   1502638   1504441   1505958  
  8780.000000   1507100   1507838   1508203   1508288   1508241  
  8770.000000   1508242   1508447   1508950   1509743   1510729  
  8760.000000   1511753   1512675   1513417   1513995   1514489  
  8750.000000   1514991   1515542   1516100   1516561   1516820  
  8740.000000   1516851   1516751   1516730   1517033   1517847  
  8730.000000   1519213   1521016   1523005   1524907   1526489  
  8720.000000   1527655   1528421   1528886   1529169   1529370  
  8710.000000   1529577   1529892   1530472   1531515   1533203  
  8700.000000   1535623   1538678   1542069   1545338   1547994  
  8690.000000   1549670   1550241   1549865   1548929   1547921  
  8680.000000   1547308   1547405   1548338   1550029   1552259  
  8670.000000   1554739   1557170   1559309   1560974   1562092  
  8660.000000   1562709   1563002   1563263   1563799   1564873  
  8650.000000   1566564   1568763   1571173   1573420   1575191  
  8640.000000   1576354   1577031   1577558   1578383   1579892  
  8630.000000   1582269   1585421   1589002   1592534   1595545  
  8620.000000   1597718   1598968   1599447   1599489   1599491  
  8610.000000   1599819   1600704   1602213   1604247   1606588  
  8600.000000   1608965   1611119   1612853   1614084   1614819  
  8590.000000   1615178   1615325   1615470   1615806   1616496  
  8580.000000   1617629   1619215   1621167   1623307   1625375  
  8570.000000   1627080   1628162   1628468   1628014   1626983  
  8560.000000   1625709   1624560   1623856   1623761   1624264  
  8550.000000   1625206   1626366   1627562   1628725   1629921  
  8540.000000   1631291   1632984   1635055   1637435   1639946  
  8530.000000   1642366   1644531   1646376   1647958   1649394  
  8520.000000   1650800   1652218   1653592   1654796   1655702  
  8510.000000   1656241   1656448   1656443   1656385   1656415  
  8500.000000   1656594   1656918   1657322   1657767   1658259  
  8490.000000   1658873   1659717   1660876   1662364   1664076  
  8480.000000   1665812   1667313   1668368   1668851   1668794  
  8470.000000   1668351   1667796   1667428   1667497   1668162  
  8460.000000   1669443   1671266   1673457   1675836   1678238  
  8450.000000   1680573   1682801   1684911   1686878   1688622  
  8440.000000   1690021   1690905   1691137   1690659   1689560  
  8430.000000   1688070   1686509   1685233   1684517   1684526  
  8420.000000   1685236   1686499   1688081   1689751   1691313  
  8410.000000   1692631   1693621   1694240   1694473   1694335  
  8400.000000   1693900   1693310   1692783   1692555   1692814  
  8390.000000   1693630   1694919   1696465   1697966   1699144  
  8380.000000   1699825   1699996   1699781   1699377   1698969  
  8370.000000   1698661   1698454   1698272   1698029   1697700  
  8360.000000   1697357   1697146   1697226   1697683   1698468  
  8350.000000   1699401   1700205   1700609   1700438   1699699  
  8340.000000   1698595   1697464   1696668   1696488   1697031  
  8330.000000   1698207   1699749   1701290   1702484   1703083  
  8320.000000   1703011   1702342   1701261   1699998   1698765  
  8310.000000   1697715   1696932   1696453   1696293   1696476  
  8300.000000   1697009   1697886   1699018   1700266   1701408  
  8290.000000   1702231   1702562   1702344   1701660   1700699  
  8280.000000   1699706   1698878   1698298   1697911   1697555  
  8270.000000   1697038   1696220   1695081   1693732   1692374  
  8260.000000   1691210   1690362   1689824   1689475   1689135  
  8250.000000   1688651   1687978   1687202   1686514   1686146  
  8240.000000   1686261   1686912   1687997   1689313   1690602  
  8230.000000   1691638   1692266   1692435   1692170   1691541  
  8220.000000   1690621   1689464   1688098   1686544   1684815  
  8210.000000   1682955   1680999   1679021   1677070   1675222  
  8200.000000   1673515   1672005   1670704   1669607   1668654  
  8190.000000   1667732   1666689   1665356   1663615   1661417  
  8180.000000   1658838   1656040   1653249   1650681   1648490  
  8170.000000   1646745   1645415   1644434   1643735   1643302  
  8160.000000   1643157   1643329   1643794   1644425   1644990  
  8150.000000   1645180   1644713   1643410   1641303   1638622  
  8140.000000   1635757   1633126   1631063   1629721   1629040  
  8130.000000   1628800   1628700   1628478   1627967   1627138  
  8120.000000   1626053   1624828   1623569   1622350   1621214  
  8110.000000   1620175   1619258   1618469   1617804   1617215  
  8100.000000   1616616   1615898   1614975   1613834   1612552  
  8090.000000   1611295   1610250   1609564   1609268   1609272  
  8080.000000   1609395   1609439   1609266   1608837   1608212  
  8070.000000   1607492   1606758   1606012   1605183   1604158  
  8060.000000   1602867   1601330   1599694   1598182   1597018  
  8050.000000   1596342   1596148   1596292   1596544   1596682  
  8040.000000   1596567   1596181   1595613   1594998   1594456  
  8030.000000   1594034   1593710   1593410   1593065   1592639  
  8020.000000   1592156   1591663   1591211   1590817   1590452  
  8010.000000   1590064   1589597   1589035   1588401   1587759  
  8000.000000   1587179   1586713   1586371   1586130   1585940  
  7990.000000   1585753   1585536   1585271   1584953   1584563  
  7980.000000   1584080   1583462   1582683   1581741   1580677  
  7970.000000   1579580   1578566   1577765   1577277   1577165  
  7960.000000   1577428   1578009   1578799   1579651   1580404  
  7950.000000   1580898   1581009   1580662   1579855   1578654  
  7940.000000   1577196   1575649   1574190   1572959   1572042  
  7930.000000   1571456   1571161   1571087   1571145   1571268  
  7920.000000   1571405   1571529   1571620   1571665   1571647  
  7910.000000   1571549   1571373   1571136   1570882   1570665  
  7900.000000   1570532   1570506   1570570   1570674   1570749  
  7890.000000   1570737   1570607   1570373   1570079   1569777  
  7880.000000   1569502   1569250   1568985   1568651   1568216  
  7870.000000   1567680   1567101   1566565   1566160   1565940  
  7860.000000   1565903   1566001   1566169   1566365   1566597  
  7850.000000   1566920   1567406   1568095   1568952   1569859  
  7840.000000   1570644   1571135   1571234   1570948   1570392  
  7830.000000   1569747   1569183   1568808   1568630   1568582  
  7820.000000   1568552   1568460   1568271   1568013   1567736  
  7810.000000   1567476   1567217   1566891   1566410   1565706  
  7800.000000   1564780   1563703   1562610   1561645   1560912  
  7790.000000   1560448   1560213   1560133   1560120   1560130  
  7780.000000   1560153   1560224   1560380   1560637   1560976  
  7770.000000   1561333   1561623   1561750   1561639   1561232  
  7760.000000   1560509   1559480   1558196   1556747   1555255  
  7750.000000   1553866   1552711   1551892   1551437   1551312  
  7740.000000   1551412   1551615   1551797   1551876   1551815  
  7730.000000   1551615   1551294   1550855   1550290   1549569  
  7720.000000   1548677   1547617   1546443   1545237   1544100  
  7710.000000   1543114   1542324   1541728   1541287   1540949  
  7700.000000   1540673   1540450   1540294   1540242   1540318  
  7690.000000   1540527   1540837   1541192   1541530   1541794  
  7680.000000   1541962   1542016   1541961   1541778   1541438  
  7670.000000   1540898   1540125   1539128   1537977   1536813  
  7660.000000   1535818   1535179   1535015   1535353   1536094  
  7650.000000   1537047   1537980   1538680   1539018   1538964  
  7640.000000   1538592   1538024   1537408   1536851   1536422  
  7630.000000   1536138   1535999   1536001   1536156   1536490  
  7620.000000   1537024   1537760   1538665   1539680   1540720  
  7610.000000   1541702   1542559   1543245   1543745   1544065  
  7600.000000   1544231   1544283   1544273   1544257   1544294  
  7590.000000   1544431   1544698   1545096   1545599   1546161  
  7580.000000   1546723   1547226   1547620   1547869   1547963  
  7570.000000   1547913   1547771   1547613   1547537   1547630  
  7560.000000   1547951   1548503   1549232   1550042   1550831  
  7550.000000   1551530   1552138   1552716   1553370   1554192  
  7540.000000   1555226   1556429   1557695   1558875   1559845  
  7530.000000   1560537   1560978   1561261   1561528   1561906  
  7520.000000   1562491   1563319   1564386   1565655   1567084  
  7510.000000   1568624   1570231   1571861   1573474   1575043  
  7500.000000   1576568   1578070   1579595   1581175   1582821  
  7490.000000   1584494   1586133   1587654   1589007   1590177  
  7480.000000   1591212   1592188   1593184   1594243   1595375  
  7470.000000   1596558   1597778   1599047   1600421   1601977  
  7460.000000   1603779   1605839   1608103   1610456   1612774  
  7450.000000   1614960   1616985   1618886   1620744   1622630  
  7440.000000   1624578   1626564   1628529   1630408   1632180  
  7430.000000   1633867   1635539   1637268   1639096   1641013  
  7420.000000   1642959   1644852   1646628   1648274   1649830  
  7410.000000   1651381   1653022   1654827   1656833   1659031  
  7400.000000   1661382   1663829   1666316   1668786   1671190  
  7390.000000   1673475   1675606   1677558   1679330   1680951  
  7380.000000   1682469   1683948   1685449   1687017   1688681  
  7370.000000   1690452   1692327   1694289   1696307   1698341  
  7360.000000   1700337   1702249   1704052   1705750   1707388  
  7350.000000   1709042   1710794   1712705   1714794   1717026  
  7340.000000   1719328   1721614   1723806   1725864   1727773  
  7330.000000   1729561   1731262   1732927   1734600   1736324  
  7320.000000   1738122   1739999   1741923   1743830   1745620  
  7310.000000   1747192   1748458   1749389   1750019   1750452  
  7300.000000   1750821   1751267   1751898   1752769   1753876  
  7290.000000   1755172   1756579   1758017   1759409   1760694  
  7280.000000   1761834   1762811   1763642   1764363   1765040  
  7270.000000   1765736   1766507   1767374   1768335   1769359  
  7260.000000   1770420   1771506   1772636   1773844   1775167  
  7250.000000   1776614   1778170   1779774   1781375   1782921  
  7240.000000   1784417   1785886   1787393   1788978   1790672  
  7230.000000   1792457   1794319   1796235   1798225   1800318  
  7220.000000   1802568   1804992   1807586   1810291   1813047  
  7210.000000   1815794   1818536   1821316   1824233   1827362  
  7200.000000   1830755   1834376   1838151   1841960   1845719  
  7190.000000   1849374   1852954   1856509   1860124   1863842  
  7180.000000   1867686   1871630   1875650   1879717   1883842  
  7170.000000   1888038   1892337   1896740   1901236   1905779  
  7160.000000   1910334   1914866   1919384   1923907   1928481  
  7150.000000   1933136   1937903   1942780   1947769   1952850  
  7140.000000   1958025   1963276   1968609   1974002   1979451  
  7130.000000   1984925   1990424   1995931   2001468   2007045  
  7120.000000   2012708   2018491   2024454   2030642   2037114  
  7110.000000   2043895   2050992   2058353   2065905   2073524  
  7100.000000   2081103   2088534   2095773   2102801   2109653  
  7090.000000   2116362   2122975   2129522   2136044   2142588  
  7080.000000   2149221   2156018   2163036   2170288   2177724  
  7070.000000   2185242   2192716   2200041   2207172   2214131  
  7060.000000   2220989   2227824   2234681   2241546   2248363  
  7050.000000   2255064   2261614   2268044   2274441   2280925  
  7040.000000   2287586   2294458   2301486   2308562   2315549  
  7030.000000   2322341   2328879   2335172   2341260   2347201  
  7020.000000   2353029   2358767   2364413   2369979   2375474  
  7010.000000   2380932   2386372   2391806   2397210   2402548  
  7000.000000   2407763   2412830   2417735   2422520   2427233  
  6990.000000   2431953   2436728   2441602   2446561   2451583  
  6980.000000   2456596   2461531   2466296   2470823   2475052  
  6970.000000   2478968   2482572   2485905   2489004   2491920  
  6960.000000   2494677   2497305   2499818   2502259   2504669  
  6950.000000   2507121   2509661   2512333   2515119   2517982  
  6940.000000   2520839   2523617   2526243   2528686   2530927  
  6930.000000   2532976   2534842   2536549   2538119   2539601  
  6920.000000   2541045   2542521   2544073   2545726   2547450  
  6910.000000   2549192   2550871   2552431   2553831   2555079  
  6900.000000   2556195   2557213   2558153   2559024   2559834  
  6890.000000   2560608   2561388   2562237   2563202   2564305  
  6880.000000   2565511   2566753   2567947   2569037   2570013  
  6870.000000   2570923   2571836   2572813   2573861   2574929  
  6860.000000   2575926   2576760   2577383   2577809   2578110  
  6850.000000   2578384   2578706   2579109   2579570   2580051  
  6840.000000   2580513   2580960   2581432   2581992   2582683  
  6830.000000   2583513   2584432   2585358   2586202   2586904  
  6820.000000   2587441   2587832   2588115   2588334   2588515  
  6810.000000   2588676   2588827   2588985   2589162   2589371  
  6800.000000   2589599   2589811   2589949   2589962   2589809  
  6790.000000   2589500   2589070   2588586   2588107   2587680  
  6780.000000   2587317   2587015   2586757   2586537   2586340  
  6770.000000   2586160   2585966   2585720   2585366   2584862  
  6760.000000   2584188   2583365   2582442   2581481   2580530  
  6750.000000   2579609   2578708   2577802   2576869   2575915  
  6740.000000   2574964   2574060   2573235   2572506   2571858  
  6730.000000   2571265   2570697   2570140   2569596   2569074  
  6720.000000   2568577   2568087   2567566   2566970   2566266  
  6710.000000   2565448   2564538   2563575   2562601   2561636  
  6700.000000   2560677   2559702   2558684   2557615   2556502  
  6690.000000   2555378   2554278   2553237   2552269   2551377  
  6680.000000   2550544   2549755   2548982   2548205   2547393  
  6670.000000   2546521   2545563   2544512   2543376   2542180  
  6660.000000   2540951   2539712   2538455   2537155   2535767  
  6650.000000   2534258   2532618   2530876   2529084   2527311  
  6640.000000   2525605   2523994   2522463   2520990   2519542  
  6630.000000   2518109   2516691   2515299   2513934   2512575  
  6620.000000   2511181   2509696   2508076   2506299   2504380  
  6610.000000   2502365   2500317   2498300   2496364   2494544  
  6600.000000   2492857   2491307   2489885   2488569   2487316  
  6590.000000   2486073   2484774   2483366   2481817   2480128  
  6580.000000   2478336   2476493   2474658   2472873   2471163  
  6570.000000   2469528   2467958   2466439   2464962   2463523  
  6560.000000   2462118   2460746   2459399   2458077   2456781  
  6550.000000   2455524   2454322   2453186   2452115   2451084  
  6540.000000   2450049   2448955   2447754   2446414   2444939  
  6530.000000   2443359   2441735   2440132   2438619   2437240  
  6520.000000   2436018   2434938   2433958   2433016   2432043  
  6510.000000   2430984   2429811   2428538   2427211   2425902  
  6500.000000   2424683   2423603   2422676   2421875   2421145  
  6490.000000   2420417   2419634   2418762   2417794   2416747  
  6480.000000   2415650   2414535   2413432   2412358   2411324  
  6470.000000   2410329   2409358   2408390   2407400   2406370  
  6460.000000   2405296   2404196   2403103   2402055   2401078  
  6450.000000   2400171   2399306   2398433   2397505   2396495  
  6440.000000   2395408   2394283   2393172   2392122   2391158  
  6430.000000   2390272   2389439   2388624   2387808   2386991  
  6420.000000   2386193   2385438   2384743   2384103   2383500  
  6410.000000   2382907   2382308   2381696   2381089   2380509  
  6400.000000   2379982   2379525   2379143   2378831   2378576  
  6390.000000   2378357   2378151   2377925   2377647   2377289  
  6380.000000   2376839   2376310   2375736   2375169   2374658  
  6370.000000   2374232   2373883   2373576   2373254   2372868  
  6360.000000   2372387   2371814   2371176   2370510   2369847  
  6350.000000   2369199   2368562   2367921   2367263   2366587  
  6340.000000   2365895   2365200   2364503   2363808   2363102  
  6330.000000   2362384   2361650   2360911   2360173   2359442  
  6320.000000   2358704   2357941   2357119   2356216   2355218  
  6310.000000   2354133   2352978   2351782   2350561   2349331  
  6300.000000   2348091   2346851   2345613   2344388   2343174  
  6290.000000   2341967   2340737   2339456   2338089   2336623  
  6280.000000   2335063   2333444   2331804   2330181   2328588  
  6270.000000   2327022   2325458   2323873   2322247   2320583  
  6260.000000   2318886   2317167   2315422   2313642   2311804  
  6250.000000   2309898   2307923   2305901   2303861   2301835  
  6240.000000   2299842   2297887   2295958   2294049   2292154  
  6230.000000   2290284   2288446   2286650   2284884   2283127  
  6220.000000   2281347   2279520   2277639   2275720   2273793  
  6210.000000   2271889   2270028   2268209   2266416   2264624  
  6200.000000   2262819   2260998   2259173   2257362   2255578  
  6190.000000   2253826   2252099   2250391   2248697   2247024  
  6180.000000   2245383   2243786   2242239   2240732   2239251  
  6170.000000   2237773   2236285   2234774   2233238   2231672  
  6160.000000   2230071   2228431   2226752   2225046   2223344  
  6150.000000   2221688   2220121   2218673   2217346   2216115  
  6140.000000   2214932   2213742   2212503   2211191   2209811  
  6130.000000   2208379   2206927   2205475   2204048   2202656  
  6120.000000   2201314   2200031   2198815   2197666   2196576  
  6110.000000   2195528   2194505   2193488   2192475   2191467  
  6100.000000   2190479   2189519   2188596   2187704   2186843  
  6090.000000   2186010   2185215   2184470   2183799   2183211  
  6080.000000   2182711   2182281   2181904   2181551   2181213  
  6070.000000   2180879   2180563   2180272   2180028   2179835  
  6060.000000   2179712   2179660   2179696   2179822   2180052  
  6050.000000   2180375   2180793   2181287   2181856   2182492  
  6040.000000   2183211   2184019   2184930   2185935   2187026  
  6030.000000   2188172   2189359   2190574   2191833   2193155  
  6020.000000   2194570   2196085   2197702   2199387   2201109  
  6010.000000   2202828   2204529   2206198   2207848   2209483  
  6000.000000   2211114   2212736   2214358   2215985   2217650  
  5990.000000   2219385   2221234   2223221   2225356   2227616  
  5980.000000   2229974   2232389   2234847   2237338   2239880  
  5970.000000   2242481   2245155   2247887   2250667   2253467  
  5960.000000   2256284   2259113   2261974   2264878   2267845  
  5950.000000   2270873   2273962   2277100   2280288   2283528  
  5940.000000   2286831   2290202   2293638   2297122   2300633  
  5930.000000   2304146   2307647   2311136   2314618   2318100  
  5920.000000   2321574   2325023   2328416   2331722   2334921  
  5910.000000   2338005   2340982   2343864   2346665   2349396  
  5900.000000   2352063   2354685   2357284   2359901   2362566  
  5890.000000   2365314   2368142   2371037   2373955   2376859  
  5880.000000   2379710   2382492   2385195   2387814   2390337  
  5870.000000   2392739   2394987   2397059   2398953   2400700  
  5860.000000   2402356   2403992   2405672   2407441   2409319  
  5850.000000   2411308   2413395   2415574   2417839   2420190  
  5840.000000   2422618   2425111   2427646   2430198   2432748  
  5830.000000   2435279   2437786   2440258   2442680   2445029  
  5820.000000   2447280   2449419   2451451   2453404   2455316  
  5810.000000   2457231   2459162   2461112   2463042   2464925  
  5800.000000   2466718   2468428   2470055   2471648   2473215  
  5790.000000   2474778   2476294   2477720   2478964   2479947  
  5780.000000   2480573   2480781   2480512   2479760   2478537  
  5770.000000   2476915   2474991   2472903   2470774   2468726  
  5760.000000   2466824   2465102   2463543   2462127   2460825  
  5750.000000   2459637   2458566   2457630   2456832   2456158  
  5740.000000   2455579   2455052   2454552   2454059   2453583  
  5730.000000   2453128   2452708   2452311   2451928   2451538  
  5720.000000   2451139   2450737   2450361   2450038   2449793  
  5710.000000   2449625   2449524   2449464   2449430   2449414  
  5700.000000   2449425   2449472   2449561   2449681   2449809  
  5690.000000   2449927   2450019   2450101   2450195   2450335  
  5680.000000   2450530   2450772   2451010   2451183   2451216  
  5670.000000   2451058   2450673   2450055   2449205   2448139  
  5660.000000   2446866   2445412   2443807   2442106   2440370  
  5650.000000   2438667   2437044   2435529   2434115   2432781  
  5640.000000   2431494   2430235   2428997   2427789   2426625  
  5630.000000   2425512   2424451   2423431   2422440   2421467  
  5620.000000   2420510   2419562   2418622   2417679   2416720  
  5610.000000   2415733   2414720   2413694   2412688   2411736  
  5600.000000   2410865   2410087   2409393   2408761   2408161  
  5590.000000   2407569   2406963   2406335   2405673   2404965  
  5580.000000   2404198   2403360   2402447   2401466   2400432  
  5570.000000   2399366   2398281   2397184   2396069   2394933  
  5560.000000   2393771   2392589   2391399   2390211   2389026  
  5550.000000   2387839   2386632   2385390   2384106   2382791  
  5540.000000   2381468   2380167   2378912   2377716   2376579  
  5530.000000   2375495   2374455   2373451   2372478   2371527  
  5520.000000   2370581   2369614   2368596   2367505   2366336  
  5510.000000   2365103   2363835   2362570   2361333   2360143  
  5500.000000   2358999   2357897   2356826   2355785   2354766  
  5490.000000   2353758   2352735   2351666   2350514   2349258  
  5480.000000   2347895   2346453   2344969   2343485   2342020  
  5470.000000   2340571   2339104   2337586   2335983   2334288  
  5460.000000   2332513   2330682   2328815   2326922   2324999  
  5450.000000   2323038   2321037   2319009   2316981   2314985  
  5440.000000   2313048   2311180   2309379   2307633   2305939  
  5430.000000   2304296   2302714   2301192   2299726   2298292  
  5420.000000   2296876   2295462   2294077   2292757   2291574  
  5410.000000   2290569   2289777   2289171   2288719   2288356  
  5400.000000   2288057   2287797   2287608   2287508   2287541  
  5390.000000   2287707   2288017   2288447   2289010   2289704  
  5380.000000   2290577   2291643   2292938   2294437   2296130  
  5370.000000   2297954   2299901   2301934   2304094   2306381  
  5360.000000   2308862   2311532   2314446   2317582   2320995  
  5350.000000   2324677   2328709   2333096   2337917   2343150  
  5340.000000   2348848   2354962   2361547   2368557   2376063  
  5330.000000   2384016   2392471   2401355   2410707   2420458  
  5320.000000   2430690   2441389   2452699   2464638   2477355  
  5310.000000   2490824   2505133   2520194   2536055   2552627  
  5300.000000   2569988   2588096   2607074   2626912   2647728  
  5290.000000   2669471   2692176   2715701   2739979   2764819  
  5280.000000   2790161   2815898   2842095   2868782   2896104  
  5270.000000   2924100   2952796   2982062   3011712   3041504  
  5260.000000   3071240   3100814   3130214   3159521   3188791  
  5250.000000   3218061   3247215   3276109   3304471   3332148  
  5240.000000   3358957   3384943   3410108   3434637   3458566  
  5230.000000   3482026   3504921   3527235   3548757   3569431  
  5220.000000   3589088   3607791   3625508   3642430   3658593  
  5210.000000   3674180   3689147   3703548   3717210   3730112  
  5200.000000   3742088   3753204   3763416   3772895   3781645  
  5190.000000   3789807   3797308   3804194   3810337   3815774  
  5180.000000   3820428   3824404   3827679   3830366   3832421  
  5170.000000   3833910   3834760   3835036   3834704   3833872  
  5160.000000   3832539   3830808   3828644   3826098   3823108  
  5150.000000   3819720   3815907   3811751   3807258   3802502  
  5140.000000   3797457   3792149   3786526   3780611   3774387  
  5130.000000   3767926   3761256   3754462   3747562   3740598  
  5120.000000   3733552   3726435   3719226   3711944   3704584  
  5110.000000   3697170   3689700   3682192   3674644   3667083  
  5100.000000   3659526   3652012   3644564   3637203   3629920  
  5090.000000   3622700   3615510   3608332   3601148   3593965  
  5080.000000   3586787   3579625   3572475   3565330   3558167  
  5070.000000   3550975   3543740   3536466   3529153   3521809  
  5060.000000   3514428   3507009   3499539   3492020   3484455  
  5050.000000   3476863   3469258   3461654   3454047   3446429  
  5040.000000   3438777   3431077   3423327   3415540   3407746  
  5030.000000   3399976   3392263   3384625   3377073   3369605  
  5020.000000   3362226   3354934   3347745   3340666   3333715  
  5010.000000   3326890   3320198   3313620   3307162   3300806  
  5000.000000   3294575   3288470   3282532   3276769   3271228  
  4990.000000   3265908   3260848   3256035   3251501   3247222  
  4980.000000   3243224   3239476   3236001   3232767   3229804  
  4970.000000   3227090   3224668   3222521   3220695   3219166  
  4960.000000   3217971   3217078   3216520   3216265   3216355  
  4950.000000   3216764   3217535   3218637   3220107   3221905  
  4940.000000   3224061   3226535   3229363   3232510   3236013  
  4930.000000   3239833   3243999   3248468   3253267   3258359  
  4920.000000   3263780   3269504   3275565   3281932   3288626  
  4910.000000   3295604   3302872   3310393   3318173   3326184  
  4900.000000   3334429   3342879   3351519   3360305   3369204  
  4890.000000   3378173   3387173   3396171   3405129   3414016  
  4880.000000   3422784   3431403   3439815   3447995   3455890  
  4870.000000   3463491   3470757   3477694   3484269   3490497  
  4860.000000   3496350   3501851   3506977   3511759   3516180  
  4850.000000   3520282   3524061   3527572   3530827   3533886  
  4840.000000   3536764   3539516   3542148   3544699   3547166  
  4830.000000   3549580   3551941   3554276   3556583   3558875  
  4820.000000   3561136   3563361   3565523   3567613   3569617  
  4810.000000   3571542   3573395   3575195   3576952   3578678  
  4800.000000   3580374   3582039   3583665   3585256   3586807  
  4790.000000   3588330   3589828   3591317   3592803   3594304  
  4780.000000   3595826   3597388   3598988   3600628   3602282  
  4770.000000   3603921   3605492   3606951   3608246   3609357  
  4760.000000   3610269   3611007   3611594   3612081   3612498  
  4750.000000   3612880   3613228   3613544   3613796   3613965  
  4740.000000   3614011   3613921   3613674   3613280   3612740  
  4730.000000   3612078   3611300   3610426   3609455   3608396  
  4720.000000   3607248   3606018   3604719   3603372   3602000  
  4710.000000   3600630   3599287   3597990   3596757   3595599  
  4700.000000   3594529   3593559   3592707   3591989   3591422  
  4690.000000   3591017   3590779   3590696   3590754   3590915  
  4680.000000   3591144   3591388   3591610   3591762   3591827  
  4670.000000   3591785   3591651   3591436   3591179   3590908  
  4660.000000   3590670   3590493   3590421   3590477   3590698  
  4650.000000   3591097   3591694   3592487   3593472   3594631  
  4640.000000   3595947   3597401   3598980   3600671   3602467  
  4630.000000   3604348   3606290   3608254   3610193   3612059  
  4620.000000   3613806   3615403   3616827   3618069   3619123  
  4610.000000   3619994   3620683   3621208   3621584   3621853  
  4600.000000   3622044   3622209   3622369   3622549   3622733  
  4590.000000   3622909   3623030   3623074   3622998   3622796  
  4580.000000   3622450   3621965   3621334   3620568   3619662  
  4570.000000   3618630   3617479   3616233   3614906   3613526  
  4560.000000   3612100   3610645   3609160   3607653   3606125  
  4550.000000   3604588   3603048   3601516   3599996   3598486  
  4540.000000   3596985   3595487   3593997   3592518   3591072  
  4530.000000   3589665   3588325   3587054   3585879   3584793  
  4520.000000   3583829   3582984   3582304   3581784   3581482  
  4510.000000   3581391   3581577   3582037   3582851   3584021  
  4500.000000   3585636   3587693   3590273   3593354   3597012  
  4490.000000   3601226   3606081   3611568   3617779   3624694  
  4480.000000   3632373   3640750   3649833   3659517   3669789  
  4470.000000   3680548   3691793   3703449   3715529   3727965  
  4460.000000   3740761   3753841   3767192   3780734   3794443  
  4450.000000   3808251   3822130   3836033   3849943   3863842  
  4440.000000   3877725   3891601   3905466   3919332   3933168  
  4430.000000   3946967   3960661   3974228   3987579   4000695  
  4420.000000   4013485   4025939   4037963   4049543   4060574  
  4410.000000   4071034   4080810   4089886   4098168   4105668  
  4400.000000   4112336   4118231   4123356   4127815   4131652  
  4390.000000   4135003   4137935   4140584   4143018   4145344  
  4380.000000   4147602   4149862   4152140   4154485   4156921  
  4370.000000   4159499   4162262   4165265   4168547   4172138  
  4360.000000   4176052   4180288   4184826   4189649   4194706  
  4350.000000   4199966   4205345   4210806   4216258   4221690  
  4340.000000   4227045   4232335   4237498   4242469   4247045  
  4330.000000   4250966   4253855   4255357   4255158   4253140  
  4320.000000   4249384   4244238   4238194   4231867   4225792  
  4310.000000   4220417   4215963   4212508   4209947   4208138  
  4300.000000   4206894   4206077   4205575   4205314   4205240  
  4290.000000   4205290   4205428   4205604   4205823   4206090  
  4280.000000   4206457   4206964   4207649   4208530   4209588  
  4270.000000   4210796   4212089   4213403   4214628   4215639  
  4260.000000   4216259   4216306   4215590   4213979   4211416  
  4250.000000   4207965   4203788   4199151   4194335   4189635  
  4240.000000   4185262   4181369   4177988   4175097   4172593  
  4230.000000   4170371   4168305   4166292   4164253   4162129  
  4220.000000   4159907   4157583   4155205   4152813   4150491  
  4210.000000   4148292   4146294   4144524   4143024   4141785  
  4200.000000   4140813   4140075   4139567   4139248   4139114  
  4190.000000   4139121   4139274   4139533   4139920   4140407  
  4180.000000   4141037   4141796   4142745   4143885   4145290  
  4170.000000   4146973   4149023   4151458   4154365   4157747  
  4160.000000   4161667   4166090   4171043   4176461   4182358  
  4150.000000   4188665   4195407   4202530   4210076   4218005  
  4140.000000   4226373   4235149   4244392   4254068   4264225  
  4130.000000   4274809   4285841   4297251   4309049   4321176  
  4120.000000   4333661   4346484   4359706   4373334   4387433  
  4110.000000   4401999   4417064   4432583   4448531   4464818  
  4100.000000   4481378   4498107   4514942   4531817   4548717  
  4090.000000   4565639   4582613   4599672   4616837   4634126  
  4080.000000   4651521   4669012   4686544   4704097   4721600  
  4070.000000   4739026   4756285   4773349   4790119   4806580  
  4060.000000   4822645   4838322   4853533   4868298   4882534  
  4050.000000   4896272   4909439   4922098   4934192   4945798  
  4040.000000   4956840   4967363   4977248   4986517   4995052  
  4030.000000   5002905   5009989   5016372   5021967   5026806  
  4020.000000   5030755   5033843   5036022   5037376   5037880  
  4010.000000   5037706   5036955   5035686   5033710   5031107  
  4000.000000   5028184  
##END= 
