##TITLE= Sample 036 By ssteindl date Dienstag, November 20 2018
##JCAMP-DX= 4.24
##DATA TYPE= INFRARED SPECTRUM
##ORIGIN= Exported PE Spectrum Data File
##OWNER= Sandra Steindl
##DATE= 18/11/20
##TIME= 15:26:59.00
##SPECTROMETER/DATA SYSTEM= PERKIN-ELMER Frontier FT-IR/NIR IR
##INSTRUMENT PARAMETERS=
  APODIZATION=stark
  DETECTOR=INGAAS
##RESOLUTION= 16.000000
##DELTAX= -2.000000
##XUNITS= 1/CM
##YUNITS= A
##XFACTOR= 1.00
##YFACTOR= 0.00000011920928955078
##FIRSTX= 10000.00
##LASTX= 4000.00
##NPOINTS= 3001
##FIRSTY= 0.209933
##MAXY= 0.588124
##MINY= 0.185210
##XYDATA= (X++(Y..Y))
 10000.000000   1761043   1763291   1765285   1766463   1766230  
  9990.000000   1764396   1761198   1757242   1753108   1749170  
  9980.000000   1745452   1741710   1737611   1732909   1727651  
  9970.000000   1722081   1716585   1711417   1706680   1702273  
  9960.000000   1698072   1694082   1690584   1688113   1687344  
  9950.000000   1688834   1692847   1699201   1707297   1716241  
  9940.000000   1725018   1732690   1738570   1742296   1743941  
  9930.000000   1743898   1742861   1741554   1740582   1740181  
  9920.000000   1740144   1739873   1738594   1735740   1731186  
  9910.000000   1725484   1719630   1714865   1712114   1711764  
  9900.000000   1713453   1716295   1719213   1721342   1722284  
  9890.000000   1722126   1721249   1720053   1718772   1717412  
  9880.000000   1715901   1714228   1712583   1711289   1710643  
  9870.000000   1710710   1711208   1711615   1711398   1710304  
  9860.000000   1708503   1706521   1704967   1704209   1704136  
  9850.000000   1704204   1703674   1702037   1699290   1696034  
  9840.000000   1693225   1691768   1692097   1693932   1696408  
  9830.000000   1698360   1698828   1697307   1693937   1689302  
  9820.000000   1684225   1679474   1675608   1672992   1671831  
  9810.000000   1672298   1674476   1678297   1683417   1689173  
  9800.000000   1694700   1699116   1701786   1702445   1701254  
  9790.000000   1698644   1695183   1691408   1687778   1684690  
  9780.000000   1682494   1681529   1681994   1683901   1686897  
  9770.000000   1690322   1693265   1694857   1694502   1692087  
  9760.000000   1688010   1683007   1677937   1673493   1670108  
  9750.000000   1667910   1666811   1666615   1667054   1667865  
  9740.000000   1668734   1669384   1669568   1669190   1668329  
  9730.000000   1667223   1666191   1665430   1664971   1664552  
  9720.000000   1663834   1662469   1660380   1657727   1654937  
  9710.000000   1652455   1650630   1649566   1649175   1649305  
  9700.000000   1649872   1651002   1652921   1655909   1660039  
  9690.000000   1665153   1670815   1676478   1681628   1685878  
  9680.000000   1689020   1690888   1691342   1690164   1687189  
  9670.000000   1682407   1676137   1669072   1662178   1656486  
  9660.000000   1652767   1651374   1652101   1654362   1657321  
  9650.000000   1660220   1662485   1663866   1664369   1664196  
  9640.000000   1663649   1663059   1662760   1663016   1663989  
  9630.000000   1665641   1667716   1669761   1671227   1671654  
  9620.000000   1670773   1668641   1665553   1661981   1658390  
  9610.000000   1655111   1652315   1649983   1648016   1646253  
  9600.000000   1644520   1642635   1640402   1637708   1634570  
  9590.000000   1631270   1628341   1626473   1626318   1628184  
  9580.000000   1631908   1636750   1641625   1645356   1647071  
  9570.000000   1646432   1643729   1639774   1635643   1632386  
  9560.000000   1630771   1631159   1633456   1637199   1641611  
  9550.000000   1645781   1648776   1649880   1648746   1645519  
  9540.000000   1640845   1635649   1630943   1627430   1625383  
  9530.000000   1624507   1624126   1623462   1621945   1619527  
  9520.000000   1616675   1614305   1613424   1614807   1618702  
  9510.000000   1624701   1631826   1638738   1644076   1646776  
  9500.000000   1646370   1643104   1637971   1632436   1628102  
  9490.000000   1626170   1627068   1630233   1634298   1637534  
  9480.000000   1638464   1636409   1631727   1625762   1620342  
  9470.000000   1617212   1617347   1620695   1626187   1632228  
  9460.000000   1637291   1640424   1641485   1641011   1639863  
  9450.000000   1638834   1638319   1638245   1638167   1637501  
  9440.000000   1635827   1633030   1629397   1625460   1621811  
  9430.000000   1618931   1617021   1616057   1615740   1615662  
  9420.000000   1615378   1614599   1613307   1611819   1610669  
  9410.000000   1610421   1611391   1613465   1616095   1618388  
  9400.000000   1619490   1618788   1616257   1612361   1607953  
  9390.000000   1603870   1600671   1598497   1597153   1596377  
  9380.000000   1596018   1596228   1597324   1599678   1603400  
  9370.000000   1608219   1613470   1618264   1621829   1623666  
  9360.000000   1623713   1622158   1619335   1615524   1610988  
  9350.000000   1606054   1601252   1597336   1595123   1595258  
  9340.000000   1597857   1602427   1607813   1612628   1615621  
  9330.000000   1616235   1614744   1612134   1609656   1608321  
  9320.000000   1608569   1610101   1612104   1613512   1613483  
  9310.000000   1611600   1608013   1603246   1597985   1592861  
  9300.000000   1588324   1584685   1582129   1580819   1580863  
  9290.000000   1582290   1584952   1588538   1592593   1596640  
  9280.000000   1600258   1603157   1605201   1606330   1606580  
  9270.000000   1605971   1604615   1602659   1600375   1598082  
  9260.000000   1596100   1594653   1593787   1593403   1593273  
  9250.000000   1593194   1593033   1592827   1592710   1592858  
  9240.000000   1593355   1594154   1595060   1595826   1596239  
  9230.000000   1596221   1595866   1595367   1594958   1594782  
  9220.000000   1594853   1594997   1594906   1594224   1592689  
  9210.000000   1590231   1587030   1583490   1580151   1577576  
  9200.000000   1576186   1576155   1577337   1579332   1581603  
  9190.000000   1583621   1584995   1585569   1585432   1584840  
  9180.000000   1584095   1583429   1582970   1582735   1582698  
  9170.000000   1582786   1582955   1583152   1583348   1583464  
  9160.000000   1583355   1582866   1581863   1580349   1578446  
  9150.000000   1576436   1574688   1573608   1573534   1574618  
  9140.000000   1576767   1579628   1582647   1585137   1586412  
  9130.000000   1586003   1583810   1580176   1575809   1571658  
  9120.000000   1568686   1567581   1568522   1571129   1574565  
  9110.000000   1577781   1579766   1579856   1577890   1574246  
  9100.000000   1569695   1565162   1561492   1559201   1558405  
  9090.000000   1558797   1559806   1560752   1561064   1560447  
  9080.000000   1558960   1557001   1555146   1553967   1553837  
  9070.000000   1554788   1556537   1558547   1560295   1561377  
  9060.000000   1561702   1561423   1560873   1560369   1560090  
  9050.000000   1560026   1560047   1560037   1560025   1560219  
  9040.000000   1560925   1562433   1564813   1567874   1571124  
  9030.000000   1573990   1575984   1576894   1576818   1576072  
  9020.000000   1575056   1574036   1573077   1572004   1570563  
  9010.000000   1568544   1565932   1562919   1559849   1557123  
  9000.000000   1555067   1553894   1553651   1554317   1555814  
  8990.000000   1558054   1560880   1564067   1567302   1570231  
  8980.000000   1572530   1574002   1574663   1574710   1574466  
  8970.000000   1574221   1574153   1574234   1574277   1574007  
  8960.000000   1573201   1571794   1569904   1567799   1565776  
  8950.000000   1564105   1562919   1562258   1562053   1562237  
  8940.000000   1562754   1563594   1564737   1566120   1567609  
  8930.000000   1568984   1570011   1570469   1570278   1569462  
  8920.000000   1568195   1566700   1565218   1563936   1562971  
  8910.000000   1562390   1562225   1562536   1563369   1564774  
  8900.000000   1566707   1569031   1571477   1573702   1575369  
  8890.000000   1576239   1576255   1575522   1574275   1572783  
  8880.000000   1571267   1569854   1568573   1567418   1566409  
  8870.000000   1565629   1565184   1565149   1565477   1565987  
  8860.000000   1566370   1566311   1565618   1564319   1562715  
  8850.000000   1561269   1560475   1560647   1561815   1563698  
  8840.000000   1565802   1567592   1568670   1568910   1568486  
  8830.000000   1567786   1567280   1567332   1568120   1569553  
  8820.000000   1571337   1573043   1574257   1574682   1574242  
  8810.000000   1573099   1571637   1570363   1569771   1570207  
  8800.000000   1571742   1574161   1577016   1579765   1581944  
  8790.000000   1583309   1583918   1584072   1584192   1584625  
  8780.000000   1585527   1586803   1588191   1589365   1590115  
  8770.000000   1590408   1590420   1590438   1590745   1591508  
  8760.000000   1592717   1594226   1595816   1597320   1598667  
  8750.000000   1599905   1601154   1602544   1604153   1605977  
  8740.000000   1607923   1609842   1611556   1612909   1613776  
  8730.000000   1614101   1613895   1613273   1612430   1611632  
  8720.000000   1611124   1611083   1611533   1612334   1613210  
  8710.000000   1613827   1613912   1613324   1612124   1610527  
  8700.000000   1608875   1607495   1606649   1606455   1606917  
  8690.000000   1607935   1609375   1611112   1613062   1615189  
  8680.000000   1617476   1619921   1622505   1625192   1627925  
  8670.000000   1630624   1633212   1635595   1637700   1639439  
  8660.000000   1640741   1641543   1641817   1641576   1640893  
  8650.000000   1639907   1638827   1637889   1637304   1637213  
  8640.000000   1637640   1638500   1639603   1640745   1641762  
  8630.000000   1642614   1643381   1644246   1645420   1647049  
  8620.000000   1649165   1651647   1654285   1656804   1658971  
  8610.000000   1660619   1661716   1662325   1662607   1662758  
  8600.000000   1662981   1663448   1664267   1665470   1666990  
  8590.000000   1668706   1670449   1672095   1673569   1674907  
  8580.000000   1676199   1677563   1679043   1680578   1681993  
  8570.000000   1683047   1683552   1683435   1682813   1681937  
  8560.000000   1681123   1680616   1680503   1680696   1680999  
  8550.000000   1681211   1681251   1681212   1681344   1681951  
  8540.000000   1683251   1685297   1687922   1690822   1693641  
  8530.000000   1696107   1698117   1699721   1701086   1702375  
  8520.000000   1703682   1704979   1706136   1706980   1707374  
  8510.000000   1707275   1706763   1706013   1705257   1704716  
  8500.000000   1704549   1704827   1705503   1706458   1707518  
  8490.000000   1708531   1709411   1710178   1710959   1711942  
  8480.000000   1713309   1715147   1717399   1719845   1722172  
  8470.000000   1724055   1725296   1725874   1725977   1725916  
  8460.000000   1726016   1726498   1727392   1728554   1729708  
  8450.000000   1730594   1731060   1731150   1731071   1731131  
  8440.000000   1731592   1732595   1734069   1735763   1737320  
  8430.000000   1738396   1738795   1738508   1737731   1736778  
  8420.000000   1735984   1735592   1735679   1736166   1736859  
  8410.000000   1737553   1738108   1738512   1738854   1739286  
  8400.000000   1739912   1740753   1741707   1742600   1743255  
  8390.000000   1743564   1743553   1743340   1743096   1742935  
  8380.000000   1742870   1742792   1742524   1741912   1740916  
  8370.000000   1739670   1738461   1737647   1737518   1738209  
  8360.000000   1739628   1741491   1743392   1744937   1745867  
  8350.000000   1746109   1745791   1745166   1744538   1744162  
  8340.000000   1744177   1744582   1745261   1746038   1746743  
  8330.000000   1747266   1747573   1747714   1747763   1747808  
  8320.000000   1747876   1747946   1747947   1747818   1747542  
  8310.000000   1747185   1746869   1746737   1746875   1747272  
  8300.000000   1747785   1748177   1748192   1747643   1746491  
  8290.000000   1744857   1742982   1741143   1739573   1738393  
  8280.000000   1737597   1737090   1736744   1736469   1736223  
  8270.000000   1736034   1735934   1735960   1736107   1736352  
  8260.000000   1736651   1736953   1737217   1737382   1737368  
  8250.000000   1737051   1736303   1735019   1733189   1730925  
  8240.000000   1728459   1726098   1724128   1722753   1722022  
  8230.000000   1721850   1722028   1722325   1722531   1722530  
  8220.000000   1722280   1721804   1721142   1720319   1719341  
  8210.000000   1718184   1716853   1715354   1713754   1712117  
  8200.000000   1710523   1709025   1707637   1706358   1705161  
  8190.000000   1704055   1703070   1702300   1701850   1701831  
  8180.000000   1702285   1703176   1704344   1705540   1706447  
  8170.000000   1706763   1706265   1704874   1702692   1699963  
  8160.000000   1697011   1694135   1691531   1689246   1687183  
  8150.000000   1685167   1683026   1680683   1678183   1675700  
  8140.000000   1673453   1671633   1670332   1669509   1669024  
  8130.000000   1668686   1668337   1667890   1667362   1666837  
  8120.000000   1666443   1666277   1666392   1666750   1667259  
  8110.000000   1667767   1668123   1668187   1667880   1667186  
  8100.000000   1666172   1664978   1663781   1662773   1662090  
  8090.000000   1661795   1661843   1662107   1662412   1662585  
  8080.000000   1662500   1662097   1661379   1660387   1659173  
  8070.000000   1657787   1656277   1654704   1653159   1651758  
  8060.000000   1650623   1649849   1649453   1649363   1649419  
  8050.000000   1649427   1649218   1648703   1647906   1646934  
  8040.000000   1645947   1645084   1644422   1643960   1643636  
  8030.000000   1643380   1643148   1642960   1642876   1642966  
  8020.000000   1643253   1643677   1644092   1644289   1644069  
  8010.000000   1643289   1641927   1640070   1637910   1635676  
  8000.000000   1633586   1631800   1630401   1629401   1628765  
  7990.000000   1628446   1628390   1628561   1628916   1629410  
  7980.000000   1629971   1630517   1630963   1631237   1631313  
  7970.000000   1631198   1630947   1630616   1630262   1629889  
  7960.000000   1629465   1628913   1628153   1627127   1625836  
  7950.000000   1624354   1622817   1621402   1620273   1619555  
  7940.000000   1619288   1619434   1619888   1620501   1621131  
  7930.000000   1621658   1622011   1622161   1622125   1621932  
  7920.000000   1621636   1621281   1620925   1620617   1620408  
  7910.000000   1620345   1620459   1620770   1621265   1621915  
  7900.000000   1622662   1623440   1624171   1624779   1625194  
  7890.000000   1625357   1625226   1624783   1624038   1623042  
  7880.000000   1621880   1620671   1619556   1618672   1618126  
  7870.000000   1617966   1618160   1618599   1619109   1619497  
  7860.000000   1619596   1619324   1618706   1617889   1617101  
  7850.000000   1616591   1616555   1617071   1618068   1619340  
  7840.000000   1620597   1621547   1621975   1621799   1621077  
  7830.000000   1619984   1618747   1617578   1616623   1615929  
  7820.000000   1615460   1615116   1614790   1614402   1613922  
  7810.000000   1613387   1612870   1612466   1612246   1612241  
  7800.000000   1612423   1612713   1613003   1613189   1613210  
  7790.000000   1613059   1612792   1612497   1612256   1612111  
  7780.000000   1612035   1611953   1611760   1611380   1610797  
  7770.000000   1610078   1609344   1608732   1608327   1608135  
  7760.000000   1608060   1607948   1607637   1607025   1606109  
  7750.000000   1604992   1603842   1602842   1602120   1601722  
  7740.000000   1601595   1601618   1601644   1601538   1601211  
  7730.000000   1600630   1599810   1598811   1597719   1596634  
  7720.000000   1595666   1594898   1594390   1594134   1594073  
  7710.000000   1594090   1594058   1593866   1593468   1592898  
  7700.000000   1592263   1591713   1591389   1591377   1591683  
  7690.000000   1592224   1592864   1593451   1593866   1594050  
  7680.000000   1594012   1593811   1593524   1593212   1592904  
  7670.000000   1592594   1592258   1591869   1591424   1590938  
  7660.000000   1590444   1589969   1589523   1589092   1588640  
  7650.000000   1588141   1587591   1587032   1586545   1586232  
  7640.000000   1586177   1586417   1586918   1587581   1588269  
  7630.000000   1588843   1589213   1589343   1589264   1589030  
  7620.000000   1588703   1588314   1587872   1587369   1586813  
  7610.000000   1586249   1585759   1585449   1585405   1585665  
  7600.000000   1586194   1586899   1587652   1588334   1588867  
  7590.000000   1589227   1589448   1589589   1589715   1589867  
  7580.000000   1590064   1590297   1590552   1590812   1591067  
  7570.000000   1591305   1591514   1591682   1591799   1591875  
  7560.000000   1591936   1592031   1592213   1592529   1593001  
  7550.000000   1593618   1594347   1595132   1595924   1596682  
  7540.000000   1597384   1598018   1598586   1599088   1599541  
  7530.000000   1599965   1600398   1600880   1601453   1602137  
  7520.000000   1602929   1603794   1604684   1605551   1606369  
  7510.000000   1607141   1607906   1608711   1609608   1610618  
  7500.000000   1611740   1612932   1614145   1615322   1616434  
  7490.000000   1617476   1618483   1619513   1620643   1621942  
  7480.000000   1623455   1625183   1627084   1629072   1631048  
  7470.000000   1632912   1634603   1636097   1637424   1638636  
  7460.000000   1639793   1640937   1642088   1643247   1644416  
  7450.000000   1645611   1646874   1648257   1649808   1651537  
  7440.000000   1653405   1655327   1657199   1658930   1660475  
  7430.000000   1661846   1663111   1664367   1665705   1667184  
  7420.000000   1668820   1670589   1672443   1674323   1676181  
  7410.000000   1677968   1679652   1681197   1682581   1683793  
  7400.000000   1684855   1685815   1686756   1687780   1688995  
  7390.000000   1690491   1692319   1694481   1696923   1699538  
  7380.000000   1702171   1704657   1706852   1708672   1710119  
  7370.000000   1711289   1712350   1713493   1714878   1716582  
  7360.000000   1718578   1720743   1722907   1724911   1726657  
  7350.000000   1728140   1729424   1730612   1731791   1733004  
  7340.000000   1734243   1735477   1736691   1737909   1739198  
  7330.000000   1740640   1742283   1744118   1746057   1747977  
  7320.000000   1749753   1751321   1752695   1753961   1755235  
  7310.000000   1756614   1758121   1759705   1761256   1762660  
  7300.000000   1763845   1764814   1765636   1766415   1767240  
  7290.000000   1768151   1769125   1770094   1770978   1771730  
  7280.000000   1772351   1772895   1773442   1774072   1774834  
  7270.000000   1775735   1776752   1777839   1778959   1780083  
  7260.000000   1781208   1782326   1783439   1784527   1785576  
  7250.000000   1786565   1787503   1788412   1789352   1790386  
  7240.000000   1791586   1792997   1794645   1796513   1798575  
  7230.000000   1800780   1803084   1805430   1807779   1810085  
  7220.000000   1812332   1814504   1816634   1818760   1820965  
  7210.000000   1823312   1825860   1828613   1831537   1834549  
  7200.000000   1837566   1840512   1843376   1846189   1849040  
  7190.000000   1852015   1855196   1858592   1862174   1865844  
  7180.000000   1869512   1873095   1876582   1880007   1883463  
  7170.000000   1887044   1890842   1894890   1899191   1903683  
  7160.000000   1908297   1912945   1917566   1922108   1926567  
  7150.000000   1930946   1935294   1939656   1944105   1948677  
  7140.000000   1953401   1958246   1963170   1968097   1972990  
  7130.000000   1977834   1982683   1987620   1992760   1998184  
  7120.000000   2003938   2009985   2016248   2022601   2028942  
  7110.000000   2035188   2041326   2047367   2053373   2059389  
  7100.000000   2065474   2071651   2077941   2084334   2090824  
  7090.000000   2097379   2103971   2110567   2117150   2123723  
  7080.000000   2130318   2136980   2143761   2150684   2157736  
  7070.000000   2164849   2171935   2178894   2185662   2192223  
  7060.000000   2198618   2204922   2211223   2217593   2224063  
  7050.000000   2230631   2237260   2243906   2250518   2257066  
  7040.000000   2263526   2269889   2276148   2282304   2288356  
  7030.000000   2294311   2300170   2305938   2311619   2317223  
  7020.000000   2322763   2328274   2333789   2339353   2344985  
  7010.000000   2350689   2356420   2362122   2367711   2373130  
  7000.000000   2378342   2383362   2388223   2392981   2397668  
  6990.000000   2402303   2406866   2411336   2415677   2419886  
  6980.000000   2423961   2427932   2431813   2435632   2439383  
  6970.000000   2443075   2446694   2450250   2453737   2457167  
  6960.000000   2460527   2463816   2467008   2470102   2473087  
  6950.000000   2475981   2478792   2481539   2484214   2486803  
  6940.000000   2489264   2491570   2493687   2495620   2497380  
  6930.000000   2499015   2500569   2502105   2503664   2505287  
  6920.000000   2506985   2508754   2510554   2512326   2513996  
  6910.000000   2515499   2516795   2517889   2518822   2519670  
  6900.000000   2520509   2521403   2522380   2523443   2524574  
  6890.000000   2525760   2526997   2528302   2529685   2531150  
  6880.000000   2532666   2534182   2535630   2536952   2538110  
  6870.000000   2539093   2539917   2540605   2541181   2541662  
  6860.000000   2542068   2542430   2542787   2543196   2543700  
  6850.000000   2544326   2545061   2545871   2546696   2547491  
  6840.000000   2548223   2548892   2549506   2550079   2550612  
  6830.000000   2551092   2551507   2551853   2552141   2552401  
  6820.000000   2552658   2552924   2553182   2553403   2553555  
  6810.000000   2553638   2553684   2553759   2553927   2554229  
  6800.000000   2554639   2555080   2555433   2555585   2555466  
  6790.000000   2555077   2554484   2553796   2553125   2552565  
  6780.000000   2552164   2551938   2551869   2551925   2552053  
  6770.000000   2552190   2552252   2552157   2551835   2551255  
  6760.000000   2550441   2549469   2548448   2547484   2546647  
  6750.000000   2545956   2545376   2544852   2544327   2543776  
  6740.000000   2543196   2542612   2542037   2541475   2540902  
  6730.000000   2540284   2539595   2538826   2537995   2537134  
  6720.000000   2536274   2535433   2534611   2533796   2532980  
  6710.000000   2532166   2531370   2530612   2529902   2529238  
  6700.000000   2528596   2527949   2527272   2526563   2525829  
  6690.000000   2525095   2524376   2523678   2522983   2522267  
  6680.000000   2521496   2520647   2519697   2518639   2517464  
  6670.000000   2516175   2514777   2513300   2511785   2510292  
  6660.000000   2508872   2507564   2506361   2505225   2504084  
  6650.000000   2502873   2501542   2500085   2498532   2496939  
  6640.000000   2495362   2493837   2492370   2490942   2489518  
  6630.000000   2488067   2486568   2485016   2483418   2481787  
  6620.000000   2480132   2478466   2476791   2475114   2473434  
  6610.000000   2471744   2470035   2468294   2466510   2464686  
  6600.000000   2462831   2460969   2459125   2457319   2455559  
  6590.000000   2453845   2452170   2450530   2448925   2447357  
  6580.000000   2445822   2444307   2442790   2441242   2439649  
  6570.000000   2438011   2436358   2434727   2433159   2431672  
  6560.000000   2430259   2428889   2427528   2426157   2424783  
  6550.000000   2423437   2422161   2420976   2419873   2418807  
  6540.000000   2417711   2416525   2415223   2413816   2412350  
  6530.000000   2410883   2409458   2408090   2406763   2405443  
  6520.000000   2404103   2402732   2401346   2399975   2398654  
  6510.000000   2397406   2396238   2395143   2394108   2393118  
  6500.000000   2392159   2391215   2390271   2389304   2388299  
  6490.000000   2387250   2386170   2385083   2384018   2382990  
  6480.000000   2381995   2381002   2379967   2378852   2377639  
  6470.000000   2376341   2374992   2373640   2372325   2371071  
  6460.000000   2369882   2368752   2367670   2366635   2365646  
  6450.000000   2364706   2363812   2362950   2362102   2361251  
  6440.000000   2360392   2359524   2358658   2357793   2356924  
  6430.000000   2356031   2355096   2354110   2353088   2352066  
  6420.000000   2351094   2350215   2349450   2348790   2348200  
  6410.000000   2347635   2347059   2346458   2345846   2345252  
  6400.000000   2344712   2344253   2343889   2343620   2343433  
  6390.000000   2343310   2343227   2343154   2343059   2342908  
  6380.000000   2342672   2342340   2341916   2341422   2340887  
  6370.000000   2340336   2339776   2339203   2338602   2337959  
  6360.000000   2337276   2336566   2335852   2335156   2334488  
  6350.000000   2333852   2333238   2332648   2332086   2331571  
  6340.000000   2331112   2330709   2330332   2329934   2329459  
  6330.000000   2328862   2328125   2327267   2326327   2325354  
  6320.000000   2324385   2323433   2322485   2321520   2320515  
  6310.000000   2319465   2318373   2317261   2316139   2315019  
  6300.000000   2313895   2312768   2311633   2310498   2309363  
  6290.000000   2308229   2307078   2305884   2304610   2303237  
  6280.000000   2301757   2300194   2298580   2296958   2295352  
  6270.000000   2293773   2292206   2290632   2289028   2287386  
  6260.000000   2285702   2283979   2282212   2280397   2278521  
  6250.000000   2276591   2274618   2272643   2270704   2268839  
  6240.000000   2267061   2265357   2263686   2262003   2260263  
  6230.000000   2258447   2256549   2254587   2252581   2250548  
  6220.000000   2248502   2246453   2244413   2242396   2240418  
  6210.000000   2238488   2236602   2234748   2232906   2231061  
  6200.000000   2229214   2227380   2225585   2223853   2222194  
  6190.000000   2220596   2219029   2217459   2215859   2214220  
  6180.000000   2212556   2210895   2209268   2207701   2206208  
  6170.000000   2204789   2203434   2202128   2200848   2199565  
  6160.000000   2198248   2196867   2195398   2193834   2192189  
  6150.000000   2190495   2188795   2187127   2185517   2183971  
  6140.000000   2182482   2181036   2179623   2178245   2176911  
  6130.000000   2175630   2174408   2173236   2172099   2170977  
  6120.000000   2169854   2168722   2167580   2166427   2165265  
  6110.000000   2164084   2162884   2161661   2160433   2159217  
  6100.000000   2158044   2156932   2155891   2154907   2153963  
  6090.000000   2153036   2152118   2151216   2150358   2149573  
  6080.000000   2148894   2148333   2147894   2147561   2147318  
  6070.000000   2147139   2147009   2146902   2146809   2146702  
  6060.000000   2146575   2146416   2146242   2146065   2145927  
  6050.000000   2145853   2145878   2146015   2146281   2146676  
  6040.000000   2147209   2147882   2148704   2149663   2150749  
  6030.000000   2151926   2153162   2154413   2155660   2156887  
  6020.000000   2158108   2159337   2160602   2161917   2163298  
  6010.000000   2164741   2166247   2167799   2169389   2170992  
  6000.000000   2172598   2174185   2175753   2177304   2178866  
  5990.000000   2180469   2182156   2183956   2185900   2187991  
  5980.000000   2190234   2192616   2195132   2197763   2200501  
  5970.000000   2203313   2206174   2209040   2211890   2214701  
  5960.000000   2217493   2220283   2223116   2226018   2229011  
  5950.000000   2232083   2235222   2238402   2241616   2244868  
  5940.000000   2248181   2251580   2255084   2258691   2262381  
  5930.000000   2266118   2269862   2273576   2277234   2280817  
  5920.000000   2284309   2287693   2290954   2294081   2297072  
  5910.000000   2299939   2302702   2305391   2308026   2310623  
  5900.000000   2313186   2315722   2318236   2320747   2323270  
  5890.000000   2325832   2328435   2331078   2333737   2336388  
  5880.000000   2339003   2341565   2344064   2346499   2348865  
  5870.000000   2351151   2353343   2355424   2357392   2359257  
  5860.000000   2361050   2362811   2364583   2366401   2368288  
  5850.000000   2370253   2372298   2374418   2376604   2378847  
  5840.000000   2381133   2383442   2385759   2388071   2390372  
  5830.000000   2392666   2394963   2397267   2399575   2401871  
  5820.000000   2404135   2406345   2408488   2410566   2412584  
  5810.000000   2414558   2416489   2418382   2420222   2422016  
  5800.000000   2423760   2425490   2427220   2428996   2430808  
  5790.000000   2432654   2434468   2436188   2437709   2438952  
  5780.000000   2439817   2440243   2440167   2439572   2438456  
  5770.000000   2436878   2434917   2432705   2430371   2428050  
  5760.000000   2425830   2423776   2421896   2420190   2418635  
  5750.000000   2417223   2415948   2414813   2413813   2412931  
  5740.000000   2412146   2411426   2410758   2410129   2409554  
  5730.000000   2409040   2408604   2408238   2407933   2407666  
  5720.000000   2407427   2407207   2407022   2406880   2406797  
  5710.000000   2406767   2406777   2406803   2406824   2406832  
  5700.000000   2406830   2406835   2406861   2406922   2407012  
  5690.000000   2407124   2407238   2407347   2407434   2407501  
  5680.000000   2407534   2407527   2407457   2407305   2407039  
  5670.000000   2406641   2406084   2405351   2404422   2403291  
  5660.000000   2401953   2400428   2398746   2396966   2395142  
  5650.000000   2393339   2391598   2389953   2388410   2386976  
  5640.000000   2385642   2384404   2383248   2382160   2381114  
  5630.000000   2380078   2379028   2377948   2376843   2375730  
  5620.000000   2374641   2373593   2372593   2371624   2370659  
  5610.000000   2369667   2368635   2367566   2366486   2365428  
  5600.000000   2364423   2363493   2362639   2361854   2361120  
  5590.000000   2360418   2359727   2359020   2358271   2357453  
  5580.000000   2356546   2355551   2354485   2353385   2352293  
  5570.000000   2351240   2350237   2349272   2348310   2347322  
  5560.000000   2346283   2345194   2344068   2342929   2341796  
  5550.000000   2340677   2339567   2338462   2337360   2336272  
  5540.000000   2335212   2334199   2333236   2332313   2331407  
  5530.000000   2330495   2329561   2328605   2327638   2326673  
  5520.000000   2325717   2324762   2323790   2322784   2321734  
  5510.000000   2320646   2319534   2318420   2317310   2316199  
  5500.000000   2315068   2313899   2312678   2311417   2310132  
  5490.000000   2308853   2307592   2306345   2305088   2303791  
  5480.000000   2302424   2300979   2299463   2297903   2296324  
  5470.000000   2294752   2293195   2291651   2290108   2288553  
  5460.000000   2286968   2285331   2283620   2281813   2279895  
  5450.000000   2277874   2275780   2273666   2271601   2269642  
  5440.000000   2267828   2266164   2264633   2263199   2261827  
  5430.000000   2260488   2259165   2257837   2256495   2255119  
  5420.000000   2253714   2252291   2250900   2249597   2248456  
  5410.000000   2247512   2246780   2246216   2245777   2245403  
  5400.000000   2245078   2244800   2244616   2244553   2244652  
  5390.000000   2244901   2245290   2245778   2246363   2247041  
  5380.000000   2247860   2248844   2250040   2251432   2253017  
  5370.000000   2254736   2256574   2258486   2260497   2262595  
  5360.000000   2264833   2267205   2269770   2272530   2275566  
  5350.000000   2278901   2282634   2286778   2291402   2296458  
  5340.000000   2301967   2307852   2314144   2320795   2327877  
  5330.000000   2335359   2343313   2351683   2360519   2369758  
  5320.000000   2379476   2389647   2400397   2411723   2423753  
  5310.000000   2436447   2449887   2463991   2478817   2494295  
  5300.000000   2510516   2527454   2545238   2563865   2583457  
  5290.000000   2603975   2625468   2647805   2670936   2694671  
  5280.000000   2718947   2743645   2768815   2794474   2820761  
  5270.000000   2847715   2875372   2903609   2932255   2961068  
  5260.000000   2989849   3018483   3046956   3075340   3103694  
  5250.000000   3132054   3160310   3188321   3215819   3242651  
  5240.000000   3268645   3293848   3318275   3342115   3365411  
  5230.000000   3388289   3410657   3432492   3453583   3473871  
  5220.000000   3493190   3511593   3529048   3545726   3561659  
  5210.000000   3577017   3591764   3605959   3619451   3632229  
  5200.000000   3644136   3655228   3665448   3674943   3683707  
  5190.000000   3691876   3699394   3706323   3712565   3718171  
  5180.000000   3723074   3727369   3731024   3734138   3736657  
  5170.000000   3738636   3740002   3740813   3741031   3740753  
  5160.000000   3739972   3738780   3737143   3735107   3732614  
  5150.000000   3729707   3726361   3722663   3718625   3714336  
  5140.000000   3709793   3705044   3700054   3694850   3689410  
  5130.000000   3683778   3677950   3671974   3665842   3659581  
  5120.000000   3653174   3646653   3640022   3633336   3626618  
  5110.000000   3619912   3613219   3606542   3599849   3593123  
  5100.000000   3586338   3579496   3572600   3565673   3558730  
  5090.000000   3551798   3544892   3538038   3531252   3524553  
  5080.000000   3517941   3511410   3504921   3498436   3491899  
  5070.000000   3485274   3478533   3471676   3464710   3457660  
  5060.000000   3450542   3443373   3436156   3428898   3421598  
  5050.000000   3414267   3406913   3399553   3392192   3384842  
  5040.000000   3377501   3370173   3362859   3355562   3348287  
  5030.000000   3341039   3333822   3326638   3319497   3312403  
  5020.000000   3305374   3298423   3291570   3284819   3278179  
  5010.000000   3271636   3265189   3258815   3252522   3246303  
  5000.000000   3240184   3234174   3228312   3222607   3217096  
  4990.000000   3211782   3206699   3201842   3197240   3192873  
  4980.000000   3188759   3184862   3181195   3177721   3174471  
  4970.000000   3171426   3168642   3166113   3163900   3161989  
  4960.000000   3160427   3159187   3158314   3157786   3157655  
  4950.000000   3157904   3158578   3159633   3161087   3162867  
  4940.000000   3164979   3167359   3170038   3172990   3176279  
  4930.000000   3179893   3183888   3188232   3192951   3197990  
  4920.000000   3203360   3209013   3214971   3221201   3227735  
  4910.000000   3234546   3241657   3249036   3256688   3264572  
  4900.000000   3272675   3280947   3289364   3297882   3306473  
  4890.000000   3315108   3323762   3332412   3341026   3349576  
  4880.000000   3358012   3366304   3374397   3382274   3389889  
  4870.000000   3397241   3404289   3411032   3417424   3423468  
  4860.000000   3429125   3434417   3439333   3443917   3448177  
  4850.000000   3452163   3455873   3459347   3462570   3465578  
  4840.000000   3468369   3470992   3473468   3475857   3478181  
  4830.000000   3480484   3482762   3485023   3487236   3489387  
  4820.000000   3491444   3493401   3495247   3497001   3498673  
  4810.000000   3500288   3501860   3503403   3504917   3506407  
  4800.000000   3507868   3509306   3510724   3512134   3513544  
  4790.000000   3514966   3516401   3517855   3519321   3520804  
  4780.000000   3522299   3523810   3525329   3526850   3528350  
  4770.000000   3529805   3531180   3532452   3533593   3534602  
  4760.000000   3535474   3536228   3536868   3537414   3537862  
  4750.000000   3538218   3538468   3538616   3538647   3538570  
  4740.000000   3538376   3538077   3537666   3537154   3536537  
  4730.000000   3535825   3535018   3534129   3533161   3532127  
  4720.000000   3531029   3529875   3528667   3527413   3526124  
  4710.000000   3524818   3523521   3522261   3521067   3519962  
  4700.000000   3518963   3518072   3517289   3516605   3516016  
  4690.000000   3515515   3515112   3514811   3514627   3514559  
  4680.000000   3514606   3514741   3514938   3515146   3515332  
  4670.000000   3515452   3515499   3515466   3515385   3515286  
  4660.000000   3515225   3515242   3515388   3515691   3516182  
  4650.000000   3516868   3517758   3518843   3520115   3521553  
  4640.000000   3523140   3524851   3526665   3528559   3530513  
  4630.000000   3532502   3534503   3536489   3538433   3540309  
  4620.000000   3542094   3543772   3545326   3546748   3548027  
  4610.000000   3549159   3550131   3550948   3551610   3552141  
  4600.000000   3552559   3552903   3553194   3553465   3553715  
  4590.000000   3553954   3554156   3554311   3554385   3554368  
  4580.000000   3554234   3553983   3553603   3553107   3552494  
  4570.000000   3551781   3550972   3550082   3549108   3548058  
  4560.000000   3546924   3545711   3544416   3543053   3541635  
  4550.000000   3540185   3538719   3537252   3535786   3534318  
  4540.000000   3532840   3531347   3529841   3528331   3526839  
  4530.000000   3525377   3523973   3522630   3521370   3520187  
  4520.000000   3519107   3518126   3517278   3516558   3516006  
  4510.000000   3515609   3515412   3515410   3515674   3516218  
  4500.000000   3517144   3518474   3520305   3522634   3525533  
  4490.000000   3528969   3533000   3537588   3542803   3548618  
  4480.000000   3555106   3562230   3570038   3578466   3587531  
  4470.000000   3597148   3607322   3617968   3629091   3640613  
  4460.000000   3652538   3664788   3677355   3690160   3703178  
  4450.000000   3716331   3729592   3742900   3756239   3769586  
  4440.000000   3782940   3796304   3809676   3823059   3836420  
  4430.000000   3849746   3862974   3876085   3889005   3901729  
  4420.000000   3914186   3926380   3938233   3949742   3960806  
  4410.000000   3971405   3981423   3990835   3999536   4007519  
  4400.000000   4014716   4021157   4026821   4031781   4036058  
  4390.000000   4039762   4042957   4045776   4048304   4050675  
  4380.000000   4052963   4055270   4057643   4060145   4062805  
  4370.000000   4065673   4068778   4072160   4075845   4079849  
  4360.000000   4084173   4088801   4093700   4098841   4104167  
  4350.000000   4109648   4115215   4120855   4126506   4132193  
  4340.000000   4137882   4143610   4149308   4154898   4160136  
  4330.000000   4164711   4168179   4170119   4170158   4168143  
  4320.000000   4164144   4158534   4151854   4144784   4137927  
  4310.000000   4131786   4126613   4122499   4119331   4116952  
  4300.000000   4115160   4113814   4112808   4112090   4111634  
  4290.000000   4111404   4111391   4111556   4111908   4112435  
  4280.000000   4113168   4114113   4115275   4116642   4118179  
  4270.000000   4119859   4121631   4123450   4125221   4126814  
  4260.000000   4128025   4128617   4128333   4126980   4124460  
  4250.000000   4120832   4116286   4111143   4105750   4100464  
  4240.000000   4095536   4091141   4087317   4084043   4081220  
  4230.000000   4078751   4076528   4074461   4072476   4070506  
  4220.000000   4068518   4066480   4064422   4062369   4060417  
  4210.000000   4058629   4057109   4055897   4055040   4054516  
  4200.000000   4054306   4054338   4054565   4054908   4055334  
  4190.000000   4055786   4056268   4056761   4057308   4057914  
  4180.000000   4058646   4059511   4060575   4061837   4063361  
  4170.000000   4065153   4067288   4069787   4072727   4076113  
  4160.000000   4079992   4084325   4089125   4094325   4099940  
  4150.000000   4105918   4112299   4119052   4126232   4133805  
  4140.000000   4141817   4150223   4159063   4168289   4177937  
  4130.000000   4187960   4198385   4209161   4220316   4231810  
  4120.000000   4243689   4255945   4268645   4281794   4295446  
  4110.000000   4309580   4324203   4339248   4354677   4370394  
  4100.000000   4386341   4402428   4418612   4434838   4451098  
  4090.000000   4467388   4483729   4500145   4516657   4533289  
  4080.000000   4550039   4566917   4583892   4600956   4618044  
  4070.000000   4635118   4652072   4668848   4685324   4701461  
  4060.000000   4717163   4732437   4747222   4761554   4775380  
  4050.000000   4788755   4801630   4814078   4826053   4837628  
  4040.000000   4848720   4859362   4869419   4878893   4887646  
  4030.000000   4895712   4902999   4909572   4915362   4920417  
  4020.000000   4924623   4928024   4930574   4932345   4933284  
  4010.000000   4933538   4933193   4932286   4930605   4928230  
  4000.000000   4925507  
##END= 
