##TITLE= Sample 047 By ssteindl date Dienstag, November 20 2018
##JCAMP-DX= 4.24
##DATA TYPE= INFRARED SPECTRUM
##ORIGIN= Exported PE Spectrum Data File
##OWNER= Sandra Steindl
##DATE= 18/11/20
##TIME= 15:51:02.00
##SPECTROMETER/DATA SYSTEM= PERKIN-ELMER Frontier FT-IR/NIR IR
##INSTRUMENT PARAMETERS=
  APODIZATION=stark
  DETECTOR=INGAAS
##RESOLUTION= 16.000000
##DELTAX= -2.000000
##XUNITS= 1/CM
##YUNITS= A
##XFACTOR= 1.00
##YFACTOR= 0.00000011920928955078
##FIRSTX= 10000.00
##LASTX= 4000.00
##NPOINTS= 3001
##FIRSTY= 0.195667
##MAXY= 0.583006
##MINY= 0.173105
##XYDATA= (X++(Y..Y))
 10000.000000   1641376   1641369   1640765   1638818   1635550  
  9990.000000   1631749   1628302   1625922   1625093   1625967  
  9980.000000   1628234   1631187   1633974   1635736   1635798  
  9970.000000   1633791   1629790   1624278   1618071   1612158  
  9960.000000   1607471   1604736   1604255   1605936   1609209  
  9950.000000   1613301   1617281   1620391   1622097   1622204  
  9940.000000   1620854   1618344   1615114   1611412   1607353  
  9930.000000   1602694   1597076   1590106   1581720   1572356  
  9920.000000   1563024   1555159   1550208   1549281   1552719  
  9910.000000   1560033   1569924   1580629   1590356   1597706  
  9900.000000   1602065   1603592   1603153   1601833   1600652  
  9890.000000   1600171   1600479   1601228   1601903   1602061  
  9880.000000   1601517   1600425   1599133   1598071   1597482  
  9870.000000   1597364   1597408   1597128   1596044   1593882  
  9860.000000   1590720   1587013   1583463   1580845   1579761  
  9850.000000   1580517   1583070   1587051   1591896   1596906  
  9840.000000   1601385   1604701   1606383   1606211   1604277  
  9830.000000   1601031   1597265   1593962   1592114   1592394  
  9820.000000   1594959   1599295   1604318   1608657   1611036  
  9810.000000   1610700   1607638   1602644   1597052   1592349  
  9800.000000   1589708   1589667   1592046   1596046   1600581  
  9790.000000   1604587   1607295   1608383   1607905   1606251  
  9780.000000   1603916   1601467   1599413   1598219   1598228  
  9770.000000   1599607   1602216   1605594   1608935   1611310  
  9760.000000   1611878   1610189   1606343   1600957   1594991  
  9750.000000   1589370   1584722   1581137   1578247   1575426  
  9740.000000   1572160   1568325   1564298   1560826   1558704  
  9730.000000   1558463   1560124   1563225   1566980   1570601  
  9720.000000   1573530   1575587   1576910   1577813   1578622  
  9710.000000   1579516   1580572   1581693   1582773   1583574  
  9700.000000   1583817   1583062   1580822   1576704   1570629  
  9690.000000   1563108   1555212   1548511   1544542   1544432  
  9680.000000   1548353   1555494   1564194   1572507   1578762  
  9670.000000   1581998   1582130   1579730   1575732   1570988  
  9660.000000   1566115   1561387   1556925   1552840   1549334  
  9650.000000   1546715   1545173   1544760   1545185   1546044  
  9640.000000   1546862   1547367   1547494   1547311   1546874  
  9630.000000   1546008   1544370   1541493   1537146   1531461  
  9620.000000   1525093   1518995   1514169   1511285   1510488  
  9610.000000   1511396   1513287   1515411   1517243   1518595  
  9600.000000   1519594   1520489   1521529   1522798   1524255  
  9590.000000   1525757   1527192   1528499   1529703   1530827  
  9580.000000   1531902   1532922   1533897   1534885   1535934  
  9570.000000   1537058   1538090   1538736   1538604   1537443  
  9560.000000   1535292   1532601   1530101   1528560   1528412  
  9550.000000   1529524   1531174   1532289   1531900   1529520  
  9540.000000   1525393   1520368   1515592   1512054   1510256  
  9530.000000   1510100   1511046   1512439   1513839   1515184  
  9520.000000   1516706   1518706   1521259   1524144   1526873  
  9510.000000   1528972   1530168   1530521   1530361   1530072  
  9500.000000   1529916   1529854   1529603   1528752   1526974  
  9490.000000   1524166   1520478   1516242   1511820   1507533  
  9480.000000   1503622   1500326   1497903   1496652   1496773  
  9470.000000   1498262   1500786   1503732   1506378   1508143  
  9460.000000   1508819   1508601   1507998   1507529   1507531  
  9450.000000   1507958   1508492   1508692   1508266   1507230  
  9440.000000   1505899   1504756   1504203   1504407   1505232  
  9430.000000   1506352   1507406   1508140   1508462   1508377  
  9420.000000   1507908   1507023   1505669   1503879   1501884  
  9410.000000   1500134   1499181   1499459   1501061   1503645  
  9400.000000   1506507   1508841   1510024   1509886   1508734  
  9390.000000   1507231   1506058   1505658   1506065   1506968  
  9380.000000   1507893   1508426   1508374   1507778   1506835  
  9370.000000   1505714   1504442   1502878   1500831   1498201  
  9360.000000   1495103   1491874   1488981   1486867   1485805  
  9350.000000   1485849   1486834   1488494   1490529   1492685  
  9340.000000   1494761   1496579   1497999   1498879   1499148  
  9330.000000   1498801   1497961   1496824   1495641   1494613  
  9320.000000   1493871   1493453   1493349   1493536   1493979  
  9310.000000   1494645   1495425   1496183   1496714   1496856  
  9300.000000   1496538   1495866   1495120   1494642   1494729  
  9290.000000   1495456   1496650   1497900   1498666   1498459  
  9280.000000   1496996   1494368   1491028   1487698   1485123  
  9270.000000   1483899   1484296   1486193   1489070   1492099  
  9260.000000   1494363   1495102   1493959   1491053   1486947  
  9250.000000   1482483   1478562   1475871   1474711   1474925  
  9240.000000   1476050   1477493   1478770   1479617   1480004  
  9230.000000   1480088   1480068   1480091   1480205   1480380  
  9220.000000   1480634   1481031   1481701   1482726   1484055  
  9210.000000   1485492   1486704   1487390   1487380   1486798  
  9200.000000   1486037   1485603   1485890   1486967   1488530  
  9190.000000   1489932   1490411   1489358   1486585   1482428  
  9180.000000   1477639   1473176   1469891   1468359   1468717  
  9170.000000   1470711   1473778   1477266   1480583   1483296  
  9160.000000   1485120   1485927   1485716   1484602   1482793  
  9150.000000   1480560   1478250   1476187   1474648   1473724  
  9140.000000   1473326   1473187   1472944   1472243   1470833  
  9130.000000   1468694   1466067   1463398   1461201   1459920  
  9120.000000   1459816   1460874   1462808   1465150   1467413  
  9110.000000   1469231   1470440   1471097   1471425   1471684  
  9100.000000   1472069   1472611   1473216   1473666   1473764  
  9090.000000   1473372   1472514   1471320   1470006   1468789  
  9080.000000   1467833   1467245   1467047   1467243   1467814  
  9070.000000   1468776   1470129   1471869   1473924   1476185  
  9060.000000   1478487   1480649   1482491   1483874   1484725  
  9050.000000   1485013   1484749   1483950   1482664   1480954  
  9040.000000   1478908   1476664   1474390   1472305   1470589  
  9030.000000   1469404   1468790   1468728   1469081   1469680  
  9020.000000   1470337   1470910   1471305   1471448   1471269  
  9010.000000   1470656   1469512   1467732   1465318   1462382  
  9000.000000   1459244   1456305   1453984   1452562   1452111  
  8990.000000   1452468   1453287   1454199   1454953   1455533  
  8980.000000   1456144   1457113   1458728   1461078   1463986  
  8970.000000   1467020   1469660   1471432   1472114   1471742  
  8960.000000   1470627   1469187   1467843   1466868   1466343  
  8950.000000   1466195   1466261   1466408   1466543   1466694  
  8940.000000   1466927   1467365   1468085   1469153   1470561  
  8930.000000   1472236   1474020   1475683   1476965   1477598  
  8920.000000   1477379   1476220   1474223   1471647   1468883  
  8910.000000   1466326   1464314   1463011   1462389   1462251  
  8900.000000   1462313   1462327   1462166   1461893   1461742  
  8890.000000   1462038   1463070   1464975   1467658   1470782  
  8880.000000   1473865   1476402   1478074   1478795   1478790  
  8870.000000   1478450   1478222   1478388   1478963   1479696  
  8860.000000   1480181   1480077   1479260   1477962   1476695  
  8850.000000   1476116   1476745   1478771   1481925   1485560  
  8840.000000   1488849   1491034   1491675   1490747   1488654  
  8830.000000   1486058   1483675   1482082   1481588   1482224  
  8820.000000   1483772   1485880   1488143   1490209   1491816  
  8810.000000   1492836   1493251   1493146   1492663   1491950  
  8800.000000   1491143   1490307   1489478   1488649   1487838  
  8790.000000   1487097   1486514   1486207   1486258   1486704  
  8780.000000   1487511   1488582   1489816   1491105   1492379  
  8770.000000   1493559   1494563   1495273   1495581   1495430  
  8760.000000   1494898   1494225   1493802   1494060   1495341  
  8750.000000   1497748   1501077   1504832   1508373   1511100  
  8740.000000   1512657   1513015   1512486   1511576   1510846  
  8730.000000   1510729   1511438   1512942   1515019   1517376  
  8720.000000   1519734   1521925   1523882   1525646   1527302  
  8710.000000   1528945   1530616   1532286   1533856   1535167  
  8700.000000   1536078   1536484   1536401   1535958   1535390  
  8690.000000   1534970   1534925   1535378   1536310   1537587  
  8680.000000   1539018   1540448   1541808   1543145   1544572  
  8670.000000   1546209   1548111   1550233   1552451   1554597  
  8660.000000   1556543   1558214   1559625   1560828   1561890  
  8650.000000   1562852   1563730   1564534   1565291   1566075  
  8640.000000   1566984   1568121   1569536   1571202   1573005  
  8630.000000   1574778   1576355   1577614   1578519   1579116  
  8620.000000   1579519   1579871   1580302   1580914   1581759  
  8610.000000   1582866   1584238   1585868   1587738   1589807  
  8600.000000   1592011   1594239   1596338   1598128   1599440  
  8590.000000   1600154   1600257   1599881   1599300   1598899  
  8580.000000   1599049   1600042   1601966   1604693   1607866  
  8570.000000   1611023   1613715   1615626   1616635   1616802  
  8560.000000   1616311   1615371   1614153   1612767   1611310  
  8550.000000   1609905   1608739   1608048   1608043   1608837  
  8540.000000   1610341   1612284   1614255   1615855   1616831  
  8530.000000   1617155   1617050   1616871   1616999   1617665  
  8520.000000   1618892   1620479   1622117   1623507   1624491  
  8510.000000   1625099   1625533   1626079   1626981   1628353  
  8500.000000   1630123   1632066   1633887   1635308   1636178  
  8490.000000   1636494   1636414   1636184   1636060   1636231  
  8480.000000   1636771   1637639   1638706   1639820   1640862  
  8470.000000   1641785   1642612   1643421   1644286   1645257  
  8460.000000   1646329   1647457   1648583   1649662   1650680  
  8450.000000   1651658   1652622   1653599   1654578   1655536  
  8440.000000   1656434   1657253   1657997   1658681   1659309  
  8430.000000   1659858   1660255   1660408   1660232   1659714  
  8420.000000   1658938   1658083   1657383   1657054   1657227  
  8410.000000   1657893   1658894   1659980   1660888   1661433  
  8400.000000   1661564   1661391   1661155   1661156   1661649  
  8390.000000   1662775   1664508   1666666   1668944   1671006  
  8380.000000   1672570   1673483   1673747   1673510   1672998  
  8370.000000   1672446   1672022   1671775   1671654   1671538  
  8360.000000   1671313   1670912   1670346   1669696   1669069  
  8350.000000   1668574   1668261   1668142   1668190   1668392  
  8340.000000   1668755   1669313   1670099   1671120   1672318  
  8330.000000   1673576   1674726   1675606   1676102   1676186  
  8320.000000   1675917   1675418   1674839   1674307   1673881  
  8310.000000   1673539   1673186   1672698   1671949   1670876  
  8300.000000   1669487   1667894   1666278   1664860   1663813  
  8290.000000   1663230   1663077   1663215   1663437   1663531  
  8280.000000   1663352   1662846   1662071   1661143   1660195  
  8270.000000   1659320   1658566   1657943   1657462   1657146  
  8260.000000   1657037   1657173   1657548   1658084   1658632  
  8250.000000   1659011   1659069   1658749   1658104   1657283  
  8240.000000   1656456   1655763   1655245   1654870   1654536  
  8230.000000   1654167   1653727   1653261   1652830   1652481  
  8220.000000   1652183   1651816   1651208   1650195   1648688  
  8210.000000   1646713   1644405   1641969   1639612   1637502  
  8200.000000   1635736   1634362   1633384   1632802   1632588  
  8190.000000   1632690   1632997   1633347   1633546   1633423  
  8180.000000   1632885   1631933   1630672   1629247   1627805  
  8170.000000   1626435   1625156   1623945   1622768   1621636  
  8160.000000   1620591   1619712   1619040   1618565   1618185  
  8150.000000   1617756   1617118   1616173   1614919   1613440  
  8140.000000   1611878   1610357   1608942   1607615   1606295  
  8130.000000   1604888   1603336   1601651   1599920   1598275  
  8120.000000   1596852   1595745   1594980   1594518   1594264  
  8110.000000   1594092   1593883   1593531   1592973   1592183  
  8100.000000   1591194   1590075   1588940   1587908   1587087  
  8090.000000   1586531   1586226   1586082   1585962   1585711  
  8080.000000   1585213   1584423   1583382   1582209   1581064  
  8070.000000   1580104   1579437   1579097   1579042   1579171  
  8060.000000   1579350   1579464   1579424   1579202   1578813  
  8050.000000   1578310   1577750   1577185   1576643   1576118  
  8040.000000   1575587   1574999   1574300   1573426   1572327  
  8030.000000   1570969   1569358   1567553   1565672   1563884  
  8020.000000   1562375   1561315   1560798   1560830   1561304  
  8010.000000   1562039   1562823   1563473   1563875   1564003  
  8000.000000   1563898   1563630   1563257   1562792   1562217  
  7990.000000   1561485   1560579   1559517   1558370   1557239  
  7980.000000   1556214   1555354   1554650   1554058   1553503  
  7970.000000   1552941   1552365   1551822   1551387   1551126  
  7960.000000   1551065   1551162   1551323   1551413   1551311  
  7950.000000   1550929   1550259   1549349   1548316   1547295  
  7940.000000   1546426   1545814   1545527   1545577   1545934  
  7930.000000   1546529   1547273   1548069   1548828   1549483  
  7920.000000   1549991   1550347   1550571   1550716   1550851  
  7910.000000   1551052   1551385   1551887   1552546   1553290  
  7900.000000   1553996   1554505   1554670   1554389   1553649  
  7890.000000   1552532   1551204   1549868   1548710   1547856  
  7880.000000   1547337   1547110   1547082   1547170   1547325  
  7870.000000   1547557   1547900   1548385   1548989   1549621  
  7860.000000   1550137   1550377   1550239   1549703   1548869  
  7850.000000   1547898   1546982   1546251   1545744   1545398  
  7840.000000   1545086   1544690   1544153   1543525   1542934  
  7830.000000   1542554   1542514   1542865   1543538   1544377  
  7820.000000   1545182   1545774   1546043   1545966   1545592  
  7810.000000   1545009   1544308   1543553   1542783   1542014  
  7800.000000   1541260   1540541   1539876   1539284   1538755  
  7790.000000   1538264   1537761   1537207   1536577   1535887  
  7780.000000   1535181   1534520   1533961   1533528   1533209  
  7770.000000   1532959   1532713   1532413   1532030   1531564  
  7760.000000   1531054   1530552   1530110   1529760   1529507  
  7750.000000   1529322   1529156   1528959   1528692   1528351  
  7740.000000   1527963   1527585   1527281   1527096   1527041  
  7730.000000   1527073   1527108   1527037   1526760   1526213  
  7720.000000   1525391   1524355   1523213   1522107   1521172  
  7710.000000   1520515   1520194   1520208   1520496   1520947  
  7700.000000   1521414   1521745   1521808   1521525   1520895  
  7690.000000   1519994   1518966   1517980   1517191   1516689  
  7680.000000   1516483   1516500   1516622   1516726   1516726  
  7670.000000   1516602   1516388   1516161   1516004   1515976  
  7660.000000   1516100   1516350   1516675   1516998   1517249  
  7650.000000   1517363   1517301   1517050   1516633   1516108  
  7640.000000   1515560   1515091   1514793   1514726   1514901  
  7630.000000   1515274   1515763   1516270   1516714   1517050  
  7620.000000   1517268   1517388   1517439   1517438   1517391  
  7610.000000   1517291   1517139   1516941   1516728   1516531  
  7600.000000   1516380   1516283   1516228   1516186   1516135  
  7590.000000   1516066   1516000   1515976   1516046   1516244  
  7580.000000   1516586   1517052   1517611   1518223   1518867  
  7570.000000   1519529   1520219   1520937   1521678   1522417  
  7560.000000   1523122   1523760   1524322   1524826   1525319  
  7550.000000   1525866   1526529   1527340   1528293   1529338  
  7540.000000   1530397   1531378   1532209   1532841   1533274  
  7530.000000   1533544   1533722   1533890   1534128   1534499  
  7520.000000   1535043   1535777   1536700   1537798   1539040  
  7510.000000   1540390   1541796   1543201   1544546   1545770  
  7500.000000   1546837   1547726   1548457   1549069   1549627  
  7490.000000   1550191   1550820   1551548   1552389   1553332  
  7480.000000   1554359   1555446   1556585   1557780   1559058  
  7470.000000   1560452   1562000   1563719   1565600   1567603  
  7460.000000   1569666   1571719   1573717   1575642   1577526  
  7450.000000   1579420   1581376   1583410   1585488   1587521  
  7440.000000   1589401   1591030   1592378   1593487   1594471  
  7430.000000   1595471   1596615   1597970   1599521   1601196  
  7420.000000   1602901   1604571   1606197   1607824   1609523  
  7410.000000   1611353   1613320   1615368   1617403   1619325  
  7400.000000   1621086   1622692   1624213   1625745   1627372  
  7390.000000   1629135   1631022   1632984   1634963   1636923  
  7380.000000   1638855   1640769   1642678   1644572   1646414  
  7370.000000   1648149   1649723   1651106   1652310   1653377  
  7360.000000   1654376   1655367   1656402   1657512   1658712  
  7350.000000   1660017   1661441   1663008   1664725   1666594  
  7340.000000   1668592   1670693   1672857   1675056   1677258  
  7330.000000   1679431   1681534   1683508   1685295   1686841  
  7320.000000   1688129   1689176   1690042   1690806   1691550  
  7310.000000   1692342   1693218   1694196   1695276   1696472  
  7300.000000   1697793   1699257   1700851   1702537   1704234  
  7290.000000   1705843   1707273   1708473   1709454   1710274  
  7280.000000   1711023   1711778   1712589   1713456   1714344  
  7270.000000   1715207   1716019   1716789   1717564   1718410  
  7260.000000   1719385   1720510   1721771   1723109   1724458  
  7250.000000   1725751   1726960   1728081   1729163   1730263  
  7240.000000   1731461   1732818   1734383   1736162   1738144  
  7230.000000   1740272   1742490   1744724   1746933   1749087  
  7220.000000   1751208   1753321   1755480   1757715   1760056  
  7210.000000   1762496   1765035   1767657   1770373   1773194  
  7200.000000   1776147   1779243   1782480   1785820   1789224  
  7190.000000   1792639   1796044   1799431   1802834   1806275  
  7180.000000   1809786   1813348   1816932   1820469   1823915  
  7170.000000   1827232   1830446   1833613   1836835   1840202  
  7160.000000   1843802   1847668   1851813   1856205   1860815  
  7150.000000   1865592   1870504   1875501   1880553   1885610  
  7140.000000   1890652   1895649   1900622   1905587   1910602  
  7130.000000   1915709   1920964   1926382   1931978   1937725  
  7120.000000   1943603   1949571   1955608   1961686   1967800  
  7110.000000   1973931   1980075   1986208   1992327   1998416  
  7100.000000   2004497   2010590   2016750   2023022   2029451  
  7090.000000   2036049   2042806   2049671   2056584   2063471  
  7080.000000   2070286   2076999   2083622   2090188   2096750  
  7070.000000   2103351   2110026   2116773   2123574   2130387  
  7060.000000   2137170   2143890   2150537   2157123   2163677  
  7050.000000   2170238   2176831   2183469   2190128   2196771  
  7040.000000   2203341   2209789   2216081   2222211   2228193  
  7030.000000   2234061   2239845   2245576   2251267   2256933  
  7020.000000   2262576   2268213   2273856   2279526   2285223  
  7010.000000   2290943   2296649   2302304   2307856   2313273  
  7000.000000   2318531   2323635   2328595   2333441   2338187  
  6990.000000   2342858   2347457   2351999   2356474   2360884  
  6980.000000   2365205   2369423   2373499   2377413   2381135  
  6970.000000   2384667   2388004   2391173   2394191   2397103  
  6960.000000   2399940   2402764   2405622   2408577   2411646  
  6950.000000   2414824   2418039   2421190   2424144   2426800  
  6940.000000   2429097   2431062   2432777   2434379   2435993  
  6930.000000   2437725   2439614   2441657   2443801   2445989  
  6920.000000   2448148   2450220   2452131   2453820   2455228  
  6910.000000   2456335   2457167   2457817   2458421   2459133  
  6900.000000   2460070   2461281   2462722   2464289   2465844  
  6890.000000   2467282   2468543   2469643   2470631   2471569  
  6880.000000   2472487   2473384   2474230   2475000   2475686  
  6870.000000   2476313   2476928   2477574   2478271   2479012  
  6860.000000   2479760   2480483   2481162   2481801   2482417  
  6850.000000   2483032   2483646   2484244   2484800   2485301  
  6840.000000   2485755   2486199   2486678   2487229   2487855  
  6830.000000   2488525   2489178   2489751   2490196   2490502  
  6820.000000   2490683   2490779   2490827   2490870   2490933  
  6810.000000   2491048   2491233   2491510   2491875   2492308  
  6800.000000   2492749   2493131   2493382   2493458   2493348  
  6790.000000   2493078   2492688   2492218   2491690   2491113  
  6780.000000   2490493   2489856   2489246   2488724   2488332  
  6770.000000   2488080   2487914   2487748   2487477   2487029  
  6760.000000   2486386   2485589   2484715   2483842   2483010  
  6750.000000   2482209   2481396   2480526   2479578   2478579  
  6740.000000   2477584   2476658   2475838   2475126   2474478  
  6730.000000   2473843   2473177   2472469   2471733   2470995  
  6720.000000   2470265   2469532   2468757   2467906   2466965  
  6710.000000   2465958   2464941   2463980   2463120   2462373  
  6700.000000   2461703   2461053   2460361   2459586   2458712  
  6690.000000   2457749   2456712   2455620   2454484   2453319  
  6680.000000   2452144   2450990   2449882   2448836   2447835  
  6670.000000   2446840   2445796   2444661   2443421   2442105  
  6660.000000   2440768   2439470   2438244   2437087   2435951  
  6650.000000   2434777   2433512   2432138   2430667   2429137  
  6640.000000   2427589   2426050   2424528   2423024   2421535  
  6630.000000   2420070   2418641   2417259   2415912   2414570  
  6620.000000   2413186   2411724   2410171   2408559   2406945  
  6610.000000   2405395   2403952   2402615   2401334   2400038  
  6600.000000   2398652   2397143   2395515   2393817   2392108  
  6590.000000   2390439   2388830   2387272   2385735   2384185  
  6580.000000   2382602   2380980   2379327   2377660   2375997  
  6570.000000   2374354   2372752   2371215   2369764   2368412  
  6560.000000   2367152   2365955   2364775   2363558   2362270  
  6550.000000   2360900   2359470   2358021   2356599   2355232  
  6540.000000   2353926   2352662   2351411   2350147   2348861  
  6530.000000   2347558   2346260   2344987   2343753   2342561  
  6520.000000   2341403   2340265   2339134   2338000   2336861  
  6510.000000   2335719   2334586   2333472   2332392   2331356  
  6500.000000   2330366   2329411   2328473   2327527   2326561  
  6490.000000   2325574   2324587   2323633   2322746   2321946  
  6480.000000   2321224   2320549   2319873   2319154   2318369  
  6470.000000   2317522   2316638   2315749   2314877   2314023  
  6460.000000   2313169   2312289   2311365   2310396   2309403  
  6450.000000   2308419   2307479   2306610   2305818   2305094  
  6440.000000   2304418   2303762   2303098   2302399   2301643  
  6430.000000   2300816   2299926   2298991   2298057   2297171  
  6420.000000   2296381   2295711   2295155   2294678   2294235  
  6410.000000   2293780   2293292   2292775   2292254   2291757  
  6400.000000   2291302   2290881   2290472   2290043   2289574  
  6390.000000   2289062   2288527   2287998   2287502   2287052  
  6380.000000   2286643   2286258   2285881   2285498   2285107  
  6370.000000   2284708   2284300   2283871   2283406   2282888  
  6360.000000   2282309   2281680   2281023   2280370   2279748  
  6350.000000   2279176   2278654   2278180   2277740   2277328  
  6340.000000   2276932   2276542   2276134   2275682   2275153  
  6330.000000   2274526   2273792   2272966   2272077   2271160  
  6320.000000   2270241   2269327   2268401   2267438   2266402  
  6310.000000   2265277   2264056   2262757   2261408   2260047  
  6300.000000   2258707   2257419   2256197   2255052   2253967  
  6290.000000   2252917   2251859   2250748   2249543   2248227  
  6280.000000   2246802   2245300   2243765   2242245   2240766  
  6270.000000   2239341   2237949   2236564   2235148   2233674  
  6260.000000   2232121   2230485   2228766   2226972   2225114  
  6250.000000   2223211   2221281   2219347   2217425   2215529  
  6240.000000   2213660   2211817   2209993   2208190   2206410  
  6230.000000   2204667   2202964   2201301   2199662   2198028  
  6220.000000   2196375   2194694   2192987   2191267   2189553  
  6210.000000   2187852   2186161   2184462   2182735   2180964  
  6200.000000   2179154   2177327   2175514   2173746   2172041  
  6190.000000   2170399   2168805   2167239   2165683   2164127  
  6180.000000   2162568   2161005   2159435   2157850   2156251  
  6170.000000   2154646   2153060   2151527   2150083   2148749  
  6160.000000   2147521   2146366   2145233   2144070   2142839  
  6150.000000   2141528   2140155   2138754   2137365   2136015  
  6140.000000   2134717   2133465   2132243   2131029   2129809  
  6130.000000   2128569   2127306   2126017   2124711   2123395  
  6120.000000   2122088   2120805   2119567   2118386   2117272  
  6110.000000   2116225   2115244   2114325   2113465   2112654  
  6100.000000   2111882   2111129   2110375   2109599   2108797  
  6090.000000   2107973   2107157   2106375   2105662   2105029  
  6080.000000   2104479   2103991   2103551   2103139   2102759  
  6070.000000   2102416   2102127   2101892   2101712   2101568  
  6060.000000   2101453   2101357   2101300   2101301   2101397  
  6050.000000   2101602   2101925   2102346   2102848   2103406  
  6040.000000   2104022   2104703   2105477   2106358   2107359  
  6030.000000   2108465   2109659   2110910   2112210   2113550  
  6020.000000   2114947   2116401   2117918   2119475   2121050  
  6010.000000   2122606   2124129   2125607   2127061   2128504  
  6000.000000   2129964   2131447   2132964   2134507   2136082  
  5990.000000   2137690   2139348   2141063   2142853   2144722  
  5980.000000   2146678   2148727   2150886   2153165   2155584  
  5970.000000   2158134   2160801   2163534   2166284   2168992  
  5960.000000   2171633   2174198   2176720   2179235   2181797  
  5950.000000   2184431   2187152   2189947   2192805   2195708  
  5940.000000   2198658   2201668   2204762   2207959   2211269  
  5930.000000   2214684   2218175   2221699   2225208   2228653  
  5920.000000   2231999   2235222   2238324   2241316   2244226  
  5910.000000   2247081   2249899   2252687   2255435   2258125  
  5900.000000   2260743   2263290   2265785   2268268   2270782  
  5890.000000   2273372   2276054   2278829   2281666   2284529  
  5880.000000   2287370   2290153   2292847   2295431   2297891  
  5870.000000   2300218   2302414   2304493   2306481   2308415  
  5860.000000   2310332   2312263   2314222   2316215   2318238  
  5850.000000   2320298   2322406   2324592   2326879   2329285  
  5840.000000   2331800   2334393   2337010   2339601   2342123  
  5830.000000   2344558   2346907   2349182   2351396   2353554  
  5820.000000   2355653   2357691   2359670   2361609   2363528  
  5810.000000   2365457   2367397   2369348   2371274   2373158  
  5800.000000   2374966   2376710   2378391   2380050   2381688  
  5790.000000   2383316   2384889   2386364   2387653   2388687  
  5780.000000   2389376   2389662   2389485   2388830   2387697  
  5770.000000   2386145   2384255   2382155   2379964   2377803  
  5760.000000   2375745   2373836   2372071   2370445   2368939  
  5750.000000   2367558   2366313   2365223   2364295   2363519  
  5740.000000   2362870   2362311   2361823   2361385   2361010  
  5730.000000   2360695   2360450   2360250   2360073   2359877  
  5720.000000   2359644   2359366   2359068   2358784   2358557  
  5710.000000   2358410   2358357   2358390   2358494   2358656  
  5700.000000   2358865   2359115   2359394   2359686   2359966  
  5690.000000   2360217   2360424   2360594   2360743   2360898  
  5680.000000   2361068   2361254   2361423   2361536   2361535  
  5670.000000   2361375   2361016   2360443   2359642   2358623  
  5660.000000   2357400   2356008   2354490   2352906   2351314  
  5650.000000   2349766   2348285   2346878   2345520   2344190  
  5640.000000   2342863   2341543   2340243   2338992   2337811  
  5630.000000   2336707   2335670   2334674   2333694   2332710  
  5620.000000   2331719   2330726   2329746   2328786   2327856  
  5610.000000   2326953   2326079   2325234   2324421   2323643  
  5600.000000   2322892   2322156   2321415   2320650   2319854  
  5590.000000   2319029   2318190   2317352   2316523   2315695  
  5580.000000   2314848   2313959   2313007   2311990   2310919  
  5570.000000   2309815   2308693   2307564   2306419   2305247  
  5560.000000   2304035   2302783   2301503   2300221   2298962  
  5550.000000   2297747   2296577   2295448   2294342   2293241  
  5540.000000   2292133   2291011   2289874   2288724   2287562  
  5530.000000   2286390   2285209   2284023   2282835   2281648  
  5520.000000   2280465   2279287   2278116   2276958   2275817  
  5510.000000   2274699   2273602   2272516   2271421   2270295  
  5500.000000   2269120   2267899   2266647   2265401   2264195  
  5490.000000   2263055   2261975   2260930   2259872   2258759  
  5480.000000   2257556   2256258   2254873   2253429   2251943  
  5470.000000   2250432   2248893   2247320   2245704   2244043  
  5460.000000   2242337   2240592   2238807   2236984   2235121  
  5450.000000   2233228   2231324   2229437   2227594   2225813  
  5440.000000   2224095   2222426   2220789   2219172   2217585  
  5430.000000   2216044   2214577   2213188   2211873   2210598  
  5420.000000   2209337   2208062   2206790   2205552   2204410  
  5410.000000   2203407   2202577   2201903   2201369   2200931  
  5400.000000   2200584   2200322   2200181   2200170   2200313  
  5390.000000   2200584   2200969   2201430   2201974   2202607  
  5380.000000   2203388   2204348   2205534   2206932   2208538  
  5370.000000   2210294   2212190   2214184   2216307   2218546  
  5360.000000   2220949   2223499   2226242   2229158   2232313  
  5350.000000   2235718   2239469   2243581   2248136   2253104  
  5340.000000   2258525   2264338   2270584   2277218   2284305  
  5330.000000   2291806   2299780   2308165   2317008   2326250  
  5320.000000   2335974   2346167   2356964   2368367   2380502  
  5310.000000   2393324   2406900   2421134   2436074   2451641  
  5300.000000   2467922   2484894   2502692   2521320   2540909  
  5290.000000   2561427   2582931   2605299   2628486   2652307  
  5280.000000   2676702   2701549   2726893   2752741   2779219  
  5270.000000   2806357   2834184   2862576   2891368   2920328  
  5260.000000   2949265   2978073   3006730   3035304   3063837  
  5250.000000   3092356   3120738   3148839   3176392   3203244  
  5240.000000   3229217   3254350   3278641   3302266   3325257  
  5230.000000   3347750   3369669   3391027   3411648   3431506  
  5220.000000   3450448   3468534   3485717   3502158   3517877  
  5210.000000   3533043   3547619   3561669   3575042   3587719  
  5200.000000   3599527   3610501   3620569   3629871   3638403  
  5190.000000   3646310   3653549   3660194   3666149   3671462  
  5180.000000   3676052   3680008   3683288   3685992   3688068  
  5170.000000   3689582   3690463   3690768   3690452   3689603  
  5160.000000   3688208   3686361   3684039   3681311   3678140  
  5150.000000   3674590   3670641   3666370   3661770   3656900  
  5140.000000   3651730   3646291   3640547   3634544   3628285  
  5130.000000   3621848   3615262   3608595   3601845   3595034  
  5120.000000   3588132   3581145   3574061   3566912   3559713  
  5110.000000   3552501   3545278   3538054   3530808   3523536  
  5100.000000   3516224   3508885   3501529   3494177   3486836  
  5090.000000   3479518   3472217   3464942   3457695   3450493  
  5080.000000   3443344   3436264   3429244   3422277   3415334  
  5070.000000   3408397   3401440   3394455   3387432   3380372  
  5060.000000   3373269   3366122   3358917   3351653   3344322  
  5050.000000   3336932   3329486   3321998   3314476   3306932  
  5040.000000   3299373   3291814   3284265   3276742   3269261  
  5030.000000   3261831   3254463   3247158   3239924   3232763  
  5020.000000   3225689   3218708   3211839   3205079   3198441  
  5010.000000   3191910   3185490   3179165   3172950   3166840  
  5000.000000   3160863   3155019   3149343   3143831   3138515  
  4990.000000   3133391   3128497   3123831   3119432   3115289  
  4980.000000   3111429   3107819   3104475   3101358   3098495  
  4970.000000   3095864   3093515   3091440   3089692   3088252  
  4960.000000   3087155   3086366   3085915   3085769   3085970  
  4950.000000   3086497   3087396   3088639   3090255   3092195  
  4940.000000   3094476   3097047   3099934   3103102   3106586  
  4930.000000   3110355   3114441   3118805   3123473   3128410  
  4920.000000   3133651   3139173   3145016   3151158   3157626  
  4910.000000   3164384   3171436   3178737   3186284   3194036  
  4900.000000   3201986   3210098   3218362   3226744   3235227  
  4890.000000   3243784   3252394   3261032   3269665   3278258  
  4880.000000   3286760   3295130   3303309   3311270   3318967  
  4870.000000   3326397   3333527   3340366   3346885   3353096  
  4860.000000   3358969   3364522   3369737   3374643   3379233  
  4850.000000   3383548   3387588   3391398   3394983   3398392  
  4840.000000   3401633   3404751   3407749   3410662   3413486  
  4830.000000   3416243   3418924   3421544   3424094   3426585  
  4820.000000   3429008   3431373   3433674   3435923   3438119  
  4810.000000   3440277   3442394   3444477   3446515   3448504  
  4800.000000   3450430   3452291   3454083   3455817   3457501  
  4790.000000   3459157   3460791   3462421   3464049   3465688  
  4780.000000   3467337   3469005   3470681   3472361   3474014  
  4770.000000   3475613   3477116   3478496   3479725   3480807  
  4760.000000   3481739   3482549   3483243   3483839   3484323  
  4750.000000   3484693   3484920   3485000   3484913   3484673  
  4740.000000   3484280   3483763   3483130   3482408   3481602  
  4730.000000   3480731   3479793   3478800   3477744   3476630  
  4720.000000   3475447   3474192   3472861   3471457   3469990  
  4710.000000   3468482   3466959   3465455   3464002   3462628  
  4700.000000   3461358   3460204   3459175   3458268   3457481  
  4690.000000   3456802   3456224   3455732   3455318   3454968  
  4680.000000   3454672   3454408   3454161   3453898   3453601  
  4670.000000   3453237   3452802   3452286   3451714   3451106  
  4660.000000   3450511   3449962   3449508   3449175   3448996  
  4650.000000   3448982   3449151   3449504   3450050   3450783  
  4640.000000   3451697   3452773   3453995   3455334   3456768  
  4630.000000   3458268   3459813   3461378   3462941   3464475  
  4620.000000   3465953   3467348   3468633   3469786   3470791  
  4610.000000   3471643   3472343   3472907   3473348   3473698  
  4600.000000   3473971   3474194   3474367   3474501   3474577  
  4590.000000   3474593   3474524   3474369   3474112   3473762  
  4580.000000   3473311   3472772   3472137   3471416   3470600  
  4570.000000   3469698   3468709   3467649   3466524   3465351  
  4560.000000   3464134   3462881   3461586   3460249   3458862  
  4550.000000   3457428   3455952   3454448   3452933   3451424  
  4540.000000   3449944   3448503   3447121   3445795   3444539  
  4530.000000   3443339   3442206   3441125   3440120   3439187  
  4520.000000   3438373   3437688   3437194   3436903   3436872  
  4510.000000   3437096   3437626   3438442   3439603   3441092  
  4500.000000   3442982   3445260   3448006   3451199   3454916  
  4490.000000   3459131   3463921   3469266   3475248   3481849  
  4480.000000   3489142   3497093   3505747   3515041   3524990  
  4470.000000   3535507   3546581   3558108   3570064   3582343  
  4460.000000   3594918   3607702   3620679   3633785   3647017  
  4450.000000   3660329   3673716   3687141   3700596   3714057  
  4440.000000   3727516   3740969   3754408   3767843   3781259  
  4430.000000   3794668   3808032   3821354   3834561   3847637  
  4420.000000   3860475   3873038   3885201   3896922   3908082  
  4410.000000   3918651   3928521   3937680   3946039   3953609  
  4400.000000   3960340   3966290   3971467   3975987   3979909  
  4390.000000   3983380   3986475   3989323   3991977   3994527  
  4380.000000   3996996   3999440   4001873   4004342   4006874  
  4370.000000   4009524   4012338   4015374   4018684   4022313  
  4360.000000   4026292   4030636   4035331   4040355   4045638  
  4350.000000   4051127   4056716   4062356   4067955   4073511  
  4340.000000   4078986   4084408   4089726   4094879   4099659  
  4330.000000   4103802   4106920   4108648   4108662   4106833  
  4320.000000   4103230   4098192   4092208   4085898   4079812  
  4310.000000   4074417   4069947   4066488   4063930   4062116  
  4300.000000   4060836   4059937   4059299   4058858   4058581  
  4290.000000   4058434   4058408   4058465   4058614   4058839  
  4280.000000   4059169   4059615   4060195   4060919   4061778  
  4270.000000   4062772   4063871   4065054   4066239   4067317  
  4260.000000   4068105   4068389   4067932   4066549   4064137  
  4250.000000   4060729   4056484   4051681   4046639   4041692  
  4240.000000   4037089   4033012   4029511   4026574   4024102  
  4230.000000   4021992   4020116   4018366   4016650   4014890  
  4220.000000   4013044   4011079   4009021   4006892   4004778  
  4210.000000   4002737   4000865   3999206   3997816   3996691  
  4200.000000   3995840   3995224   3994828   3994602   3994533  
  4190.000000   3994573   3994723   3994946   3995269   3995676  
  4180.000000   3996221   3996905   3997799   3998912   4000320  
  4170.000000   4002036   4004142   4006648   4009632   4013086  
  4160.000000   4017062   4021520   4026485   4031896   4037775  
  4150.000000   4044064   4050797   4057919   4065468   4073388  
  4140.000000   4081717   4090407   4099509   4108992   4118919  
  4130.000000   4129263   4140069   4151292   4162954   4174999  
  4120.000000   4187450   4200270   4213503   4227138   4241221  
  4110.000000   4255736   4270700   4286064   4301806   4317846  
  4100.000000   4334143   4350619   4367240   4383956   4400758  
  4090.000000   4417628   4434567   4451567   4468617   4485714  
  4080.000000   4502839   4520003   4537191   4554422   4571663  
  4070.000000   4588904   4606056   4623075   4639841   4656318  
  4060.000000   4672414   4688144   4703446   4718359   4732812  
  4050.000000   4746835   4760345   4773382   4785866   4797853  
  4040.000000   4809253   4820097   4830256   4839740   4848415  
  4030.000000   4856323   4863373   4869645   4875080   4879745  
  4020.000000   4883543   4886532   4888676   4890054   4890612  
  4010.000000   4890498   4889787   4888521   4886490   4883780  
  4000.000000   4880726  
##END= 
