##TITLE= Sample 034 By ssteindl date Dienstag, November 20 2018
##JCAMP-DX= 4.24
##DATA TYPE= INFRARED SPECTRUM
##ORIGIN= Exported PE Spectrum Data File
##OWNER= Sandra Steindl
##DATE= 18/11/20
##TIME= 15:22:52.00
##SPECTROMETER/DATA SYSTEM= PERKIN-ELMER Frontier FT-IR/NIR IR
##INSTRUMENT PARAMETERS=
  APODIZATION=stark
  DETECTOR=INGAAS
##RESOLUTION= 16.000000
##DELTAX= -2.000000
##XUNITS= 1/CM
##YUNITS= A
##XFACTOR= 1.00
##YFACTOR= 0.00000011920928955078
##FIRSTX= 10000.00
##LASTX= 4000.00
##NPOINTS= 3001
##FIRSTY= 0.198938
##MAXY= 0.612194
##MINY= 0.173320
##XYDATA= (X++(Y..Y))
 10000.000000   1668809   1671615   1674348   1676467   1677004  
  9990.000000   1675114   1670726   1664633   1658163   1652730  
  9980.000000   1649395   1648556   1649769   1652113   1654561  
  9970.000000   1656509   1657817   1658860   1660158   1662136  
  9960.000000   1664864   1668039   1671135   1673543   1674840  
  9950.000000   1674749   1673229   1670316   1666135   1660929  
  9940.000000   1655087   1649251   1644148   1640529   1638863  
  9930.000000   1639274   1641437   1644726   1648312   1651401  
  9920.000000   1653307   1653571   1651983   1648588   1643769  
  9910.000000   1638172   1632722   1628347   1625778   1625217  
  9900.000000   1626226   1627842   1628881   1628441   1626217  
  9890.000000   1622681   1618864   1615968   1614892   1615845  
  9880.000000   1618331   1621271   1623536   1624240   1623146  
  9870.000000   1620537   1617119   1613634   1610681   1608604  
  9860.000000   1607550   1607607   1608850   1611379   1615191  
  9850.000000   1620145   1625854   1631801   1637394   1642134  
  9840.000000   1645696   1647908   1648779   1648319   1646620  
  9830.000000   1643763   1639928   1635417   1630626   1626064  
  9820.000000   1622154   1619312   1617763   1617710   1619164  
  9810.000000   1622061   1626046   1630533   1634660   1637474  
  9800.000000   1638174   1636326   1632063   1626005   1619131  
  9790.000000   1612400   1606529   1601773   1598037   1595026  
  9780.000000   1592504   1590428   1588889   1588024   1587770  
  9770.000000   1587884   1587953   1587659   1586979   1586266  
  9760.000000   1586171   1587296   1589903   1593638   1597605  
  9750.000000   1600614   1601667   1600294   1596803   1592080  
  9740.000000   1587305   1583435   1580931   1579643   1579015  
  9730.000000   1578406   1577416   1576061   1574715   1573954  
  9720.000000   1574230   1575772   1578423   1581806   1585413  
  9710.000000   1588799   1591684   1593936   1595562   1596564  
  9700.000000   1596929   1596553   1595330   1593151   1590046  
  9690.000000   1586167   1581855   1577568   1573798   1571009  
  9680.000000   1569453   1569229   1570162   1571997   1574400  
  9670.000000   1577137   1580056   1583086   1586138   1588988  
  9660.000000   1591292   1592572   1592451   1590694   1587428  
  9650.000000   1583049   1578196   1573542   1569633   1566805  
  9640.000000   1565128   1564567   1564979   1566297   1568390  
  9630.000000   1571123   1574178   1577155   1579593   1581115  
  9620.000000   1581575   1581015   1579704   1577873   1575686  
  9610.000000   1573072   1569847   1565823   1561006   1555734  
  9600.000000   1550649   1546608   1544369   1544413   1546684  
  9590.000000   1550677   1555490   1560148   1563807   1565961  
  9580.000000   1566531   1565776   1564201   1562321   1560545  
  9570.000000   1559036   1557723   1556353   1554631   1552368  
  9560.000000   1549581   1546537   1543661   1541389   1539971  
  9550.000000   1539340   1539113   1538700   1537558   1535375  
  9540.000000   1532241   1528624   1525244   1522860   1522048  
  9530.000000   1523051   1525746   1529688   1534269   1538807  
  9520.000000   1542684   1545378   1546560   1546125   1544274  
  9510.000000   1541477   1538434   1535865   1534378   1534233  
  9500.000000   1535324   1537184   1539167   1540678   1541312  
  9490.000000   1541028   1540048   1538840   1537904   1537700  
  9480.000000   1538531   1540512   1543552   1547338   1551354  
  9470.000000   1554926   1557312   1557898   1556368   1552896  
  9460.000000   1548144   1543141   1538977   1536460   1535838  
  9450.000000   1536746   1538312   1539510   1539453   1537732  
  9440.000000   1534481   1530357   1526269   1523078   1521316  
  9430.000000   1521042   1521880   1523158   1524137   1524200  
  9420.000000   1523051   1520785   1517898   1515115   1513164  
  9410.000000   1512493   1513131   1514624   1516239   1517155  
  9400.000000   1516835   1515181   1512645   1510057   1508320  
  9390.000000   1508072   1509444   1512073   1515281   1518375  
  9380.000000   1520901   1522756   1524151   1525435   1526866  
  9370.000000   1528468   1529998   1531074   1531370   1530755  
  9360.000000   1529353   1527476   1525489   1523722   1522322  
  9350.000000   1521349   1520704   1520315   1520061   1519860  
  9340.000000   1519606   1519197   1518544   1517573   1516238  
  9330.000000   1514463   1512162   1509205   1505510   1501067  
  9320.000000   1496079   1490983   1486448   1483218   1481866  
  9310.000000   1482577   1485029   1488459   1491937   1494619  
  9300.000000   1496075   1496323   1495816   1495137   1494774  
  9290.000000   1494909   1495438   1496109   1496744   1497411  
  9280.000000   1498429   1500225   1503054   1506818   1510955  
  9270.000000   1514625   1516947   1517306   1515562   1512076  
  9260.000000   1507613   1503040   1499075   1496117   1494207  
  9250.000000   1493143   1492569   1492185   1491795   1491390  
  9240.000000   1491038   1490864   1490935   1491257   1491744  
  9230.000000   1492224   1492506   1492377   1491729   1490529  
  9220.000000   1488892   1487017   1485175   1483608   1482489  
  9210.000000   1481859   1481654   1481733   1481948   1482185  
  9200.000000   1482397   1482603   1482857   1483222   1483750  
  9190.000000   1484477   1485430   1486609   1487982   1489447  
  9180.000000   1490853   1492005   1492726   1492906   1492566  
  9170.000000   1491849   1491006   1490294   1489886   1489819  
  9160.000000   1489970   1490158   1490192   1490010   1489665  
  9150.000000   1489368   1489355   1489844   1490883   1492342  
  9140.000000   1493890   1495097   1495554   1494958   1493241  
  9130.000000   1490536   1487215   1483710   1480431   1477634  
  9120.000000   1475373   1473565   1472031   1470670   1469515  
  9110.000000   1468833   1469019   1470434   1473197   1477048  
  9100.000000   1481371   1485253   1487763   1488179   1486305  
  9090.000000   1482482   1477552   1472598   1468699   1466638  
  9080.000000   1466718   1468729   1472037   1475819   1479233  
  9070.000000   1481669   1482788   1482642   1481557   1480074  
  9060.000000   1478750   1478036   1478155   1479026   1480303  
  9050.000000   1481453   1481940   1481353   1479527   1476572  
  9040.000000   1472833   1468772   1464851   1461407   1458627  
  9030.000000   1456541   1455094   1454221   1453916   1454226  
  9020.000000   1455210   1456905   1459266   1462131   1465219  
  9010.000000   1468184   1470722   1472612   1473794   1474354  
  9000.000000   1474521   1474569   1474725   1475104   1475675  
  8990.000000   1476289   1476737   1476842   1476509   1475761  
  8980.000000   1474673   1473360   1471910   1470390   1468853  
  8970.000000   1467362   1466037   1465013   1464425   1464313  
  8960.000000   1464599   1465090   1465552   1465815   1465875  
  8950.000000   1465926   1466307   1467357   1469271   1471991  
  8940.000000   1475205   1478437   1481196   1483138   1484161  
  8930.000000   1484407   1484163   1483743   1483379   1483161  
  8920.000000   1483051   1482933   1482681   1482185   1481378  
  8910.000000   1480226   1478741   1476994   1475109   1473298  
  8900.000000   1471801   1470859   1470598   1471031   1472042  
  8890.000000   1473456   1475098   1476853   1478683   1480561  
  8880.000000   1482398   1483976   1484994   1485128   1484201  
  8870.000000   1482268   1479684   1477004   1474817   1473544  
  8860.000000   1473299   1473885   1474883   1475848   1476474  
  8850.000000   1476675   1476575   1476381   1476291   1476362  
  8840.000000   1476549   1476723   1476831   1476896   1477074  
  8830.000000   1477550   1478474   1479901   1481751   1483906  
  8820.000000   1486236   1488697   1491294   1494059   1496968  
  8810.000000   1499879   1502543   1504617   1505799   1505886  
  8800.000000   1504880   1502948   1500403   1497614   1494948  
  8790.000000   1492722   1491146   1490356   1490378   1491177  
  8780.000000   1492633   1494587   1496860   1499273   1501675  
  8770.000000   1503927   1505921   1507547   1508737   1509458  
  8760.000000   1509780   1509873   1510016   1510522   1511660  
  8750.000000   1513550   1516102   1519010   1521828   1524093  
  8740.000000   1525467   1525820   1525261   1524082   1522674  
  8730.000000   1521427   1520649   1520522   1521105   1522354  
  8720.000000   1524154   1526335   1528694   1531013   1533081  
  8710.000000   1534746   1535939   1536709   1537218   1537698  
  8700.000000   1538413   1539566   1541268   1543480   1546041  
  8690.000000   1548688   1551126   1553092   1554424   1555101  
  8680.000000   1555255   1555129   1555006   1555144   1555710  
  8670.000000   1556762   1558257   1560087   1562125   1564257  
  8660.000000   1566381   1568394   1570173   1571574   1572485  
  8650.000000   1572871   1572856   1572698   1572761   1573382  
  8640.000000   1574764   1576884   1579482   1582169   1584563  
  8630.000000   1586465   1587918   1589199   1590674   1592644  
  8620.000000   1595184   1598108   1601025   1603484   1605151  
  8610.000000   1605921   1605964   1605635   1605341   1605403  
  8600.000000   1605951   1606923   1608103   1609234   1610107  
  8590.000000   1610622   1610817   1610831   1610865   1611117  
  8580.000000   1611735   1612775   1614195   1615856   1617578  
  8570.000000   1619186   1620597   1621845   1623081   1624522  
  8560.000000   1626355   1628666   1631383   1634287   1637088  
  8550.000000   1639512   1641416   1642797   1643787   1644555  
  8540.000000   1645240   1645881   1646422   1646774   1646886  
  8530.000000   1646824   1646759   1646953   1647645   1648991  
  8520.000000   1650970   1653426   1656093   1658686   1660953  
  8510.000000   1662728   1663960   1664675   1664970   1664962  
  8500.000000   1664798   1664610   1664506   1664546   1664740  
  8490.000000   1665056   1665443   1665873   1666363   1666995  
  8480.000000   1667879   1669115   1670732   1672653   1674694  
  8470.000000   1676619   1678219   1679388   1680167   1680730  
  8460.000000   1681327   1682192   1683457   1685106   1686968  
  8450.000000   1688787   1690291   1691297   1691741   1691716  
  8440.000000   1691409   1691065   1690883   1690976   1691327  
  8430.000000   1691816   1692265   1692507   1692443   1692076  
  8420.000000   1691512   1690912   1690440   1690205   1690230  
  8410.000000   1690466   1690830   1691251   1691707   1692243  
  8400.000000   1692944   1693902   1695160   1696685   1698360  
  8390.000000   1700011   1701457   1702534   1703148   1703274  
  8380.000000   1702978   1702385   1701670   1701012   1700573  
  8370.000000   1700445   1700630   1701038   1701517   1701910  
  8360.000000   1702109   1702117   1702040   1702082   1702438  
  8350.000000   1703246   1704500   1706080   1707769   1709348  
  8340.000000   1710655   1711622   1712270   1712654   1712807  
  8330.000000   1712693   1712228   1711320   1709939   1708158  
  8320.000000   1706152   1704163   1702415   1701076   1700196  
  8310.000000   1699747   1699638   1699787   1700127   1700612  
  8300.000000   1701180   1701728   1702115   1702192   1701868  
  8290.000000   1701148   1700163   1699122   1698259   1697741  
  8280.000000   1697621   1697820   1698174   1698498   1698647  
  8270.000000   1698557   1698229   1697704   1697026   1696238  
  8260.000000   1695380   1694522   1693768   1693255   1693093  
  8250.000000   1693333   1693894   1694608   1695237   1695584  
  8240.000000   1695539   1695114   1694414   1693563   1692627  
  8230.000000   1691572   1690274   1688597   1686487   1684035  
  8220.000000   1681482   1679155   1677344   1676221   1675746  
  8210.000000   1675718   1675831   1675818   1675527   1674969  
  8200.000000   1674271   1673599   1673068   1672686   1672363  
  8190.000000   1671948   1671306   1670368   1669156   1667750  
  8180.000000   1666257   1664760   1663301   1661893   1660536  
  8170.000000   1659243   1658034   1656930   1655916   1654959  
  8160.000000   1653992   1652983   1651938   1650941   1650113  
  8150.000000   1649577   1649382   1649459   1649611   1649560  
  8140.000000   1649039   1647871   1646043   1643698   1641104  
  8130.000000   1638552   1636286   1634437   1633007   1631910  
  8120.000000   1631013   1630208   1629439   1628722   1628111  
  8110.000000   1627674   1627441   1627383   1627407   1627364  
  8100.000000   1627100   1626480   1625449   1624042   1622396  
  8090.000000   1620709   1619192   1618008   1617221   1616788  
  8080.000000   1616571   1616399   1616110   1615613   1614884  
  8070.000000   1613966   1612923   1611807   1610642   1609419  
  8060.000000   1608133   1606785   1605422   1604096   1602865  
  8050.000000   1601741   1600691   1599651   1598557   1597396  
  8040.000000   1596225   1595173   1594399   1594041   1594156  
  8030.000000   1594690   1595486   1596316   1596944   1597175  
  8020.000000   1596904   1596121   1594916   1593438   1591875  
  8010.000000   1590402   1589159   1588218   1587578   1587168  
  8000.000000   1586881   1586608   1586270   1585852   1585386  
  7990.000000   1584938   1584569   1584308   1584141   1584021  
  7980.000000   1583900   1583756   1583604   1583485   1583439  
  7970.000000   1583469   1583534   1583551   1583438   1583135  
  7960.000000   1582641   1581996   1581263   1580488   1579687  
  7950.000000   1578849   1577973   1577096   1576309   1575740  
  7940.000000   1575499   1575631   1576064   1576629   1577105  
  7930.000000   1577301   1577133   1576643   1575990   1575352  
  7920.000000   1574868   1574550   1574302   1573948   1573331  
  7910.000000   1572384   1571173   1569889   1568774   1568071  
  7900.000000   1567925   1568383   1569372   1570749   1572326  
  7890.000000   1573909   1575321   1576405   1577052   1577189  
  7880.000000   1576819   1576002   1574870   1573586   1572324  
  7870.000000   1571224   1570381   1569841   1569601   1569646  
  7860.000000   1569931   1570417   1571034   1571706   1572341  
  7850.000000   1572857   1573194   1573328   1573272   1573058  
  7840.000000   1572722   1572290   1571777   1571199   1570584  
  7830.000000   1569980   1569438   1568999   1568657   1568358  
  7820.000000   1568006   1567498   1566766   1565814   1564725  
  7810.000000   1563637   1562704   1562045   1561715   1561699  
  7800.000000   1561929   1562321   1562789   1563279   1563747  
  7790.000000   1564170   1564516   1564758   1564871   1564844  
  7780.000000   1564681   1564384   1563954   1563361   1562562  
  7770.000000   1561509   1560187   1558627   1556927   1555227  
  7760.000000   1553673   1552381   1551401   1550717   1550265  
  7750.000000   1549972   1549785   1549686   1549688   1549805  
  7740.000000   1550032   1550324   1550612   1550814   1550883  
  7730.000000   1550808   1550636   1550432   1550262   1550158  
  7720.000000   1550103   1550047   1549921   1549681   1549316  
  7710.000000   1548864   1548381   1547926   1547527   1547168  
  7700.000000   1546795   1546327   1545696   1544866   1543850  
  7690.000000   1542712   1541543   1540443   1539490   1538732  
  7680.000000   1538181   1537822   1537632   1537580   1537635  
  7670.000000   1537756   1537889   1537964   1537912   1537682  
  7660.000000   1537271   1536726   1536144   1535631   1535279  
  7650.000000   1535115   1535102   1535146   1535142   1535011  
  7640.000000   1534739   1534377   1534023   1533782   1533724  
  7630.000000   1533869   1534186   1534617   1535119   1535666  
  7620.000000   1536261   1536903   1537575   1538214   1538738  
  7610.000000   1539057   1539131   1538979   1538693   1538405  
  7600.000000   1538244   1538299   1538597   1539113   1539791  
  7590.000000   1540575   1541424   1542316   1543225   1544103  
  7580.000000   1544878   1545461   1545787   1545834   1545660  
  7570.000000   1545373   1545124   1545037   1545184   1545560  
  7560.000000   1546101   1546718   1547337   1547929   1548515  
  7550.000000   1549156   1549924   1550866   1551996   1553277  
  7540.000000   1554647   1556012   1557290   1558395   1559278  
  7530.000000   1559917   1560351   1560663   1560988   1561473  
  7520.000000   1562253   1563405   1564930   1566739   1568680  
  7510.000000   1570583   1572311   1573788   1575024   1576079  
  7500.000000   1577048   1578005   1578996   1580018   1581054  
  7490.000000   1582090   1583148   1584288   1585596   1587150  
  7480.000000   1588987   1591080   1593337   1595620   1597791  
  7470.000000   1599738   1601422   1602875   1604195   1605505  
  7460.000000   1606933   1608566   1610444   1612545   1614809  
  7450.000000   1617139   1619441   1621627   1623636   1625440  
  7440.000000   1627057   1628545   1629998   1631526   1633242  
  7430.000000   1635224   1637507   1640056   1642778   1645542  
  7420.000000   1648211   1650676   1652886   1654856   1656663  
  7410.000000   1658417   1660234   1662199   1664353   1666682  
  7400.000000   1669133   1671627   1674088   1676460   1678717  
  7390.000000   1680871   1682953   1685011   1687085   1689201  
  7380.000000   1691358   1693535   1695697   1697807   1699836  
  7370.000000   1701773   1703623   1705402   1707132   1708831  
  7360.000000   1710516   1712199   1713893   1715616   1717391  
  7350.000000   1719238   1721173   1723198   1725296   1727442  
  7340.000000   1729604   1731756   1733877   1735957   1737988  
  7330.000000   1739964   1741877   1743723   1745503   1747231  
  7320.000000   1748923   1750601   1752275   1753941   1755578  
  7310.000000   1757158   1758655   1760061   1761390   1762684  
  7300.000000   1763991   1765363   1766831   1768408   1770072  
  7290.000000   1771783   1773479   1775098   1776575   1777863  
  7280.000000   1778940   1779814   1780533   1781172   1781821  
  7270.000000   1782560   1783440   1784464   1785596   1786771  
  7260.000000   1787930   1789042   1790118   1791205   1792374  
  7250.000000   1793683   1795169   1796816   1798590   1800421  
  7240.000000   1802261   1804063   1805829   1807560   1809294  
  7230.000000   1811048   1812863   1814759   1816777   1818941  
  7220.000000   1821292   1823841   1826605   1829562   1832692  
  7210.000000   1835949   1839300   1842698   1846117   1849527  
  7200.000000   1852927   1856317   1859740   1863243   1866902  
  7190.000000   1870766   1874873   1879189   1883647   1888117  
  7180.000000   1892482   1896635   1900555   1904274   1907904  
  7170.000000   1911571   1915413   1919509   1923905   1928570  
  7160.000000   1933453   1938467   1943550   1948642   1953730  
  7150.000000   1958811   1963926   1969115   1974445   1979958  
  7140.000000   1985690   1991625   1997738   2003966   2010268  
  7130.000000   2016604   2022978   2029393   2035877   2042419  
  7120.000000   2049008   2055589   2062133   2068610   2075049  
  7110.000000   2081495   2088026   2094693   2101534   2108530  
  7100.000000   2115657   2122874   2130172   2137557   2145060  
  7090.000000   2152695   2160456   2168295   2176150   2183954  
  7080.000000   2191681   2199331   2206951   2214576   2222227  
  7070.000000   2229866   2237420   2244797   2251930   2258803  
  7060.000000   2265467   2272022   2278593   2285295   2292202  
  7050.000000   2299346   2306708   2314241   2321872   2329530  
  7040.000000   2337139   2344646   2352014   2359242   2366346  
  7030.000000   2373366   2380326   2387235   2394060   2400754  
  7020.000000   2407264   2413582   2419735   2425814   2431905  
  7010.000000   2438090   2444364   2450668   2456865   2462829  
  7000.000000   2468458   2473752   2478773   2483656   2488518  
  6990.000000   2493454   2498467   2503510   2508484   2513303  
  6980.000000   2517892   2522231   2526320   2530199   2533892  
  6970.000000   2537454   2540922   2544361   2547819   2551349  
  6960.000000   2554957   2558630   2562294   2565876   2569283  
  6950.000000   2572471   2575415   2578141   2580686   2583108  
  6940.000000   2585447   2587745   2590021   2592297   2594573  
  6930.000000   2596846   2599082   2601250   2603303   2605225  
  6920.000000   2607016   2608722   2610399   2612112   2613892  
  6910.000000   2615741   2617619   2619471   2621239   2622895  
  6900.000000   2624427   2625850   2627176   2628418   2629572  
  6890.000000   2630641   2631631   2632570   2633495   2634449  
  6880.000000   2635450   2636500   2637566   2638610   2639594  
  6870.000000   2640503   2641345   2642147   2642935   2643726  
  6860.000000   2644522   2645316   2646100   2646878   2647664  
  6850.000000   2648475   2649321   2650198   2651083   2651955  
  6840.000000   2652791   2653593   2654375   2655162   2655970  
  6830.000000   2656800   2657630   2658424   2659141   2659753  
  6820.000000   2660247   2660634   2660932   2661180   2661409  
  6810.000000   2661661   2661963   2662343   2662803   2663329  
  6800.000000   2663874   2664383   2664789   2665044   2665119  
  6790.000000   2665018   2664759   2664376   2663890   2663324  
  6780.000000   2662692   2662025   2661363   2660770   2660301  
  6770.000000   2659996   2659847   2659806   2659784   2659684  
  6760.000000   2659418   2658939   2658244   2657369   2656376  
  6750.000000   2655342   2654338   2653433   2652678   2652106  
  6740.000000   2651717   2651483   2651333   2651175   2650909  
  6730.000000   2650456   2649776   2648877   2647811   2646661  
  6720.000000   2645509   2644430   2643471   2642655   2641977  
  6710.000000   2641418   2640936   2640480   2639986   2639403  
  6700.000000   2638689   2637834   2636856   2635800   2634711  
  6690.000000   2633629   2632570   2631528   2630478   2629399  
  6680.000000   2628275   2627103   2625878   2624602   2623260  
  6670.000000   2621847   2620360   2618825   2617285   2615795  
  6660.000000   2614397   2613100   2611865   2610623   2609294  
  6650.000000   2607824   2606201   2604471   2602706   2600990  
  6640.000000   2599376   2597883   2596489   2595152   2593825  
  6630.000000   2592469   2591055   2589557   2587947   2586199  
  6620.000000   2584298   2582258   2580128   2577993   2575944  
  6610.000000   2574060   2572371   2570862   2569470   2568120  
  6600.000000   2566740   2565292   2563764   2562170   2560532  
  6590.000000   2558866   2557187   2555506   2553836   2552193  
  6580.000000   2550589   2549018   2547457   2545866   2544208  
  6570.000000   2542461   2540639   2538781   2536945   2535178  
  6560.000000   2533505   2531918   2530389   2528889   2527408  
  6550.000000   2525957   2524566   2523262   2522053   2520918  
  6540.000000   2519819   2518712   2517569   2516378   2515149  
  6530.000000   2513889   2512597   2511260   2509866   2508414  
  6520.000000   2506933   2505477   2504112   2502890   2501825  
  6510.000000   2500891   2500024   2499154   2498226   2497221  
  6500.000000   2496151   2495043   2493924   2492798   2491653  
  6490.000000   2490470   2489244   2487991   2486746   2485552  
  6480.000000   2484440   2483414   2482452   2481519   2480578  
  6470.000000   2479610   2478610   2477587   2476553   2475507  
  6460.000000   2474449   2473371   2472278   2471182   2470102  
  6450.000000   2469051   2468029   2467020   2466000   2464953  
  6440.000000   2463883   2462815   2461788   2460835   2459968  
  6430.000000   2459166   2458388   2457586   2456730   2455816  
  6420.000000   2454870   2453929   2453027   2452177   2451375  
  6410.000000   2450599   2449838   2449088   2448363   2447682  
  6400.000000   2447060   2446501   2445997   2445541   2445129  
  6390.000000   2444766   2444458   2444203   2443979   2443743  
  6380.000000   2443447   2443046   2442529   2441912   2441245  
  6370.000000   2440581   2439960   2439394   2438866   2438348  
  6360.000000   2437814   2437263   2436712   2436192   2435720  
  6350.000000   2435295   2434887   2434455   2433954   2433363  
  6340.000000   2432680   2431925   2431121   2430290   2429437  
  6330.000000   2428564   2427665   2426744   2425804   2424859  
  6320.000000   2423910   2422955   2421977   2420967   2419915  
  6310.000000   2418835   2417739   2416648   2415562   2414468  
  6300.000000   2413329   2412105   2410761   2409287   2407693  
  6290.000000   2406013   2404283   2402546   2400823   2399137  
  6280.000000   2397495   2395909   2394372   2392885   2391422  
  6270.000000   2389959   2388459   2386896   2385251   2383525  
  6260.000000   2381726   2379871   2377966   2376013   2374003  
  6250.000000   2371934   2369806   2367633   2365433   2363223  
  6240.000000   2361005   2358780   2356536   2354278   2352020  
  6230.000000   2349798   2347647   2345598   2343654   2341789  
  6220.000000   2339954   2338092   2336154   2334110   2331960  
  6210.000000   2329720   2327416   2325078   2322734   2320413  
  6200.000000   2318149   2315978   2313927   2312010   2310215  
  6190.000000   2308506   2306831   2305136   2303387   2301566  
  6180.000000   2299683   2297755   2295805   2293846   2291889  
  6170.000000   2289940   2288017   2286142   2284340   2282624  
  6160.000000   2280990   2279409   2277839   2276234   2274568  
  6150.000000   2272835   2271058   2269270   2267508   2265790  
  6140.000000   2264126   2262507   2260928   2259386   2257885  
  6130.000000   2256429   2255018   2253638   2252269   2250886  
  6120.000000   2249477   2248042   2246605   2245194   2243843  
  6110.000000   2242573   2241397   2240308   2239295   2238337  
  6100.000000   2237416   2236509   2235599   2234666   2233707  
  6090.000000   2232720   2231729   2230757   2229843   2229008  
  6080.000000   2228272   2227631   2227081   2226610   2226221  
  6070.000000   2225909   2225685   2225536   2225450   2225390  
  6060.000000   2225334   2225256   2225170   2225102   2225108  
  6050.000000   2225232   2225519   2225972   2226586   2227329  
  6040.000000   2228182   2229122   2230151   2231266   2232472  
  6030.000000   2233751   2235090   2236459   2237850   2239253  
  6020.000000   2240686   2242162   2243697   2245285   2246917  
  6010.000000   2248561   2250201   2251818   2253418   2255005  
  6000.000000   2256598   2258200   2259820   2261457   2263125  
  5990.000000   2264835   2266620   2268501   2270506   2272636  
  5980.000000   2274892   2277250   2279700   2282228   2284838  
  5970.000000   2287531   2290317   2293183   2296119   2299094  
  5960.000000   2302091   2305086   2308078   2311061   2314044  
  5950.000000   2317017   2319980   2322922   2325853   2328787  
  5940.000000   2331766   2334834   2338037   2341406   2344944  
  5930.000000   2348630   2352417   2356250   2360071   2363827  
  5920.000000   2367481   2371002   2374374   2377587   2380646  
  5910.000000   2383557   2386339   2389014   2391604   2394137  
  5900.000000   2396638   2399138   2401662   2404240   2406886  
  5890.000000   2409608   2412390   2415210   2418034   2420841  
  5880.000000   2423615   2426355   2429064   2431738   2434364  
  5870.000000   2436908   2439333   2441610   2443731   2445720  
  5860.000000   2447629   2449518   2451444   2453443   2455526  
  5850.000000   2457685   2459906   2462182   2464518   2466928  
  5840.000000   2469424   2472007   2474662   2477359   2480063  
  5830.000000   2482743   2485380   2487968   2490507   2493001  
  5820.000000   2495444   2497834   2500156   2502409   2504584  
  5810.000000   2506685   2508702   2510637   2512470   2514205  
  5800.000000   2515825   2517359   2518809   2520219   2521586  
  5790.000000   2522927   2524200   2525373   2526366   2527118  
  5780.000000   2527545   2527591   2527201   2526363   2525083  
  5770.000000   2523424   2521471   2519354   2517198   2515128  
  5760.000000   2513226   2511543   2510076   2508808   2507695  
  5750.000000   2506705   2505810   2504993   2504243   2503545  
  5740.000000   2502892   2502273   2501694   2501159   2500691  
  5730.000000   2500294   2499980   2499730   2499530   2499349  
  5720.000000   2499175   2498999   2498833   2498690   2498586  
  5710.000000   2498523   2498503   2498517   2498564   2498646  
  5700.000000   2498777   2498964   2499214   2499518   2499856  
  5690.000000   2500206   2500546   2500870   2501172   2501464  
  5680.000000   2501740   2502000   2502217   2502370   2502419  
  5670.000000   2502340   2502100   2501680   2501054   2500214  
  5660.000000   2499150   2497887   2496458   2494932   2493376  
  5650.000000   2491863   2490438   2489128   2487926   2486810  
  5640.000000   2485747   2484710   2483672   2482619   2481538  
  5630.000000   2480422   2479274   2478110   2476960   2475863  
  5620.000000   2474857   2473962   2473173   2472459   2471774  
  5610.000000   2471072   2470322   2469516   2468671   2467811  
  5600.000000   2466960   2466128   2465312   2464501   2463687  
  5590.000000   2462869   2462052   2461245   2460442   2459633  
  5580.000000   2458795   2457908   2456963   2455971   2454951  
  5570.000000   2453929   2452914   2451904   2450876   2449807  
  5560.000000   2448678   2447492   2446268   2445035   2443818  
  5550.000000   2442634   2441475   2440330   2439180   2438019  
  5540.000000   2436845   2435669   2434498   2433331   2432163  
  5530.000000   2430982   2429781   2428563   2427337   2426121  
  5520.000000   2424925   2423755   2422607   2421474   2420352  
  5510.000000   2419242   2418143   2417058   2415976   2414881  
  5500.000000   2413750   2412573   2411348   2410097   2408848  
  5490.000000   2407630   2406448   2405290   2404114   2402878  
  5480.000000   2401539   2400083   2398514   2396861   2395151  
  5470.000000   2393415   2391664   2389902   2388123   2386321  
  5460.000000   2384490   2382625   2380718   2378762   2376754  
  5450.000000   2374700   2372622   2370552   2368528   2366577  
  5440.000000   2364708   2362910   2361160   2359434   2357724  
  5430.000000   2356030   2354371   2352752   2351184   2349651  
  5420.000000   2348154   2346685   2345276   2343957   2342783  
  5410.000000   2341772   2340937   2340237   2339642   2339104  
  5400.000000   2338628   2338221   2337940   2337814   2337885  
  5390.000000   2338135   2338555   2339104   2339786   2340604  
  5380.000000   2341611   2342829   2344295   2345974   2347841  
  5370.000000   2349812   2351863   2353943   2356091   2358311  
  5360.000000   2360682   2363219   2365997   2369017   2372360  
  5350.000000   2376034   2380133   2384663   2389701   2395214  
  5340.000000   2401244   2407730   2414720   2422162   2430121  
  5330.000000   2438542   2447478   2456850   2466701   2476961  
  5320.000000   2487726   2498984   2510892   2523463   2536843  
  5310.000000   2550995   2565999   2581755   2598310   2615573  
  5300.000000   2633627   2652433   2672123   2692692   2714269  
  5290.000000   2736817   2760394   2784872   2810201   2836193  
  5280.000000   2862783   2889846   2917429   2945541   2974312  
  5270.000000   3003769   3033929   3064653   3095743   3126946  
  5260.000000   3158050   3188941   3219602   3250118   3280543  
  5250.000000   3310921   3341127   3371015   3400295   3428812  
  5240.000000   3456368   3483012   3508742   3533751   3558070  
  5230.000000   3581840   3604968   3627454   3649100   3669877  
  5220.000000   3689631   3708445   3726292   3743365   3759689  
  5210.000000   3775436   3790546   3805063   3818806   3831754  
  5200.000000   3843739   3854830   3864983   3874371   3883000  
  5190.000000   3891012   3898340   3905033   3910968   3916186  
  5180.000000   3920610   3924349   3927386   3929843   3931689  
  5170.000000   3933004   3933723   3933917   3933545   3932700  
  5160.000000   3931364   3929620   3927425   3924822   3921752  
  5150.000000   3918265   3914337   3910052   3905412   3900490  
  5140.000000   3895261   3889760   3883946   3877859   3871494  
  5130.000000   3864926   3858181   3851326   3844361   3837309  
  5120.000000   3830140   3822865   3815475   3808007   3800481  
  5110.000000   3792941   3785399   3777872   3770348   3762829  
  5100.000000   3755304   3747782   3740266   3732771   3725302  
  5090.000000   3717875   3710497   3703191   3695967   3688842  
  5080.000000   3681804   3674833   3667880   3660898   3653836  
  5070.000000   3646673   3639401   3632047   3624635   3617196  
  5060.000000   3609734   3602249   3594715   3587120   3579448  
  5050.000000   3571707   3563907   3556072   3548211   3540340  
  5040.000000   3532459   3524573   3516686   3508809   3500953  
  5030.000000   3493131   3485351   3477617   3469936   3462312  
  5020.000000   3454763   3447303   3439959   3432740   3425661  
  5010.000000   3418710   3411887   3405166   3398553   3392032  
  5000.000000   3385626   3379332   3373184   3367181   3361362  
  4990.000000   3355728   3350326   3345159   3340278   3335678  
  4980.000000   3331395   3327401   3323714   3320292   3317155  
  4970.000000   3314269   3311670   3309337   3307317   3305588  
  4960.000000   3304199   3303127   3302420   3302060   3302097  
  4950.000000   3302507   3303328   3304512   3306079   3307965  
  4940.000000   3310188   3312695   3315524   3318644   3322103  
  4930.000000   3325874   3330000   3334446   3339251   3344380  
  4920.000000   3349873   3355702   3361898   3368424   3375293  
  4910.000000   3382458   3389919   3397633   3405606   3413804  
  4900.000000   3422229   3430848   3439646   3448580   3457618  
  4890.000000   3466718   3475846   3484963   3494031   3503015  
  4880.000000   3511866   3520554   3529033   3537287   3545278  
  4870.000000   3553005   3560432   3567561   3574355   3580825  
  4860.000000   3586944   3592741   3598208   3603387   3608273  
  4850.000000   3612905   3617269   3621399   3625281   3628955  
  4840.000000   3632421   3635723   3638868   3641894   3644801  
  4830.000000   3647616   3650332   3652972   3655530   3658024  
  4820.000000   3660446   3662808   3665099   3667327   3669485  
  4810.000000   3671585   3673623   3675612   3677550   3679446  
  4800.000000   3681298   3683117   3684911   3686698   3688488  
  4790.000000   3690297   3692121   3693958   3695788   3697599  
  4780.000000   3699370   3701098   3702774   3704404   3705981  
  4770.000000   3707506   3708963   3710345   3711631   3712817  
  4760.000000   3713886   3714839   3715660   3716351   3716890  
  4750.000000   3717282   3717511   3717595   3717535   3717357  
  4740.000000   3717068   3716690   3716215   3715650   3714977  
  4730.000000   3714196   3713296   3712285   3711169   3709969  
  4720.000000   3708701   3707391   3706053   3704710   3703375  
  4710.000000   3702063   3700783   3699545   3698354   3697210  
  4700.000000   3696116   3695068   3694066   3693111   3692207  
  4690.000000   3691360   3690581   3689878   3689262   3688732  
  4680.000000   3688286   3687901   3687558   3687218   3686856  
  4670.000000   3686436   3685955   3685405   3684816   3684212  
  4660.000000   3683642   3683145   3682771   3682546   3682506  
  4650.000000   3682660   3683022   3683584   3684342   3685274  
  4640.000000   3686363   3687580   3688904   3690309   3691778  
  4630.000000   3693294   3694845   3696416   3697991   3699550  
  4620.000000   3701064   3702503   3703827   3705003   3705994  
  4610.000000   3706781   3707346   3707702   3707861   3707863  
  4600.000000   3707737   3707530   3707264   3706969   3706643  
  4590.000000   3706298   3705916   3705497   3705022   3704491  
  4580.000000   3703886   3703213   3702461   3701638   3700744  
  4570.000000   3699790   3698780   3697725   3696623   3695478  
  4560.000000   3694281   3693034   3691730   3690375   3688968  
  4550.000000   3687515   3686017   3684475   3682889   3681263  
  4540.000000   3679611   3677952   3676322   3674749   3673271  
  4530.000000   3671899   3670651   3669512   3668487   3667550  
  4520.000000   3666721   3665984   3665380   3664901   3664602  
  4510.000000   3664476   3664593   3664952   3665645   3666686  
  4500.000000   3668178   3670131   3672640   3675692   3679364  
  4490.000000   3683630   3688564   3694140   3700433   3707408  
  4480.000000   3715119   3723501   3732580   3742269   3752579  
  4470.000000   3763423   3774809   3786656   3798962   3811638  
  4460.000000   3824665   3837954   3851480   3865169   3879004  
  4450.000000   3892931   3906938   3920987   3935066   3949151  
  4440.000000   3963229   3977290   3991312   4005294   4019198  
  4430.000000   4033022   4046711   4060265   4073620   4086778  
  4420.000000   4099661   4112267   4124497   4136331   4147651  
  4410.000000   4158425   4168524   4177919   4186493   4194241  
  4400.000000   4201089   4207079   4212196   4216538   4220147  
  4390.000000   4223165   4225673   4227827   4229718   4231482  
  4380.000000   4233190   4234936   4236757   4238708   4240808  
  4370.000000   4243100   4245612   4248387   4251464   4254879  
  4360.000000   4258656   4262805   4267315   4272161   4277291  
  4350.000000   4282660   4288186   4293826   4299499   4305188  
  4340.000000   4310832   4316420   4321866   4327084   4331870  
  4330.000000   4335986   4339106   4340936   4341222   4339885  
  4320.000000   4337004   4332885   4327954   4322742   4317717  
  4310.000000   4313279   4309628   4306849   4304853   4303518  
  4300.000000   4302667   4302168   4301905   4301810   4301837  
  4290.000000   4301945   4302122   4302342   4302620   4302961  
  4280.000000   4303398   4303949   4304625   4305426   4306325  
  4270.000000   4307306   4308321   4309332   4310251   4310978  
  4260.000000   4311350   4311194   4310327   4308623   4306025  
  4250.000000   4302602   4298512   4294010   4289362   4284837  
  4240.000000   4280618   4276830   4273484   4270552   4267940  
  4230.000000   4265563   4263328   4261165   4259019   4256845  
  4220.000000   4254622   4252328   4249981   4247590   4245218  
  4210.000000   4242906   4240734   4238745   4236996   4235496  
  4200.000000   4234266   4233275   4232514   4231934   4231520  
  4190.000000   4231224   4231049   4230961   4230995   4231139  
  4180.000000   4231455   4231942   4232672   4233644   4234929  
  4170.000000   4236528   4238518   4240908   4243779   4247136  
  4160.000000   4251049   4255494   4260512   4266046   4272111  
  4150.000000   4278627   4285602   4292950   4300686   4308740  
  4140.000000   4317151   4325883   4335010   4344525   4354514  
  4130.000000   4364963   4375925   4387353   4399258   4411571  
  4120.000000   4424295   4437374   4450837   4464657   4478879  
  4110.000000   4493485   4508502   4523893   4539649   4555701  
  4100.000000   4572014   4588513   4605167   4621927   4638790  
  4090.000000   4655746   4672806   4689978   4707263   4724668  
  4080.000000   4742180   4759808   4777529   4795346   4813202  
  4070.000000   4831063   4848815   4866390   4883651   4900553  
  4060.000000   4917003   4933016   4948538   4963616   4978188  
  4050.000000   4992297   5005871   5018965   5031514   5043585  
  4040.000000   5055091   5066069   5076378   5086022   5094853  
  4030.000000   5102898   5110052   5116378   5121797   5126362  
  4020.000000   5129965   5132663   5134429   5135367   5135457  
  4010.000000   5134877   5133725   5132060   5129686   5126681  
  4000.000000   5123352  
##END= 
