##TITLE= Sample 006 By ssteindl date Dienstag, November 20 2018
##JCAMP-DX= 4.24
##DATA TYPE= INFRARED SPECTRUM
##ORIGIN= Exported PE Spectrum Data File
##OWNER= Sandra Steindl
##DATE= 18/11/20
##TIME= 14:00:32.00
##SPECTROMETER/DATA SYSTEM= PERKIN-ELMER Frontier FT-IR/NIR IR
##INSTRUMENT PARAMETERS=
  APODIZATION=stark
  DETECTOR=INGAAS
##RESOLUTION= 16.000000
##DELTAX= -2.000000
##XUNITS= 1/CM
##YUNITS= A
##XFACTOR= 1.00
##YFACTOR= 0.00000011920928955078
##FIRSTX= 10000.00
##LASTX= 4000.00
##NPOINTS= 3001
##FIRSTY= 0.215963
##MAXY= 0.593795
##MINY= 0.192363
##XYDATA= (X++(Y..Y))
 10000.000000   1811627   1808805   1807014   1807715   1811143  
  9990.000000   1816133   1821025   1824162   1824362   1821255  
  9980.000000   1815696   1809295   1803720   1800111   1798790  
  9970.000000   1799405   1801178   1803481   1806065   1809135  
  9960.000000   1813065   1818004   1823603   1828911   1832695  
  9950.000000   1833742   1831437   1825858   1817920   1809016  
  9940.000000   1800697   1794334   1790792   1790493   1793302  
  9930.000000   1798832   1806397   1815230   1824399   1832911  
  9920.000000   1839755   1844059   1845318   1843466   1839002  
  9910.000000   1832749   1825748   1818909   1812931   1808193  
  9900.000000   1804832   1802847   1802112   1802490   1803669  
  9890.000000   1805302   1806857   1807899   1808106   1807508  
  9880.000000   1806482   1805669   1805788   1807255   1810040  
  9870.000000   1813454   1816423   1817725   1816489   1812466  
  9860.000000   1806140   1798602   1791160   1785048   1781058  
  9850.000000   1779520   1780289   1782940   1786868   1791395  
  9840.000000   1795767   1799183   1800864   1800196   1797003  
  9830.000000   1791635   1785101   1778721   1773856   1771360  
  9820.000000   1771351   1773188   1775749   1777943   1779110  
  9810.000000   1779295   1779153   1779631   1781493   1784929  
  9800.000000   1789414   1793870   1797114   1798284   1797256  
  9790.000000   1794628   1791568   1789326   1788800   1790245  
  9780.000000   1793185   1796668   1799564   1801035   1800737  
  9770.000000   1798992   1796542   1794374   1793270   1793651  
  9760.000000   1795400   1797944   1800477   1802150   1802368  
  9750.000000   1800828   1797567   1792867   1787139   1780901  
  9740.000000   1774702   1769186   1765002   1762780   1762898  
  9730.000000   1765383   1769725   1774981   1779915   1783346  
  9720.000000   1784491   1783123   1779669   1774903   1769764  
  9710.000000   1764929   1760763   1757262   1754270   1751697  
  9700.000000   1749614   1748333   1748144   1749272   1751602  
  9690.000000   1754788   1758274   1761496   1764019   1765522  
  9680.000000   1765868   1764907   1762590   1758870   1753914  
  9670.000000   1748098   1742060   1736579   1732359   1729890  
  9660.000000   1729257   1730264   1732462   1735429   1738786  
  9650.000000   1742293   1745716   1748746   1750990   1751993  
  9640.000000   1751483   1749423   1746180   1742316   1738477  
  9630.000000   1735087   1732287   1729948   1727859   1725952  
  9620.000000   1724374   1723499   1723645   1724942   1727102  
  9610.000000   1729549   1731615   1732834   1733191   1733059  
  9600.000000   1733083   1733729   1735083   1736651   1737611  
  9590.000000   1737124   1734806   1730940   1726462   1722643  
  9580.000000   1720609   1721006   1723742   1728183   1733336  
  9570.000000   1738289   1742399   1745432   1747468   1748730  
  9560.000000   1749420   1749595   1749181   1748007   1745960  
  9550.000000   1743014   1739329   1735199   1731014   1727209  
  9540.000000   1724135   1722074   1721098   1721120   1721863  
  9530.000000   1722956   1724051   1724907   1725461   1725770  
  9520.000000   1725955   1726067   1726112   1726015   1725780  
  9510.000000   1725497   1725398   1725763   1726782   1728469  
  9500.000000   1730561   1732658   1734332   1735367   1735837  
  9490.000000   1736102   1736589   1737549   1738854   1739982  
  9480.000000   1740217   1738940   1735934   1731501   1726403  
  9470.000000   1721600   1717912   1715767   1715059   1715307  
  9460.000000   1715852   1716183   1716074   1715638   1715179  
  9450.000000   1715031   1715379   1716202   1717290   1718332  
  9440.000000   1719038   1719196   1718746   1717736   1716307  
  9430.000000   1714635   1712890   1711219   1709704   1708358  
  9420.000000   1707121   1705887   1704539   1703010   1701262  
  9410.000000   1699364   1697396   1695501   1693788   1692371  
  9400.000000   1691348   1690785   1690732   1691087   1691620  
  9390.000000   1691856   1691255   1689289   1685728   1680722  
  9380.000000   1674870   1669096   1664433   1661777   1661654  
  9370.000000   1664100   1668673   1674595   1680947   1686840  
  9360.000000   1691563   1694619   1695820   1695245   1693287  
  9350.000000   1690539   1687717   1685483   1684298   1684325  
  9340.000000   1685398   1687154   1689153   1691082   1692766  
  9330.000000   1694156   1695173   1695626   1695196   1693555  
  9320.000000   1690545   1686348   1681543   1677047   1673816  
  9310.000000   1672594   1673576   1676433   1680376   1684461  
  9300.000000   1687825   1689861   1690297   1689098   1686418  
  9290.000000   1682464   1677554   1672090   1666630   1661822  
  9280.000000   1658289   1656457   1656399   1657831   1660187  
  9270.000000   1662848   1665301   1667252   1668605   1669354  
  9260.000000   1669515   1669040   1667923   1666241   1664281  
  9250.000000   1662513   1661496   1661676   1663182   1665769  
  9240.000000   1668855   1671757   1673876   1674886   1674758  
  9230.000000   1673697   1672000   1669919   1667610   1665158  
  9220.000000   1662687   1660401   1658587   1657476   1657148  
  9210.000000   1657470   1658114   1658684   1658796   1658286  
  9200.000000   1657214   1655898   1654747   1654143   1654346  
  9190.000000   1655441   1657375   1659883   1662555   1664821  
  9180.000000   1666107   1665883   1663843   1660033   1654956  
  9170.000000   1649534   1644866   1641949   1641372   1643210  
  9160.000000   1646990   1651853   1656760   1660815   1663452  
  9150.000000   1664492   1664058   1662479   1660203   1657685  
  9140.000000   1655314   1653375   1652054   1651415   1651393  
  9130.000000   1651793   1652331   1652750   1652849   1652537  
  9120.000000   1651779   1650574   1648950   1646932   1644599  
  9110.000000   1642099   1639702   1637776   1636657   1636569  
  9100.000000   1637472   1639134   1641159   1643170   1644883  
  9090.000000   1646184   1647105   1647681   1647885   1647503  
  9080.000000   1646284   1643983   1640585   1636316   1631668  
  9070.000000   1627269   1623717   1621440   1620585   1621111  
  9060.000000   1622823   1625503   1628880   1632666   1636498  
  9050.000000   1639947   1642561   1643976   1644096   1643094  
  9040.000000   1641439   1639668   1638275   1637464   1637144  
  9030.000000   1636961   1636497   1635473   1633856   1631923  
  9020.000000   1630112   1628915   1628651   1629431   1631098  
  9010.000000   1633340   1635774   1638053   1639936   1641267  
  9000.000000   1642015   1642190   1641873   1641139   1640087  
  8990.000000   1638797   1637362   1635869   1634418   1633158  
  8980.000000   1632275   1631991   1632450   1633714   1635663  
  8970.000000   1638028   1640391   1642329   1643507   1643764  
  8960.000000   1643136   1641812   1640105   1638300   1636629  
  8950.000000   1635186   1633978   1632928   1631918   1630842  
  8940.000000   1629633   1628323   1627035   1626016   1625552  
  8930.000000   1625917   1627236   1629433   1632208   1635066  
  8920.000000   1637480   1638995   1639435   1638865   1637589  
  8910.000000   1635978   1634368   1632956   1631779   1630816  
  8900.000000   1630050   1629602   1629664   1630488   1632207  
  8890.000000   1634748   1637756   1640654   1642801   1643624  
  8880.000000   1642830   1640396   1636655   1632148   1627562  
  8870.000000   1623547   1620613   1619076   1619014   1620315  
  8860.000000   1622684   1625767   1629207   1632724   1636116  
  8850.000000   1639241   1641982   1644184   1645686   1646320  
  8840.000000   1646064   1645042   1643611   1642228   1641363  
  8830.000000   1641313   1642091   1643428   1644826   1645802  
  8820.000000   1646024   1645495   1644500   1643540   1643102  
  8810.000000   1643510   1644796   1646707   1648817   1650656  
  8800.000000   1651868   1652264   1651856   1650808   1649388  
  8790.000000   1647902   1646643   1645843   1645641   1646048  
  8780.000000   1646943   1648105   1649278   1650266   1650984  
  8770.000000   1651494   1651954   1652545   1653377   1654425  
  8760.000000   1655554   1656559   1657287   1657676   1657803  
  8750.000000   1657812   1657864   1658042   1658342   1658680  
  8740.000000   1658960   1659134   1659234   1659361   1659637  
  8730.000000   1660162   1660973   1662057   1663354   1664810  
  8720.000000   1666368   1667976   1669561   1671026   1672281  
  8710.000000   1673267   1674017   1674621   1675215   1675882  
  8700.000000   1676604   1677241   1677580   1677451   1676828  
  8690.000000   1675905   1675061   1674748   1675318   1676867  
  8680.000000   1679188   1681815   1684205   1685896   1686667  
  8670.000000   1686567   1685876   1684992   1684304   1684114  
  8660.000000   1684595   1685804   1687709   1690196   1693067  
  8650.000000   1696026   1698707   1700735   1701838   1701935  
  8640.000000   1701189   1699960   1698721   1697900   1697786  
  8630.000000   1698447   1699769   1701530   1703504   1705535  
  8620.000000   1707526   1709434   1711209   1712800   1714153  
  8610.000000   1715258   1716186   1717067   1718067   1719295  
  8600.000000   1720760   1722346   1723859   1725115   1726017  
  8590.000000   1726606   1727034   1727490   1728106   1728903  
  8580.000000   1729773   1730559   1731126   1731455   1731645  
  8570.000000   1731892   1732388   1733253   1734469   1735903  
  8560.000000   1737363   1738664   1739697   1740434   1740920  
  8550.000000   1741215   1741364   1741382   1741281   1741095  
  8540.000000   1740902   1740826   1741009   1741570   1742552  
  8530.000000   1743922   1745573   1747362   1749126   1750722  
  8520.000000   1752040   1752999   1753566   1753748   1753622  
  8510.000000   1753314   1753000   1752849   1752987   1753455  
  8500.000000   1754190   1755064   1755928   1756687   1757335  
  8490.000000   1757956   1758697   1759686   1760978   1762504  
  8480.000000   1764091   1765516   1766595   1767253   1767565  
  8470.000000   1767743   1768079   1768851   1770225   1772209  
  8460.000000   1774636   1777209   1779568   1781393   1782489  
  8450.000000   1782823   1782532   1781873   1781162   1780680  
  8440.000000   1780606   1780977   1781695   1782587   1783455  
  8430.000000   1784169   1784681   1785074   1785493   1786111  
  8420.000000   1787035   1788278   1789737   1791216   1792493  
  8410.000000   1793357   1793693   1793493   1792869   1792014  
  8400.000000   1791147   1790485   1790186   1790342   1790947  
  8390.000000   1791933   1793179   1794552   1795907   1797120  
  8380.000000   1798083   1798732   1799022   1798950   1798547  
  8370.000000   1797894   1797113   1796347   1795729   1795349  
  8360.000000   1795225   1795284   1795379   1795324   1794975  
  8350.000000   1794275   1793286   1792175   1791155   1790434  
  8340.000000   1790128   1790260   1790741   1791458   1792310  
  8330.000000   1793273   1794377   1795673   1797139   1798653  
  8320.000000   1799964   1800755   1800739   1799763   1797899  
  8310.000000   1795413   1792704   1790158   1788038   1786414  
  8300.000000   1785154   1784028   1782800   1781380   1779835  
  8290.000000   1778397   1777333   1776870   1777085   1777876  
  8280.000000   1778982   1780041   1780724   1780778   1780119  
  8270.000000   1778787   1776965   1774897   1772881   1771179  
  8260.000000   1769997   1769429   1769452   1769935   1770658  
  8250.000000   1771390   1771932   1772213   1772287   1772328  
  8240.000000   1772538   1773072   1773964   1775099   1776241  
  8230.000000   1777096   1777416   1777069   1776079   1774609  
  8220.000000   1772887   1771141   1769517   1768076   1766780  
  8210.000000   1765562   1764347   1763123   1761920   1760813  
  8200.000000   1759857   1759074   1758414   1757780   1757039  
  8190.000000   1756075   1754821   1753288   1751565   1749796  
  8180.000000   1748143   1746743   1745667   1744917   1744409  
  8170.000000   1744015   1743579   1742969   1742107   1740980  
  8160.000000   1739636   1738155   1736620   1735077   1733531  
  8150.000000   1731942   1730249   1728410   1726430   1724394  
  8140.000000   1722451   1720787   1719562   1718856   1718628  
  8130.000000   1718705   1718827   1718702   1718095   1716883  
  8120.000000   1715107   1712953   1710723   1708735   1707261  
  8110.000000   1706427   1706208   1706414   1706761   1706944  
  8100.000000   1706723   1705989   1704791   1703334   1701913  
  8090.000000   1700840   1700354   1700552   1701359   1702537  
  8080.000000   1703750   1704644   1704942   1704511   1703391  
  8070.000000   1701769   1699920   1698118   1696566   1695336  
  8060.000000   1694377   1693542   1692652   1691566   1690226  
  8050.000000   1688684   1687070   1685566   1684328   1683457  
  8040.000000   1682960   1682765   1682748   1682766   1682716  
  8030.000000   1682532   1682215   1681786   1681281   1680711  
  8020.000000   1680061   1679301   1678414   1677417   1676387  
  8010.000000   1675442   1674716   1674309   1674244   1674451  
  8000.000000   1674766   1674990   1674932   1674479   1673620  
  7990.000000   1672453   1671151   1669913   1668911   1668245  
  7980.000000   1667932   1667895   1668003   1668081   1667966  
  7970.000000   1667525   1666699   1665514   1664088   1662619  
  7960.000000   1661335   1660452   1660106   1660328   1661026  
  7950.000000   1662021   1663098   1664068   1664806   1665263  
  7940.000000   1665449   1665387   1665093   1664545   1663721  
  7930.000000   1662615   1661284   1659857   1658522   1657481  
  7920.000000   1656887   1656813   1657215   1657965   1658867  
  7910.000000   1659722   1660361   1660667   1660598   1660169  
  7900.000000   1659460   1658587   1657701   1656939   1656414  
  7890.000000   1656172   1656181   1656343   1656523   1656597  
  7880.000000   1656495   1656225   1655862   1655516   1655278  
  7870.000000   1655179   1655181   1655198   1655135   1654942  
  7860.000000   1654633   1654291   1654024   1653930   1654044  
  7850.000000   1654340   1654724   1655085   1655315   1655346  
  7840.000000   1655153   1654746   1654157   1653424   1652589  
  7830.000000   1651692   1650776   1649881   1649038   1648264  
  7820.000000   1647559   1646915   1646329   1645822   1645430  
  7810.000000   1645207   1645189   1645377   1645723   1646134  
  7800.000000   1646504   1646739   1646791   1646661   1646390  
  7790.000000   1646027   1645605   1645135   1644608   1644028  
  7780.000000   1643425   1642874   1642465   1642282   1642344  
  7770.000000   1642601   1642917   1643130   1643084   1642696  
  7760.000000   1641972   1641002   1639915   1638829   1637805  
  7750.000000   1636836   1635857   1634793   1633602   1632301  
  7740.000000   1630974   1629735   1628692   1627905   1627362  
  7730.000000   1626992   1626694   1626379   1626003   1625576  
  7720.000000   1625155   1624807   1624587   1624501   1624515  
  7710.000000   1624559   1624568   1624486   1624304   1624031  
  7700.000000   1623701   1623336   1622945   1622521   1622053  
  7690.000000   1621551   1621058   1620650   1620412   1620406  
  7680.000000   1620636   1621030   1621448   1621727   1621723  
  7670.000000   1621368   1620693   1619821   1618928   1618188  
  7660.000000   1617719   1617543   1617599   1617757   1617876  
  7650.000000   1617841   1617598   1617152   1616553   1615879  
  7640.000000   1615208   1614616   1614175   1613946   1613982  
  7630.000000   1614302   1614879   1615628   1616413   1617078  
  7620.000000   1617494   1617594   1617405   1617027   1616612  
  7610.000000   1616295   1616156   1616189   1616316   1616420  
  7600.000000   1616402   1616209   1615854   1615395   1614910  
  7590.000000   1614467   1614105   1613841   1613687   1613654  
  7580.000000   1613769   1614053   1614507   1615085   1615708  
  7570.000000   1616272   1616694   1616940   1617048   1617109  
  7560.000000   1617234   1617498   1617925   1618461   1619014  
  7550.000000   1619479   1619797   1619962   1620034   1620102  
  7540.000000   1620253   1620539   1620971   1621523   1622154  
  7530.000000   1622825   1623517   1624230   1624977   1625771  
  7520.000000   1626625   1627543   1628530   1629572   1630652  
  7510.000000   1631725   1632739   1633627   1634349   1634889  
  7500.000000   1635293   1635645   1636062   1636649   1637477  
  7490.000000   1638561   1639877   1641372   1642998   1644722  
  7480.000000   1646534   1648432   1650399   1652391   1654344  
  7470.000000   1656181   1657847   1659316   1660615   1661791  
  7460.000000   1662909   1664017   1665143   1666292   1667457  
  7450.000000   1668635   1669832   1671064   1672353   1673715  
  7440.000000   1675162   1676700   1678333   1680066   1681901  
  7430.000000   1683825   1685813   1687822   1689816   1691767  
  7420.000000   1693678   1695570   1697473   1699399   1701324  
  7410.000000   1703187   1704916   1706456   1707812   1709049  
  7400.000000   1710288   1711655   1713237   1715043   1717004  
  7390.000000   1719001   1720917   1722685   1724308   1725857  
  7380.000000   1727432   1729123   1730967   1732950   1735019  
  7370.000000   1737115   1739197   1741243   1743247   1745198  
  7360.000000   1747065   1748798   1750351   1751697   1752851  
  7350.000000   1753873   1754851   1755882   1757041   1758375  
  7340.000000   1759892   1761579   1763403   1765324   1767286  
  7330.000000   1769224   1771066   1772759   1774282   1775664  
  7320.000000   1776978   1778312   1779741   1781291   1782928  
  7310.000000   1784572   1786133   1787554   1788829   1790013  
  7300.000000   1791180   1792399   1793681   1794992   1796255  
  7290.000000   1797394   1798361   1799158   1799829   1800430  
  7280.000000   1801005   1801572   1802121   1802637   1803119  
  7270.000000   1803592   1804105   1804709   1805442   1806309  
  7260.000000   1807291   1808349   1809452   1810578   1811731  
  7250.000000   1812912   1814133   1815381   1816647   1817912  
  7240.000000   1819184   1820476   1821831   1823275   1824833  
  7230.000000   1826493   1828238   1830030   1831860   1833720  
  7220.000000   1835635   1837620   1839698   1841861   1844100  
  7210.000000   1846387   1848715   1851080   1853503   1856002  
  7200.000000   1858605   1861321   1864161   1867122   1870212  
  7190.000000   1873422   1876749   1880151   1883580   1886953  
  7180.000000   1890203   1893273   1896165   1898921   1901646  
  7170.000000   1904447   1907446   1910712   1914287   1918139  
  7160.000000   1922208   1926385   1930570   1934662   1938610  
  7150.000000   1942404   1946113   1949847   1953773   1958029  
  7140.000000   1962720   1967830   1973270   1978854   1984402  
  7130.000000   1989758   1994872   1999777   2004605   2009502  
  7120.000000   2014623   2020038   2025772   2031757   2037908  
  7110.000000   2044111   2050282   2056348   2062281   2068076  
  7100.000000   2073782   2079477   2085279   2091294   2097609  
  7090.000000   2104228   2111089   2118048   2124949   2131650  
  7080.000000   2138094   2144303   2150382   2156458   2162644  
  7070.000000   2168985   2175465   2182014   2188559   2195051  
  7060.000000   2201490   2207915   2214386   2220952   2227629  
  7050.000000   2234399   2241214   2248013   2254736   2261332  
  7040.000000   2267765   2274024   2280120   2286100   2292036  
  7030.000000   2298018   2304116   2310367   2316743   2323170  
  7020.000000   2329537   2335748   2341742   2347527   2353149  
  7010.000000   2358689   2364200   2369710   2375191   2380605  
  7000.000000   2385900   2391063   2396088   2401003   2405812  
  6990.000000   2410519   2415091   2419506   2423741   2427820  
  6980.000000   2431775   2435666   2439529   2443388   2447223  
  6970.000000   2451015   2454729   2458364   2461920   2465426  
  6960.000000   2468885   2472306   2475662   2478937   2482103  
  6950.000000   2485156   2488080   2490869   2493482   2495877  
  6940.000000   2497997   2499822   2501369   2502723   2503996  
  6930.000000   2505323   2506798   2508476   2510336   2512324  
  6920.000000   2514350   2516346   2518251   2520036   2521684  
  6910.000000   2523191   2524556   2525795   2526933   2528015  
  6900.000000   2529089   2530194   2531344   2532532   2533731  
  6890.000000   2534921   2536092   2537264   2538456   2539689  
  6880.000000   2540944   2542177   2543322   2544321   2545149  
  6870.000000   2545827   2546413   2546983   2547595   2548280  
  6860.000000   2549032   2549834   2550670   2551548   2552486  
  6850.000000   2553506   2554602   2555739   2556848   2557862  
  6840.000000   2558735   2559469   2560107   2560716   2561348  
  6830.000000   2562023   2562709   2563351   2563886   2564283  
  6820.000000   2564550   2564736   2564901   2565098   2565341  
  6810.000000   2565619   2565890   2566114   2566259   2566322  
  6800.000000   2566312   2566254   2566168   2566071   2565962  
  6790.000000   2565836   2565676   2565465   2565188   2564844  
  6780.000000   2564447   2564045   2563693   2563460   2563385  
  6770.000000   2563471   2563666   2563880   2564006   2563962  
  6760.000000   2563708   2563265   2562699   2562090   2561500  
  6750.000000   2560956   2560448   2559943   2559410   2558841  
  6740.000000   2558246   2557656   2557094   2556570   2556073  
  6730.000000   2555586   2555092   2554588   2554087   2553603  
  6720.000000   2553145   2552702   2552250   2551765   2551227  
  6710.000000   2550641   2550024   2549404   2548797   2548207  
  6700.000000   2547621   2547023   2546400   2545755   2545094  
  6690.000000   2544425   2543737   2543008   2542199   2541280  
  6680.000000   2540238   2539091   2537870   2536617   2535357  
  6670.000000   2534097   2532821   2531517   2530179   2528833  
  6660.000000   2527515   2526271   2525119   2524053   2523024  
  6650.000000   2521971   2520831   2519565   2518165   2516652  
  6640.000000   2515064   2513444   2511832   2510258   2508743  
  6630.000000   2507308   2505956   2504687   2503479   2502307  
  6620.000000   2501134   2499945   2498729   2497500   2496272  
  6610.000000   2495051   2493821   2492543   2491171   2489666  
  6600.000000   2488016   2486244   2484395   2482526   2480679  
  6590.000000   2478879   2477124   2475409   2473725   2472079  
  6580.000000   2470477   2468927   2467419   2465927   2464421  
  6570.000000   2462876   2461296   2459706   2458155   2456687  
  6560.000000   2455330   2454074   2452885   2451715   2450524  
  6550.000000   2449297   2448044   2446791   2445564   2444374  
  6540.000000   2443218   2442080   2440945   2439802   2438649  
  6530.000000   2437481   2436291   2435059   2433769   2432413  
  6520.000000   2431007   2429590   2428216   2426929   2425756  
  6510.000000   2424686   2423683   2422697   2421689   2420645  
  6500.000000   2419578   2418516   2417493   2416526   2415616  
  6490.000000   2414750   2413909   2413081   2412263   2411451  
  6480.000000   2410645   2409831   2408994   2408116   2407188  
  6470.000000   2406212   2405198   2404153   2403082   2401980  
  6460.000000   2400843   2399676   2398504   2397364   2396300  
  6450.000000   2395340   2394483   2393693   2392913   2392085  
  6440.000000   2391176   2390188   2389162   2388156   2387227  
  6430.000000   2386405   2385692   2385059   2384470   2383888  
  6420.000000   2383299   2382699   2382100   2381513   2380954  
  6410.000000   2380429   2379951   2379524   2379156   2378835  
  6400.000000   2378541   2378234   2377880   2377451   2376950  
  6390.000000   2376408   2375876   2375410   2375047   2374795  
  6380.000000   2374631   2374509   2374382   2374215   2373994  
  6370.000000   2373725   2373420   2373095   2372754   2372401  
  6360.000000   2372031   2371646   2371248   2370839   2370413  
  6350.000000   2369959   2369456   2368893   2368262   2367577  
  6340.000000   2366857   2366126   2365400   2364684   2363968  
  6330.000000   2363244   2362502   2361749   2360994   2360255  
  6320.000000   2359538   2358843   2358149   2357434   2356664  
  6310.000000   2355817   2354871   2353817   2352647   2351370  
  6300.000000   2349999   2348569   2347118   2345694   2344324  
  6290.000000   2343020   2341761   2340513   2339229   2337887  
  6280.000000   2336476   2335021   2333544   2332074   2330609  
  6270.000000   2329134   2327614   2326025   2324359   2322635  
  6260.000000   2320883   2319132   2317390   2315641   2313848  
  6250.000000   2311978   2310017   2307986   2305931   2303915  
  6240.000000   2301984   2300163   2298436   2296772   2295125  
  6230.000000   2293461   2291754   2289996   2288181   2286310  
  6220.000000   2284381   2282400   2280385   2278365   2276379  
  6210.000000   2274459   2272622   2270859   2269141   2267426  
  6200.000000   2265679   2263881   2262034   2260153   2258262  
  6190.000000   2256379   2254516   2252680   2250879   2249121  
  6180.000000   2247414   2245764   2244165   2242602   2241054  
  6170.000000   2239502   2237940   2236373   2234822   2233305  
  6160.000000   2231832   2230399   2228992   2227590   2226178  
  6150.000000   2224754   2223323   2221893   2220469   2219044  
  6140.000000   2217610   2216160   2214697   2213237   2211803  
  6130.000000   2210408   2209055   2207723   2206380   2204995  
  6120.000000   2203559   2202089   2200632   2199245   2197983  
  6110.000000   2196872   2195909   2195054   2194256   2193458  
  6100.000000   2192621   2191725   2190778   2189799   2188828  
  6090.000000   2187900   2187057   2186323   2185718   2185234  
  6080.000000   2184854   2184537   2184251   2183962   2183661  
  6070.000000   2183353   2183065   2182818   2182640   2182534  
  6060.000000   2182503   2182533   2182626   2182776   2183004  
  6050.000000   2183314   2183721   2184220   2184810   2185478  
  6040.000000   2186231   2187070   2188022   2189094   2190300  
  6030.000000   2191619   2193032   2194495   2195985   2197476  
  6020.000000   2198975   2200491   2202052   2203670   2205361  
  6010.000000   2207117   2208937   2210799   2212697   2214609  
  6000.000000   2216527   2218431   2220318   2222184   2224049  
  5990.000000   2225934   2227881   2229918   2232074   2234351  
  5980.000000   2236747   2239241   2241821   2244469   2247186  
  5970.000000   2249965   2252805   2255689   2258605   2261532  
  5960.000000   2264468   2267410   2270380   2273389   2276453  
  5950.000000   2279563   2282707   2285854   2288988   2292101  
  5940.000000   2295209   2298342   2301536   2304822   2308213  
  5930.000000   2311706   2315277   2318893   2322515   2326104  
  5920.000000   2329624   2333039   2336320   2339448   2342417  
  5910.000000   2345241   2347944   2350563   2353134   2355689  
  5900.000000   2358247   2360826   2363432   2366082   2368782  
  5890.000000   2371548   2374373   2377250   2380145   2383022  
  5880.000000   2385832   2388536   2391099   2393501   2395733  
  5870.000000   2397800   2399724   2401536   2403283   2405017  
  5860.000000   2406790   2408639   2410581   2412612   2414713  
  5850.000000   2416861   2419040   2421250   2423507   2425831  
  5840.000000   2428235   2430720   2433268   2435852   2438445  
  5830.000000   2441026   2443591   2446143   2448684   2451212  
  5820.000000   2453709   2456152   2458515   2460783   2462946  
  5810.000000   2465015   2466994   2468900   2470725   2472481  
  5800.000000   2474152   2475761   2477305   2478825   2480316  
  5790.000000   2481798   2483230   2484578   2485750   2486669  
  5780.000000   2487222   2487335   2486933   2485998   2484539  
  5770.000000   2482633   2480378   2477919   2475385   2472910  
  5760.000000   2470573   2468435   2466505   2464787   2463260  
  5750.000000   2461919   2460748   2459736   2458860   2458087  
  5740.000000   2457383   2456711   2456057   2455412   2454796  
  5730.000000   2454217   2453696   2453222   2452789   2452370  
  5720.000000   2451955   2451533   2451117   2450718   2450356  
  5710.000000   2450042   2449784   2449581   2449439   2449359  
  5700.000000   2449350   2449415   2449551   2449749   2449989  
  5690.000000   2450256   2450530   2450808   2451079   2451339  
  5680.000000   2451566   2451737   2451811   2451760   2451553  
  5670.000000   2451184   2450645   2449943   2449075   2448046  
  5660.000000   2446851   2445506   2444033   2442481   2440895  
  5650.000000   2439329   2437808   2436345   2434926   2433533  
  5640.000000   2432148   2430770   2429408   2428079   2426797  
  5630.000000   2425567   2424384   2423235   2422111   2421008  
  5620.000000   2419932   2418889   2417886   2416922   2415991  
  5610.000000   2415084   2414199   2413335   2412498   2411690  
  5600.000000   2410906   2410131   2409345   2408529   2407673  
  5590.000000   2406781   2405863   2404938   2404012   2403092  
  5580.000000   2402173   2401251   2400326   2399404   2398484  
  5570.000000   2397564   2396627   2395648   2394601   2393471  
  5560.000000   2392262   2391001   2389725   2388469   2387253  
  5550.000000   2386075   2384916   2383755   2382576   2381384  
  5540.000000   2380195   2379030   2377902   2376808   2375730  
  5530.000000   2374647   2373544   2372421   2371293   2370181  
  5520.000000   2369098   2368045   2367007   2365965   2364895  
  5510.000000   2363792   2362656   2361499   2360328   2359150  
  5500.000000   2357960   2356757   2355537   2354305   2353064  
  5490.000000   2351813   2350535   2349206   2347790   2346266  
  5480.000000   2344630   2342907   2341138   2339376   2337656  
  5470.000000   2335998   2334390   2332808   2331216   2329592  
  5460.000000   2327919   2326192   2324407   2322558   2320640  
  5450.000000   2318653   2316608   2314528   2312448   2310399  
  5440.000000   2308408   2306486   2304636   2302856   2301152  
  5430.000000   2299524   2297978   2296498   2295063   2293631  
  5420.000000   2292180   2290690   2289192   2287731   2286383  
  5410.000000   2285193   2284194   2283358   2282654   2282024  
  5400.000000   2281451   2280925   2280486   2280156   2279975  
  5390.000000   2279934   2280031   2280232   2280544   2280966  
  5380.000000   2281549   2282313   2283297   2284475   2285834  
  5370.000000   2287307   2288880   2290512   2292238   2294060  
  5360.000000   2296037   2298170   2300509   2303043   2305836  
  5350.000000   2308894   2312308   2316095   2320332   2324998  
  5340.000000   2330131   2335669   2341647   2348011   2354812  
  5330.000000   2361995   2369606   2377568   2385917   2394590  
  5320.000000   2403674   2413171   2423234   2433897   2445313  
  5310.000000   2457463   2470423   2484095   2498504   2513544  
  5300.000000   2529272   2545639   2562769   2580666   2599473  
  5290.000000   2619175   2639849   2661387   2683753   2706763  
  5280.000000   2730353   2754396   2778929   2803959   2829612  
  5270.000000   2855923   2882927   2910505   2938497   2966667  
  5260.000000   2994826   3022860   3050751   3078565   3106354  
  5250.000000   3134148   3161834   3189266   3216176   3242404  
  5240.000000   3267770   3292311   3316034   3339121   3361619  
  5230.000000   3383659   3405167   3426137   3446380   3465852  
  5220.000000   3484401   3502086   3518879   3534951   3550332  
  5210.000000   3565187   3579473   3593239   3606324   3618704  
  5200.000000   3630219   3640921   3650761   3659895   3668334  
  5190.000000   3676218   3683502   3690239   3696321   3701778  
  5180.000000   3706529   3710655   3714128   3717053   3719396  
  5170.000000   3721231   3722503   3723273   3723506   3723288  
  5160.000000   3722607   3721549   3720087   3718276   3716068  
  5150.000000   3713513   3710582   3707342   3703784   3699968  
  5140.000000   3695868   3691514   3686869   3681963   3676782  
  5130.000000   3671377   3665757   3659971   3654021   3647939  
  5120.000000   3641723   3635412   3629024   3622615   3616211  
  5110.000000   3609850   3603527   3597242   3590961   3584673  
  5100.000000   3578357   3572021   3565670   3559318   3552968  
  5090.000000   3546628   3540292   3533968   3527659   3521380  
  5080.000000   3515139   3508941   3502776   3496632   3490484  
  5070.000000   3484318   3478121   3471895   3465638   3459355  
  5060.000000   3453038   3446686   3440286   3433839   3427344  
  5050.000000   3420812   3414245   3407647   3401006   3394313  
  5040.000000   3387553   3380728   3373845   3366929   3360006  
  5030.000000   3353102   3346228   3339386   3332568   3325760  
  5020.000000   3318962   3312176   3305422   3298718   3292095  
  5010.000000   3285565   3279150   3272850   3266685   3260653  
  5000.000000   3254784   3249079   3243572   3238259   3233169  
  4990.000000   3228288   3223635   3219187   3214961   3210927  
  4980.000000   3207108   3203475   3200064   3196865   3193935  
  4970.000000   3191280   3188967   3186995   3185414   3184194  
  4960.000000   3183358   3182856   3182706   3182861   3183354  
  4950.000000   3184154   3185302   3186769   3188593   3190740  
  4940.000000   3193249   3196090   3199306   3202866   3206806  
  4930.000000   3211082   3215713   3220643   3225892   3231418  
  4920.000000   3237255   3243382   3249840   3256606   3263704  
  4910.000000   3271093   3278778   3286710   3294887   3303269  
  4900.000000   3311852   3320602   3329506   3338532   3347659  
  4890.000000   3356854   3366088   3375329   3384536   3393679  
  4880.000000   3402710   3411607   3420328   3428863   3437169  
  4870.000000   3445236   3453006   3460457   3467525   3474202  
  4860.000000   3480449   3486297   3491744   3496848   3501616  
  4850.000000   3506098   3510284   3514211   3517865   3521289  
  4840.000000   3524488   3527523   3530409   3533203   3535915  
  4830.000000   3538580   3541193   3543768   3546289   3548759  
  4820.000000   3551157   3553482   3555724   3557894   3560005  
  4810.000000   3562090   3564176   3566292   3568451   3570654  
  4800.000000   3572882   3575118   3577338   3579535   3581706  
  4790.000000   3583866   3586024   3588195   3590379   3592575  
  4780.000000   3594771   3596960   3599126   3601263   3603351  
  4770.000000   3605383   3607332   3609187   3610925   3612546  
  4760.000000   3614040   3615422   3616687   3617849   3618892  
  4750.000000   3619817   3620597   3621227   3621682   3621968  
  4740.000000   3622074   3622020   3621808   3621466   3621002  
  4730.000000   3620441   3619791   3619072   3618288   3617455  
  4720.000000   3616578   3615677   3614766   3613869   3613007  
  4710.000000   3612197   3611452   3610773   3610163   3609615  
  4700.000000   3609129   3608706   3608357   3608088   3607915  
  4690.000000   3607843   3607875   3608007   3608233   3608537  
  4680.000000   3608906   3609313   3609739   3610147   3610515  
  4670.000000   3610810   3611026   3611151   3611209   3611218  
  4660.000000   3611222   3611255   3611368   3611597   3611988  
  4650.000000   3612570   3613370   3614394   3615637   3617069  
  4640.000000   3618657   3620356   3622132   3623957   3625823  
  4630.000000   3627724   3629659   3631617   3633575   3635497  
  4620.000000   3637337   3639054   3640611   3641989   3643179  
  4610.000000   3644190   3645030   3645723   3646282   3646741  
  4600.000000   3647114   3647434   3647708   3647955   3648164  
  4590.000000   3648335   3648445   3648492   3648461   3648365  
  4580.000000   3648199   3647977   3647689   3647332   3646885  
  4570.000000   3646338   3645671   3644889   3643992   3642996  
  4560.000000   3641910   3640750   3639518   3638223   3636868  
  4550.000000   3635462   3634017   3632548   3631067   3629585  
  4540.000000   3628112   3626653   3625224   3623834   3622512  
  4530.000000   3621268   3620132   3619104   3618205   3617421  
  4520.000000   3616777   3616259   3615902   3615699   3615698  
  4510.000000   3615888   3616328   3617010   3618010   3619333  
  4500.000000   3621075   3623243   3625927   3629113   3632867  
  4490.000000   3637152   3642028   3647462   3653530   3660214  
  4480.000000   3667592   3675633   3684381   3693767   3703797  
  4470.000000   3714375   3725495   3737068   3749092   3761492  
  4460.000000   3774263   3787325   3800654   3814160   3827803  
  4450.000000   3841499   3855215   3868904   3882561   3896180  
  4440.000000   3909776   3923364   3936950   3950544   3964118  
  4430.000000   3977666   3991126   4004484   4017656   4030629  
  4420.000000   4043311   4055692   4067676   4079254   4090324  
  4410.000000   4100867   4110770   4120005   4128461   4136125  
  4400.000000   4142926   4148905   4154061   4158501   4162286  
  4390.000000   4165563   4168416   4170987   4173349   4175617  
  4380.000000   4177840   4180102   4182435   4184904   4187537  
  4370.000000   4190386   4193480   4196852   4200516   4204475  
  4360.000000   4208719   4213226   4217961   4222898   4227981  
  4350.000000   4233185   4238437   4243718   4248958   4254164  
  4340.000000   4259289   4264351   4269280   4274002   4278307  
  4330.000000   4281941   4284538   4285769   4285346   4283179  
  4320.000000   4279360   4274234   4268270   4262048   4256065  
  4310.000000   4250731   4246238   4242652   4239868   4237756  
  4300.000000   4236144   4234914   4233969   4233251   4232716  
  4290.000000   4232311   4232005   4231749   4231542   4231373  
  4280.000000   4231278   4231279   4231406   4231684   4232117  
  4270.000000   4232720   4233474   4234358   4235285   4236131  
  4260.000000   4236692   4236739   4236025   4234366   4231668  
  4250.000000   4227978   4223459   4218390   4213077   4207833  
  4240.000000   4202887   4198405   4194427   4190941   4187854  
  4230.000000   4185070   4182469   4179958   4177453   4174894  
  4220.000000   4172259   4169533   4166755   4163958   4161224  
  4210.000000   4158607   4156189   4154002   4152090   4150446  
  4200.000000   4149072   4147928   4146999   4146234   4145619  
  4190.000000   4145106   4144697   4144359   4144118   4143956  
  4180.000000   4143926   4144025   4144322   4144824   4145610  
  4170.000000   4146693   4148158   4150018   4152353   4155159  
  4160.000000   4158493   4162321   4166672   4171487   4176781  
  4150.000000   4182486   4188621   4195123   4202023   4209273  
  4140.000000   4216927   4224959   4233442   4242360   4251781  
  4130.000000   4261668   4272054   4282869   4294120   4305734  
  4120.000000   4317725   4330051   4342756   4355826   4369312  
  4110.000000   4383198   4397513   4412216   4427301   4442708  
  4100.000000   4458410   4474345   4490489   4506797   4523254  
  4090.000000   4539831   4556508   4573256   4590035   4606818  
  4080.000000   4623566   4640275   4656922   4673527   4690057  
  4070.000000   4706510   4722804   4738900   4754684   4770126  
  4060.000000   4785138   4799735   4813859   4827550   4840741  
  4050.000000   4853472   4865672   4877397   4888589   4899319  
  4040.000000   4909514   4919220   4928319   4936826   4944613  
  4030.000000   4951717   4958043   4963655   4968484   4972578  
  4020.000000   4975837   4978315   4979984   4980931   4981117  
  4010.000000   4980686   4979715   4978226   4975999   4973100  
  4000.000000   4969861  
##END= 
