##TITLE= Sample 008 By ssteindl date Dienstag, November 20 2018
##JCAMP-DX= 4.24
##DATA TYPE= INFRARED SPECTRUM
##ORIGIN= Exported PE Spectrum Data File
##OWNER= Sandra Steindl
##DATE= 18/11/20
##TIME= 14:03:00.00
##SPECTROMETER/DATA SYSTEM= PERKIN-ELMER Frontier FT-IR/NIR IR
##INSTRUMENT PARAMETERS=
  APODIZATION=stark
  DETECTOR=INGAAS
##RESOLUTION= 16.000000
##DELTAX= -2.000000
##XUNITS= 1/CM
##YUNITS= A
##XFACTOR= 1.00
##YFACTOR= 0.00000011920928955078
##FIRSTX= 10000.00
##LASTX= 4000.00
##NPOINTS= 3001
##FIRSTY= 0.210785
##MAXY= 0.601953
##MINY= 0.183680
##XYDATA= (X++(Y..Y))
 10000.000000   1768194   1768141   1768340   1769152   1770546  
  9990.000000   1771958   1772567   1771541   1768379   1762984  
  9980.000000   1755768   1747417   1738788   1730688   1723852  
  9970.000000   1718882   1716180   1715933   1717937   1721686  
  9960.000000   1726411   1731380   1736089   1740421   1744562  
  9950.000000   1748771   1753107   1757199   1760341   1761661  
  9940.000000   1760599   1757135   1751974   1746289   1741303  
  9930.000000   1737823   1735898   1734909   1733842   1731834  
  9920.000000   1728531   1724288   1719958   1716537   1714692  
  9910.000000   1714558   1715693   1717373   1718896   1719864  
  9900.000000   1720311   1720554   1721056   1722082   1723647  
  9890.000000   1725406   1726854   1727425   1726735   1724637  
  9880.000000   1721304   1717198   1713019   1709625   1707834  
  9870.000000   1708266   1711075   1715903   1721840   1727699  
  9860.000000   1732257   1734649   1734570   1732348   1728825  
  9850.000000   1725023   1721862   1719821   1718891   1718594  
  9840.000000   1718216   1717080   1714746   1711213   1706865  
  9830.000000   1702464   1698884   1696948   1697127   1699393  
  9820.000000   1703161   1707369   1710809   1712389   1711555  
  9810.000000   1708368   1703584   1698333   1693817   1690892  
  9800.000000   1689865   1690479   1692104   1694082   1695957  
  9790.000000   1697678   1699494   1701821   1704929   1708787  
  9780.000000   1712968   1716757   1719381   1720214   1719022  
  9770.000000   1715969   1711607   1706689   1701989   1698138  
  9760.000000   1695484   1694082   1693695   1693939   1694350  
  9750.000000   1694555   1694276   1693439   1692108   1690514  
  9740.000000   1688958   1687743   1687098   1687096   1687658  
  9730.000000   1688515   1689297   1689553   1688945   1687271  
  9720.000000   1684654   1681442   1678192   1675425   1673476  
  9710.000000   1672374   1671847   1671533   1671157   1670808  
  9700.000000   1670905   1672148   1675116   1680031   1686446  
  9690.000000   1693325   1699276   1702968   1703601   1701063  
  9680.000000   1696014   1689512   1682711   1676448   1671088  
  9670.000000   1666578   1662611   1658957   1655560   1652672  
  9660.000000   1650650   1649857   1650400   1652107   1654513  
  9650.000000   1656977   1658884   1659703   1659197   1657333  
  9640.000000   1654402   1650841   1647267   1644275   1642397  
  9630.000000   1641943   1642950   1645169   1648115   1651257  
  9620.000000   1654102   1656397   1658098   1659386   1660557  
  9610.000000   1661882   1663543   1665492   1667489   1669090  
  9600.000000   1669788   1669138   1666928   1663316   1658843  
  9590.000000   1654401   1650959   1649353   1649921   1652427  
  9580.000000   1656034   1659609   1662063   1662739   1661567  
  9570.000000   1659041   1655953   1653048   1650797   1649227  
  9560.000000   1648127   1647136   1646071   1644902   1643739  
  9550.000000   1642671   1641624   1640447   1639011   1637477  
  9540.000000   1636381   1636535   1638745   1643387   1650110  
  9530.000000   1657750   1664608   1668994   1669853   1667201  
  9520.000000   1662147   1656513   1652157   1650356   1651377  
  9510.000000   1654538   1658494   1661833   1663484   1663050  
  9500.000000   1660745   1657224   1653222   1649324   1645819  
  9490.000000   1642730   1639935   1637263   1634584   1631816  
  9480.000000   1628926   1625982   1623133   1620689   1619018  
  9470.000000   1618466   1619189   1620991   1623352   1625445  
  9460.000000   1626470   1625815   1623357   1619434   1614812  
  9450.000000   1610399   1607026   1605244   1605221   1606806  
  9440.000000   1609582   1613050   1616700   1620127   1623039  
  9430.000000   1625269   1626744   1627442   1627384   1626555  
  9420.000000   1624953   1622532   1619347   1615552   1611512  
  9410.000000   1607723   1604717   1602916   1602452   1603167  
  9400.000000   1604593   1606193   1607499   1608363   1608954  
  9390.000000   1609702   1611057   1613259   1616206   1619431  
  9380.000000   1622284   1624088   1624415   1623143   1620530  
  9370.000000   1617069   1613340   1609869   1606991   1604888  
  9360.000000   1603549   1602891   1602770   1603056   1603648  
  9350.000000   1604450   1605355   1606196   1606765   1606822  
  9340.000000   1606159   1604656   1602372   1599608   1596906  
  9330.000000   1594972   1594450   1595735   1598772   1603077  
  9320.000000   1607807   1611998   1614784   1615631   1614447  
  9310.000000   1611546   1607521   1603013   1598621   1594752  
  9300.000000   1591667   1589419   1587905   1586885   1586031  
  9290.000000   1585044   1583699   1582000   1580176   1578730  
  9280.000000   1578263   1579284   1581944   1585922   1590481  
  9270.000000   1594676   1597672   1598970   1598573   1596898  
  9260.000000   1594620   1592333   1590371   1588702   1587080  
  9250.000000   1585181   1582835   1580104   1577285   1574797  
  9240.000000   1572978   1572027   1571916   1572532   1573711  
  9230.000000   1575378   1577515   1580110   1583072   1586161  
  9220.000000   1589035   1591286   1592598   1592806   1592003  
  9210.000000   1590440   1588478   1586430   1584514   1582830  
  9200.000000   1581378   1580160   1579194   1578579   1578416  
  9190.000000   1578804   1579714   1581017   1582431   1583636  
  9180.000000   1584330   1584338   1583662   1582484   1581125  
  9170.000000   1579911   1579063   1578611   1578381   1578057  
  9160.000000   1577299   1575887   1573830   1571374   1568910  
  9150.000000   1566835   1565403   1564626   1564282   1564012  
  9140.000000   1563498   1562567   1561272   1559828   1558530  
  9130.000000   1557607   1557154   1557105   1557321   1557661  
  9120.000000   1558072   1558581   1559263   1560151   1561169  
  9110.000000   1562155   1562917   1563342   1563464   1563447  
  9100.000000   1563527   1563857   1564445   1565067   1565372  
  9090.000000   1564995   1563730   1561620   1558938   1556149  
  9080.000000   1553737   1552117   1551512   1551983   1553453  
  9070.000000   1555750   1558584   1561586   1564282   1566176  
  9060.000000   1566815   1565970   1563762   1560675   1557470  
  9050.000000   1554926   1553614   1553638   1554594   1555704  
  9040.000000   1556119   1555233   1552897   1549507   1545845  
  9030.000000   1542808   1541058   1540819   1541860   1543605  
  9020.000000   1545420   1546793   1547539   1547733   1547645  
  9010.000000   1547542   1547589   1547799   1548102   1548437  
  9000.000000   1548859   1549528   1550656   1552401   1554766  
  8990.000000   1557575   1560474   1563078   1565063   1566279  
  8980.000000   1566746   1566626   1566126   1565420   1564587  
  8970.000000   1563623   1562495   1561175   1559689   1558098  
  8960.000000   1556484   1554910   1553388   1551898   1550396  
  8950.000000   1548905   1547513   1546414   1545837   1546014  
  8940.000000   1547077   1549012   1551598   1554455   1557128  
  8930.000000   1559162   1560245   1560220   1559178   1557340  
  8920.000000   1555027   1552522   1550046   1547713   1545583  
  8910.000000   1543724   1542276   1541458   1541502   1542563  
  8900.000000   1544602   1547360   1550371   1553095   1555092  
  8890.000000   1556156   1556411   1556228   1556113   1556497  
  8880.000000   1557597   1559359   1561485   1563580   1565273  
  8870.000000   1566370   1566858   1566884   1566638   1566273  
  8860.000000   1565858   1565352   1564668   1563697   1562389  
  8850.000000   1560740   1558805   1556695   1554572   1552677  
  8840.000000   1551289   1550729   1551270   1553058   1556024  
  8830.000000   1559842   1563998   1567868   1570893   1572690  
  8820.000000   1573169   1572517   1571176   1569682   1568583  
  8810.000000   1568265   1568923   1570492   1572690   1575089  
  8800.000000   1577197   1578617   1579103   1578709   1577733  
  8790.000000   1576705   1576182   1576615   1578173   1580697  
  8780.000000   1583723   1586614   1588747   1589664   1589207  
  8770.000000   1587489   1584857   1581744   1578605   1575790  
  8760.000000   1573562   1572042   1571267   1571196   1571745  
  8750.000000   1572814   1574297   1576149   1578367   1581014  
  8740.000000   1584130   1587700   1591593   1595556   1599279  
  8730.000000   1602445   1604875   1606524   1607541   1608120  
  8720.000000   1608445   1608553   1608345   1607634   1606268  
  8710.000000   1604266   1601866   1599536   1597807   1597164  
  8700.000000   1597836   1599792   1602705   1606103   1609492  
  8690.000000   1612484   1614879   1616623   1617799   1618512  
  8680.000000   1618888   1619014   1618981   1618876   1618824  
  8670.000000   1618964   1619436   1620350   1621741   1623577  
  8660.000000   1625719   1627968   1630069   1631768   1632862  
  8650.000000   1633247   1632967   1632195   1631219   1630356  
  8640.000000   1629902   1630033   1630783   1632053   1633656  
  8630.000000   1635402   1637120   1638735   1640233   1641677  
  8620.000000   1643150   1644729   1646462   1648328   1650246  
  8610.000000   1652052   1653546   1654514   1654812   1654414  
  8600.000000   1653466   1652272   1651223   1650695   1650931  
  8590.000000   1651965   1653613   1655533   1657356   1658796  
  8580.000000   1659743   1660282   1660631   1661065   1661812  
  8570.000000   1663011   1664702   1666842   1669343   1672080  
  8560.000000   1674908   1677637   1680039   1681882   1682988  
  8550.000000   1683293   1682890   1682023   1681045   1680309  
  8540.000000   1680072   1680443   1681359   1682650   1684076  
  8530.000000   1685433   1686577   1687470   1688148   1688699  
  8520.000000   1689230   1689826   1690547   1691387   1692313  
  8510.000000   1693236   1694078   1694764   1695279   1695671  
  8500.000000   1696052   1696573   1697364   1698524   1700084  
  8490.000000   1702013   1704237   1706662   1709199   1711736  
  8480.000000   1714141   1716242   1717864   1718861   1719175  
  8470.000000   1718886   1718231   1717559   1717222   1717495  
  8460.000000   1718491   1720140   1722204   1724373   1726347  
  8450.000000   1727914   1728957   1729472   1729532   1729278  
  8440.000000   1728877   1728533   1728462   1728851   1729800  
  8430.000000   1731276   1733096   1734962   1736516   1737460  
  8420.000000   1737646   1737126   1736132   1735000   1734061  
  8410.000000   1733555   1733571   1734054   1734848   1735772  
  8400.000000   1736675   1737473   1738136   1738680   1739140  
  8390.000000   1739550   1739930   1740282   1740595   1740860  
  8380.000000   1741066   1741220   1741340   1741487   1741732  
  8370.000000   1742161   1742807   1743646   1744556   1745351  
  8360.000000   1745800   1745706   1744958   1743583   1741745  
  8350.000000   1739698   1737728   1736081   1734907   1734234  
  8340.000000   1733962   1733921   1733907   1733763   1733402  
  8330.000000   1732849   1732235   1731752   1731594   1731871  
  8320.000000   1732577   1733552   1734543   1735247   1735438  
  8310.000000   1735032   1734140   1733027   1732024   1731434  
  8300.000000   1731426   1732020   1733078   1734391   1735743  
  8290.000000   1736983   1738033   1738873   1739494   1739868  
  8280.000000   1739943   1739665   1739021   1738062   1736909  
  8270.000000   1735731   1734687   1733894   1733371   1733090  
  8260.000000   1732948   1732871   1732780   1732655   1732475  
  8250.000000   1732240   1731923   1731481   1730855   1729978  
  8240.000000   1728805   1727298   1725459   1723305   1720884  
  8230.000000   1718276   1715587   1712985   1710646   1708776  
  8220.000000   1707529   1707006   1707200   1707996   1709162  
  8210.000000   1710362   1711213   1711334   1710467   1708507  
  8200.000000   1705587   1702030   1698319   1694965   1692391  
  8190.000000   1690830   1690264   1690470   1691091   1691773  
  8180.000000   1692236   1692347   1692094   1691534   1690734  
  8170.000000   1689719   1688486   1687021   1685371   1683649  
  8160.000000   1682031   1680696   1679758   1679234   1679012  
  8150.000000   1678928   1678798   1678507   1678007   1677324  
  8140.000000   1676495   1675534   1674419   1673104   1671569  
  8130.000000   1669846   1668034   1666264   1664652   1663250  
  8120.000000   1662025   1660894   1659769   1658622   1657503  
  8110.000000   1656521   1655775   1655298   1655014   1654752  
  8100.000000   1654321   1653580   1652518   1651250   1649986  
  8090.000000   1648921   1648155   1647635   1647193   1646609  
  8080.000000   1645730   1644524   1643113   1641708   1640530  
  8070.000000   1639719   1639284   1639112   1639027   1638860  
  8060.000000   1638519   1638009   1637417   1636860   1636433  
  8050.000000   1636173   1636052   1635993   1635910   1635728  
  8040.000000   1635406   1634927   1634291   1633511   1632599  
  8030.000000   1631583   1630504   1629428   1628437   1627612  
  8020.000000   1627017   1626674   1626550   1626552   1626541  
  8010.000000   1626361   1625872   1624992   1623731   1622200  
  8000.000000   1620599   1619165   1618121   1617605   1617625  
  7990.000000   1618061   1618687   1619249   1619529   1619424  
  7980.000000   1618960   1618285   1617604   1617112   1616922  
  7970.000000   1617028   1617316   1617596   1617671   1617394  
  7960.000000   1616705   1615647   1614337   1612935   1611585  
  7950.000000   1610387   1609374   1608517   1607753   1607009  
  7940.000000   1606240   1605444   1604658   1603950   1603384  
  7930.000000   1603005   1602818   1602795   1602892   1603057  
  7920.000000   1603266   1603498   1603752   1604002   1604207  
  7910.000000   1604295   1604193   1603856   1603301   1602629  
  7900.000000   1602004   1601623   1601646   1602145   1603062  
  7890.000000   1604216   1605342   1606159   1606451   1606119  
  7880.000000   1605214   1603913   1602481   1601192   1600272  
  7870.000000   1599844   1599916   1600391   1601104   1601876  
  7860.000000   1602555   1603053   1603345   1603467   1603474  
  7850.000000   1603427   1603360   1603282   1603193   1603088  
  7840.000000   1602987   1602917   1602903   1602945   1602995  
  7830.000000   1602972   1602770   1602314   1601589   1600669  
  7820.000000   1599701   1598867   1598322   1598150   1598322  
  7810.000000   1598724   1599189   1599561   1599745   1599729  
  7800.000000   1599568   1599354   1599159   1599013   1598891  
  7790.000000   1598735   1598485   1598113   1597634   1597101  
  7780.000000   1596575   1596101   1595678   1595270   1594802  
  7770.000000   1594207   1593440   1592500   1591433   1590317  
  7760.000000   1589241   1588278   1587463   1586788   1586199  
  7750.000000   1585619   1584975   1584223   1583366   1582460  
  7740.000000   1581595   1580859   1580313   1579953   1579717  
  7730.000000   1579499   1579196   1578749   1578170   1577540  
  7720.000000   1576983   1576604   1576457   1576501   1576623  
  7710.000000   1576665   1576486   1576005   1575233   1574267  
  7700.000000   1573258   1572366   1571719   1571380   1571347  
  7690.000000   1571553   1571898   1572264   1572543   1572648  
  7680.000000   1572527   1572170   1571605   1570898   1570135  
  7670.000000   1569410   1568804   1568372   1568141   1568099  
  7660.000000   1568208   1568397   1568582   1568659   1568529  
  7650.000000   1568106   1567351   1566285   1565009   1563692  
  7640.000000   1562553   1561815   1561656   1562170   1563331  
  7630.000000   1564997   1566931   1568845   1570458   1571544  
  7620.000000   1571977   1571740   1570937   1569748   1568413  
  7610.000000   1567160   1566174   1565546   1565275   1565279  
  7600.000000   1565431   1565607   1565716   1565720   1565629  
  7590.000000   1565483   1565332   1565216   1565168   1565211  
  7580.000000   1565377   1565700   1566212   1566928   1567826  
  7570.000000   1568845   1569895   1570878   1571726   1572403  
  7560.000000   1572925   1573316   1573609   1573795   1573852  
  7550.000000   1573734   1573421   1572936   1572365   1571841  
  7540.000000   1571507   1571492   1571863   1572629   1573735  
  7530.000000   1575087   1576577   1578092   1579544   1580849  
  7520.000000   1581951   1582806   1583413   1583794   1584026  
  7510.000000   1584202   1584433   1584807   1585391   1586211  
  7500.000000   1587262   1588510   1589909   1591402   1592929  
  7490.000000   1594430   1595853   1597166   1598377   1599533  
  7480.000000   1600724   1602045   1603575   1605337   1607296  
  7470.000000   1609347   1611363   1613221   1614850   1616243  
  7460.000000   1617454   1618569   1619681   1620852   1622111  
  7450.000000   1623449   1624850   1626299   1627801   1629371  
  7440.000000   1631028   1632778   1634605   1636471   1638334  
  7430.000000   1640158   1641938   1643692   1645467   1647314  
  7420.000000   1649270   1651339   1653492   1655666   1657795  
  7410.000000   1659816   1661706   1663476   1665174   1666859  
  7400.000000   1668585   1670379   1672233   1674113   1675978  
  7390.000000   1677798   1679570   1681323   1683095   1684923  
  7380.000000   1686813   1688741   1690655   1692500   1694242  
  7370.000000   1695884   1697470   1699067   1700743   1702542  
  7360.000000   1704468   1706489   1708549   1710593   1712583  
  7350.000000   1714509   1716386   1718242   1720100   1721967  
  7340.000000   1723826   1725643   1727374   1728985   1730458  
  7330.000000   1731800   1733046   1734251   1735474   1736773  
  7320.000000   1738175   1739682   1741264   1742877   1744470  
  7310.000000   1746005   1747465   1748851   1750176   1751451  
  7300.000000   1752681   1753863   1755000   1756102   1757198  
  7290.000000   1758327   1759520   1760792   1762121   1763469  
  7280.000000   1764788   1766059   1767285   1768511   1769786  
  7270.000000   1771146   1772578   1774019   1775365   1776510  
  7260.000000   1777389   1777992   1778384   1778664   1778944  
  7250.000000   1779298   1779761   1780320   1780951   1781639  
  7240.000000   1782408   1783307   1784412   1785774   1787420  
  7230.000000   1789317   1791411   1793610   1795847   1798051  
  7220.000000   1800198   1802268   1804285   1806276   1808304  
  7210.000000   1810427   1812722   1815233   1817984   1820948  
  7200.000000   1824071   1827270   1830481   1833652   1836779  
  7190.000000   1839870   1842959   1846054   1849162   1852256  
  7180.000000   1855317   1858325   1861292   1864240   1867215  
  7170.000000   1870248   1873376   1876604   1879940   1883368  
  7160.000000   1886881   1890441   1894019   1897558   1901029  
  7150.000000   1904409   1907738   1911093   1914612   1918422  
  7140.000000   1922634   1927262   1932260   1937491   1942827  
  7130.000000   1948141   1953396   1958599   1963835   1969171  
  7120.000000   1974682   1980366   1986204   1992121   1998073  
  7110.000000   2004010   2009939   2015867   2021830   2027840  
  7100.000000   2033915   2040049   2046248   2052508   2058841  
  7090.000000   2065249   2071742   2078317   2084979   2091727  
  7080.000000   2098570   2105499   2112510   2119562   2126612  
  7070.000000   2133594   2140461   2147183   2153769   2160257  
  7060.000000   2166705   2173176   2179721   2186383   2193182  
  7050.000000   2200134   2207230   2214446   2221725   2228983  
  7040.000000   2236121   2243048   2249705   2256091   2262253  
  7030.000000   2268273   2274232   2280186   2286150   2292112  
  7020.000000   2298045   2303949   2309837   2315752   2321714  
  7010.000000   2327726   2333736   2339680   2345487   2351137  
  7000.000000   2356645   2362081   2367495   2372920   2378304  
  6990.000000   2383567   2388598   2393340   2397795   2402056  
  6980.000000   2406233   2410434   2414680   2418920   2423028  
  6970.000000   2426887   2430416   2433638   2436638   2439565  
  6960.000000   2442530   2445609   2448780   2451992   2455154  
  6950.000000   2458222   2461171   2464029   2466815   2469552  
  6940.000000   2472213   2474771   2477182   2479439   2481553  
  6930.000000   2483572   2485536   2487479   2489393   2491254  
  6920.000000   2493018   2494662   2496171   2497570   2498891  
  6910.000000   2500186   2501488   2502831   2504226   2505677  
  6900.000000   2507164   2508657   2510111   2511482   2512731  
  6890.000000   2513845   2514835   2515741   2516612   2517495  
  6880.000000   2518413   2519375   2520368   2521381   2522407  
  6870.000000   2523449   2524511   2525590   2526666   2527705  
  6860.000000   2528667   2529522   2530258   2530888   2531433  
  6850.000000   2531921   2532372   2532805   2533236   2533701  
  6840.000000   2534238   2534896   2535697   2536633   2537646  
  6830.000000   2538654   2539561   2540307   2540872   2541291  
  6820.000000   2541624   2541935   2542257   2542593   2542915  
  6810.000000   2543196   2543420   2543608   2543789   2544001  
  6800.000000   2544256   2544545   2544831   2545079   2545259  
  6790.000000   2545363   2545393   2545355   2545237   2545020  
  6780.000000   2544679   2544207   2543621   2542971   2542315  
  6770.000000   2541706   2541168   2540700   2540279   2539890  
  6760.000000   2539533   2539234   2539024   2538924   2538917  
  6750.000000   2538955   2538966   2538882   2538670   2538332  
  6740.000000   2537908   2537448   2536993   2536566   2536169  
  6730.000000   2535802   2535475   2535210   2535026   2534928  
  6720.000000   2534881   2534819   2534656   2534331   2533826  
  6710.000000   2533188   2532505   2531881   2531388   2531046  
  6700.000000   2530809   2530597   2530316   2529905   2529339  
  6690.000000   2528640   2527849   2527021   2526192   2525389  
  6680.000000   2524615   2523863   2523110   2522324   2521458  
  6670.000000   2520467   2519316   2517999   2516543   2515010  
  6660.000000   2513474   2512002   2510630   2509356   2508143  
  6650.000000   2506944   2505713   2504429   2503087   2501701  
  6640.000000   2500282   2498844   2497400   2495974   2494596  
  6630.000000   2493306   2492132   2491072   2490086   2489101  
  6620.000000   2488032   2486817   2485434   2483918   2482333  
  6610.000000   2480754   2479221   2477728   2476225   2474645  
  6600.000000   2472934   2471085   2469137   2467163   2465242  
  6590.000000   2463428   2461738   2460148   2458614   2457090  
  6580.000000   2455545   2453968   2452371   2450776   2449211  
  6570.000000   2447707   2446292   2444987   2443803   2442729  
  6560.000000   2441737   2440777   2439798   2438756   2437635  
  6550.000000   2436442   2435208   2433964   2432732   2431515  
  6540.000000   2430300   2429072   2427829   2426587   2425380  
  6530.000000   2424241   2423190   2422220   2421301   2420389  
  6520.000000   2419445   2418448   2417400   2416322   2415240  
  6510.000000   2414180   2413158   2412177   2411237   2410332  
  6500.000000   2409454   2408585   2407705   2406787   2405808  
  6490.000000   2404760   2403654   2402522   2401404   2400340  
  6480.000000   2399352   2398442   2397589   2396767   2395946  
  6470.000000   2395103   2394223   2393294   2392307   2391255  
  6460.000000   2390142   2388988   2387829   2386712   2385679  
  6450.000000   2384750   2383920   2383153   2382401   2381618  
  6440.000000   2380783   2379897   2378984   2378075   2377194  
  6430.000000   2376354   2375562   2374823   2374155   2373576  
  6420.000000   2373109   2372754   2372489   2372264   2372020  
  6410.000000   2371703   2371292   2370797   2370257   2369718  
  6400.000000   2369218   2368769   2368365   2367988   2367624  
  6390.000000   2367273   2366945   2366648   2366384   2366140  
  6380.000000   2365890   2365615   2365304   2364973   2364650  
  6370.000000   2364364   2364132   2363944   2363769   2363567  
  6360.000000   2363300   2362950   2362516   2362013   2361457  
  6350.000000   2360863   2360235   2359587   2358930   2358292  
  6340.000000   2357696   2357160   2356675   2356217   2355739  
  6330.000000   2355198   2354564   2353838   2353042   2352217  
  6320.000000   2351395   2350602   2349837   2349088   2348335  
  6310.000000   2347567   2346773   2345952   2345096   2344196  
  6300.000000   2343232   2342193   2341071   2339877   2338628  
  6290.000000   2337348   2336047   2334731   2333387   2332006  
  6280.000000   2330573   2329095   2327578   2326039   2324484  
  6270.000000   2322917   2321328   2319708   2318048   2316351  
  6260.000000   2314618   2312861   2311080   2309280   2307457  
  6250.000000   2305619   2303779   2301957   2300168   2298417  
  6240.000000   2296686   2294942   2293141   2291250   2289256  
  6230.000000   2287177   2285053   2282935   2280863   2278864  
  6220.000000   2276940   2275076   2273252   2271446   2269643  
  6210.000000   2267835   2266019   2264196   2262375   2260571  
  6200.000000   2258806   2257102   2255472   2253913   2252402  
  6190.000000   2250900   2249368   2247780   2246134   2244454  
  6180.000000   2242777   2241137   2239552   2238016   2236505  
  6170.000000   2234988   2233444   2231866   2230264   2228655  
  6160.000000   2227052   2225462   2223881   2222307   2220745  
  6150.000000   2219211   2217730   2216327   2215012   2213774  
  6140.000000   2212589   2211421   2210239   2209024   2207771  
  6130.000000   2206486   2205175   2203841   2202483   2201100  
  6120.000000   2199698   2198296   2196923   2195606   2194370  
  6110.000000   2193216   2192136   2191102   2190090   2189076  
  6100.000000   2188056   2187032   2186023   2185044   2184117  
  6090.000000   2183253   2182467   2181763   2181149   2180619  
  6080.000000   2180176   2179809   2179517   2179291   2179137  
  6070.000000   2179046   2179022   2179047   2179114   2179197  
  6060.000000   2179292   2179395   2179535   2179737   2180051  
  6050.000000   2180500   2181106   2181853   2182721   2183665  
  6040.000000   2184660   2185677   2186719   2187791   2188919  
  6030.000000   2190116   2191407   2192794   2194287   2195876  
  6020.000000   2197555   2199301   2201101   2202927   2204770  
  6010.000000   2206615   2208470   2210337   2212233   2214156  
  6000.000000   2216112   2218083   2220064   2222042   2224029  
  5990.000000   2226036   2228097   2230235   2232479   2234836  
  5980.000000   2237313   2239895   2242576   2245341   2248189  
  5970.000000   2251111   2254113   2257188   2260342   2263564  
  5960.000000   2266850   2270174   2273519   2276847   2280137  
  5950.000000   2283363   2286534   2289670   2292822   2296041  
  5940.000000   2299380   2302865   2306497   2310247   2314072  
  5930.000000   2317923   2321762   2325569   2329333   2333055  
  5920.000000   2336730   2340347   2343892   2347347   2350698  
  5910.000000   2353936   2357059   2360066   2362956   2365738  
  5900.000000   2368424   2371049   2373651   2376287   2379000  
  5890.000000   2381819   2384737   2387725   2390731   2393704  
  5880.000000   2396601   2399402   2402100   2404700   2407202  
  5870.000000   2409602   2411897   2414085   2416182   2418218  
  5860.000000   2420233   2422263   2424330   2426438   2428572  
  5850.000000   2430719   2432872   2435042   2437252   2439534  
  5840.000000   2441907   2444375   2446922   2449523   2452147  
  5830.000000   2454772   2457382   2459966   2462511   2464999  
  5820.000000   2467408   2469720   2471923   2474024   2476032  
  5810.000000   2477972   2479845   2481662   2483400   2485065  
  5800.000000   2486640   2488158   2489631   2491107   2492585  
  5790.000000   2494073   2495512   2496849   2497977   2498814  
  5780.000000   2499256   2499240   2498707   2497652   2496090  
  5770.000000   2494099   2491778   2489271   2486709   2484225  
  5760.000000   2481901   2479793   2477906   2476232   2474744  
  5750.000000   2473419   2472233   2471160   2470172   2469235  
  5740.000000   2468326   2467427   2466551   2465717   2464966  
  5730.000000   2464316   2463781   2463335   2462950   2462581  
  5720.000000   2462208   2461819   2461429   2461051   2460703  
  5710.000000   2460381   2460078   2459781   2459493   2459227  
  5700.000000   2459010   2458871   2458819   2458848   2458922  
  5690.000000   2459003   2459051   2459049   2458991   2458892  
  5680.000000   2458755   2458587   2458366   2458073   2457672  
  5670.000000   2457145   2456466   2455627   2454611   2453411  
  5660.000000   2452017   2450446   2448725   2446917   2445092  
  5650.000000   2443326   2441666   2440139   2438727   2437395  
  5640.000000   2436094   2434788   2433454   2432091   2430712  
  5630.000000   2429335   2427983   2426671   2425416   2424225  
  5620.000000   2423103   2422043   2421034   2420052   2419079  
  5610.000000   2418102   2417123   2416156   2415224   2414343  
  5600.000000   2413518   2412736   2411972   2411200   2410401  
  5590.000000   2409568   2408709   2407834   2406952   2406064  
  5580.000000   2405166   2404252   2403319   2402375   2401425  
  5570.000000   2400471   2399505   2398509   2397460   2396339  
  5560.000000   2395143   2393885   2392587   2391275   2389966  
  5550.000000   2388664   2387363   2386062   2384761   2383477  
  5540.000000   2382229   2381034   2379895   2378799   2377720  
  5530.000000   2376634   2375528   2374406   2373282   2372172  
  5520.000000   2371085   2370014   2368940   2367847   2366722  
  5510.000000   2365572   2364409   2363251   2362104   2360963  
  5500.000000   2359809   2358630   2357416   2356177   2354928  
  5490.000000   2353688   2352454   2351212   2349926   2348566  
  5480.000000   2347106   2345553   2343924   2342256   2340571  
  5470.000000   2338886   2337192   2335477   2333724   2331933  
  5460.000000   2330107   2328260   2326397   2324517   2322604  
  5450.000000   2320647   2318634   2316572   2314478   2312375  
  5440.000000   2310285   2308224   2306201   2304222   2302299  
  5430.000000   2300439   2298648   2296914   2295217   2293523  
  5420.000000   2291813   2290082   2288370   2286730   2285242  
  5410.000000   2283949   2282876   2281985   2281233   2280559  
  5400.000000   2279944   2279382   2278916   2278570   2278379  
  5390.000000   2278326   2278395   2278539   2278757   2279046  
  5380.000000   2279460   2280034   2280818   2281804   2282988  
  5370.000000   2284310   2285750   2287260   2288860   2290538  
  5360.000000   2292340   2294257   2296339   2298577   2301042  
  5350.000000   2303749   2306793   2310191   2314016   2318240  
  5340.000000   2322891   2327907   2333324   2339100   2345303  
  5330.000000   2351901   2358954   2366404   2374289   2382542  
  5320.000000   2391231   2400334   2409976   2420162   2431025  
  5310.000000   2442537   2454784   2467691   2481320   2495600  
  5300.000000   2510621   2526352   2542921   2560325   2578690  
  5290.000000   2597987   2618280   2639457   2661479   2684163  
  5280.000000   2707438   2731164   2755367   2780037   2805300  
  5270.000000   2831195   2857773   2884936   2912539   2940352  
  5260.000000   2968177   2995878   3023414   3050837   3078194  
  5250.000000   3105529   3132755   3159751   3186273   3212171  
  5240.000000   3237261   3261566   3285075   3307951   3330230  
  5230.000000   3352039   3373306   3394033   3414043   3433301  
  5220.000000   3451662   3469187   3485840   3501777   3517012  
  5210.000000   3531689   3545752   3559245   3572018   3584063  
  5200.000000   3595242   3605618   3615152   3623990   3632134  
  5190.000000   3639715   3646684   3653106   3658891   3664090  
  5180.000000   3668633   3672600   3675942   3678732   3680905  
  5170.000000   3682507   3683478   3683893   3683744   3683151  
  5160.000000   3682127   3680769   3679040   3676973   3674500  
  5150.000000   3671652   3668400   3664827   3660947   3656844  
  5140.000000   3652509   3647977   3643204   3638206   3632960  
  5130.000000   3627514   3621884   3616130   3610261   3604308  
  5120.000000   3598256   3592116   3585881   3579577   3573216  
  5110.000000   3566833   3560436   3554043   3547650   3541266  
  5100.000000   3534895   3528560   3522274   3516057   3509907  
  5090.000000   3503819   3497772   3491749   3485735   3479727  
  5080.000000   3473723   3467726   3461729   3455723   3449690  
  5070.000000   3443621   3437508   3431357   3425173   3418969  
  5060.000000   3412742   3406491   3400199   3393861   3387467  
  5050.000000   3381026   3374547   3368046   3361530   3355004  
  5040.000000   3348457   3341883   3335272   3328626   3321954  
  5030.000000   3315277   3308616   3301993   3295427   3288927  
  5020.000000   3282505   3276156   3269886   3263686   3257561  
  5010.000000   3251503   3245528   3239639   3233873   3228245  
  5000.000000   3222807   3217575   3212589   3207848   3203375  
  4990.000000   3199149   3195187   3191464   3188003   3184777  
  4980.000000   3181810   3179069   3176578   3174300   3172274  
  4970.000000   3170478   3168969   3167739   3166849   3166283  
  4960.000000   3166091   3166245   3166788   3167690   3168998  
  4950.000000   3170686   3172795   3175283   3178172   3181403  
  4940.000000   3184991   3188882   3193106   3197627   3202490  
  4930.000000   3207667   3213200   3219053   3225262   3231791  
  4920.000000   3238675   3245882   3253442   3261319   3269526  
  4910.000000   3278022   3286814   3295864   3305179   3314727  
  4900.000000   3324503   3334467   3344588   3354816   3365106  
  4890.000000   3375416   3385705   3395946   3406101   3416148  
  4880.000000   3426040   3435756   3445243   3454491   3463451  
  4870.000000   3472119   3480441   3488407   3495954   3503075  
  4860.000000   3509721   3515918   3521655   3526998   3531964  
  4850.000000   3536630   3541010   3545168   3549100   3552853  
  4840.000000   3556414   3559824   3563072   3566197   3569193  
  4830.000000   3572097   3574908   3577657   3580341   3582979  
  4820.000000   3585559   3588087   3590546   3592936   3595248  
  4810.000000   3597492   3599668   3601792   3603870   3605916  
  4800.000000   3607937   3609950   3611967   3614008   3616086  
  4790.000000   3618214   3620388   3622603   3624837   3627074  
  4780.000000   3629292   3631484   3633636   3635750   3637810  
  4770.000000   3639813   3641735   3643570   3645296   3646913  
  4760.000000   3648410   3649792   3651048   3652180   3653170  
  4750.000000   3654024   3654732   3655310   3655763   3656118  
  4740.000000   3656374   3656549   3656631   3656624   3656519  
  4730.000000   3656329   3656056   3655722   3655335   3654905  
  4720.000000   3654423   3653883   3653270   3652578   3651813  
  4710.000000   3650992   3650145   3649304   3648504   3647775  
  4700.000000   3647142   3646622   3646231   3645978   3645867  
  4690.000000   3645893   3646046   3646306   3646653   3647059  
  4680.000000   3647501   3647951   3648392   3648794   3649145  
  4670.000000   3649420   3649620   3649742   3649813   3649853  
  4660.000000   3649910   3650015   3650212   3650524   3650979  
  4650.000000   3651587   3652368   3653327   3654478   3655822  
  4640.000000   3657361   3659083   3660971   3663000   3665138  
  4630.000000   3667346   3669586   3671813   3673985   3676060  
  4620.000000   3677996   3679764   3681334   3682697   3683842  
  4610.000000   3684781   3685521   3686092   3686512   3686824  
  4600.000000   3687044   3687211   3687325   3687406   3687433  
  4590.000000   3687407   3687299   3687107   3686806   3686401  
  4580.000000   3685874   3685231   3684463   3683577   3682573  
  4570.000000   3681471   3680281   3679030   3677729   3676391  
  4560.000000   3675008   3673577   3672081   3670516   3668880  
  4550.000000   3667188   3665454   3663697   3661932   3660161  
  4540.000000   3658389   3656614   3654848   3653103   3651417  
  4530.000000   3649813   3648334   3646991   3645816   3644795  
  4520.000000   3643950   3643260   3642758   3642427   3642317  
  4510.000000   3642418   3642795   3643447   3644460   3645839  
  4500.000000   3647688   3650010   3652904   3656355   3660442  
  4490.000000   3665131   3670490   3676477   3683159   3690490  
  4480.000000   3698527   3707212   3716586   3726580   3737223  
  4470.000000   3748444   3760264   3772611   3785488   3798809  
  4460.000000   3812551   3826618   3840968   3855507   3870191  
  4450.000000   3884939   3899713   3914455   3929143   3943752  
  4440.000000   3958275   3972719   3987081   4001380   4015590  
  4430.000000   4029722   4043724   4057596   4071263   4084726  
  4420.000000   4097893   4110759   4123216   4135238   4146696  
  4410.000000   4157551   4167667   4177014   4185487   4193100  
  4400.000000   4199811   4205699   4210787   4215204   4219013  
  4390.000000   4222360   4225317   4228017   4230522   4232937  
  4380.000000   4235303   4237698   4240147   4242711   4245421  
  4370.000000   4248331   4251478   4254907   4258641   4262690  
  4360.000000   4267043   4271676   4276547   4281617   4286823  
  4350.000000   4292129   4297457   4302783   4308035   4313218  
  4340.000000   4318288   4323263   4328078   4332667   4336826  
  4330.000000   4340309   4342759   4343858   4343331   4341098  
  4320.000000   4337263   4332179   4326319   4320260   4314486  
  4310.000000   4309393   4305155   4301816   4299255   4297325  
  4300.000000   4295848   4294703   4293800   4293091   4292556  
  4290.000000   4292165   4291915   4291783   4291780   4291902  
  4280.000000   4292166   4292575   4293123   4293801   4294579  
  4270.000000   4295449   4296373   4297323   4298209   4298912  
  4260.000000   4299239   4298980   4297910   4295875   4292807  
  4250.000000   4288779   4283966   4278655   4273143   4267739  
  4240.000000   4262657   4258055   4253965   4250370   4247171  
  4230.000000   4244264   4241521   4238835   4236116   4233299  
  4220.000000   4230358   4227280   4224106   4220869   4217652  
  4210.000000   4214511   4211534   4208767   4206272   4204060  
  4200.000000   4202151   4200520   4199155   4198003   4197045  
  4190.000000   4196229   4195553   4194983   4194546   4194222  
  4180.000000   4194057   4194036   4194212   4194574   4195188  
  4170.000000   4196056   4197259   4198808   4200787   4203195  
  4160.000000   4206100   4209482   4213390   4217788   4222720  
  4150.000000   4228143   4234092   4240512   4247431   4254787  
  4140.000000   4262610   4270847   4279542   4288648   4298212  
  4130.000000   4308176   4318571   4329332   4340486   4351988  
  4120.000000   4363892   4376186   4388942   4402156   4415883  
  4110.000000   4430096   4444811   4459970   4475555   4491484  
  4100.000000   4507715   4524159   4540769   4557477   4574264  
  4090.000000   4591109   4608022   4625017   4642106   4659303  
  4080.000000   4676592   4693970   4711394   4728850   4746268  
  4070.000000   4763620   4780804   4797780   4814434   4830739  
  4060.000000   4846598   4862013   4876902   4891283   4905076  
  4050.000000   4918317   4930945   4943040   4954566   4965616  
  4040.000000   4976124   4986133   4995508   5004251   5012218  
  4030.000000   5019448   5025856   5031532   5036424   5040603  
  4020.000000   5043968   5046563   5048335   5049348   5049545  
  4010.000000   5049067   5047995   5046378   5044032   5041043  
  4000.000000   5037727  
##END= 
