##TITLE= Sample 027 By ssteindl date Dienstag, November 20 2018
##JCAMP-DX= 4.24
##DATA TYPE= INFRARED SPECTRUM
##ORIGIN= Exported PE Spectrum Data File
##OWNER= Sandra Steindl
##DATE= 18/11/20
##TIME= 14:52:02.00
##SPECTROMETER/DATA SYSTEM= PERKIN-ELMER Frontier FT-IR/NIR IR
##INSTRUMENT PARAMETERS=
  APODIZATION=stark
  DETECTOR=INGAAS
##RESOLUTION= 16.000000
##DELTAX= -2.000000
##XUNITS= 1/CM
##YUNITS= A
##XFACTOR= 1.00
##YFACTOR= 0.00000011920928955078
##FIRSTX= 10000.00
##LASTX= 4000.00
##NPOINTS= 3001
##FIRSTY= 0.198698
##MAXY= 0.615603
##MINY= 0.174604
##XYDATA= (X++(Y..Y))
 10000.000000   1666801   1661651   1657036   1653921   1652903  
  9990.000000   1653733   1655470   1656833   1656752   1654815  
  9980.000000   1651527   1648016   1645605   1645163   1646880  
  9970.000000   1650111   1653770   1656645   1657875   1657095  
  9960.000000   1654523   1650771   1646687   1643155   1640969  
  9950.000000   1640709   1642638   1646595   1651964   1657781  
  9940.000000   1662908   1666430   1667831   1667293   1665504  
  9930.000000   1663526   1662348   1662595   1664330   1667016  
  9920.000000   1669729   1671378   1671032   1668113   1662510  
  9910.000000   1654603   1645139   1635183   1625870   1618309  
  9900.000000   1613291   1611184   1611800   1614466   1618198  
  9890.000000   1621942   1624838   1626338   1626276   1624748  
  9880.000000   1622078   1618628   1614885   1611301   1608447  
  9870.000000   1606789   1606723   1608338   1611358   1615165  
  9860.000000   1618868   1621660   1623006   1622942   1622055  
  9850.000000   1621306   1621714   1623920   1627972   1633171  
  9840.000000   1638291   1641875   1642740   1640343   1635030  
  9830.000000   1627966   1620831   1615354   1612790   1613599  
  9820.000000   1617297   1622700   1628285   1632749   1635291  
  9810.000000   1635882   1635047   1633700   1632707   1632653  
  9800.000000   1633695   1635569   1637763   1639624   1640511  
  9790.000000   1639893   1637417   1633056   1627124   1620344  
  9780.000000   1613707   1608269   1604849   1603728   1604517  
  9770.000000   1606198   1607468   1607184   1604794   1600555  
  9760.000000   1595419   1590701   1587590   1586776   1588285  
  9750.000000   1591551   1595741   1600004   1603768   1606714  
  9740.000000   1608753   1609819   1609830   1608671   1606337  
  9730.000000   1603046   1599302   1595806   1593274   1592231  
  9720.000000   1592840   1594911   1597957   1601388   1604630  
  9710.000000   1607211   1608805   1609173   1608250   1606102  
  9700.000000   1603038   1599547   1596259   1593787   1592579  
  9690.000000   1592844   1594502   1597339   1601012   1605249  
  9680.000000   1609726   1614152   1618104   1621118   1622745  
  9670.000000   1622696   1621023   1618075   1614453   1610710  
  9660.000000   1607168   1603767   1600129   1595829   1590649  
  9650.000000   1584860   1579185   1574627   1572051   1571851  
  9640.000000   1573744   1576849   1580022   1582230   1582922  
  9630.000000   1582111   1580315   1578274   1576702   1576082  
  9620.000000   1576632   1578327   1581000   1584370   1588052  
  9610.000000   1591551   1594271   1595652   1595283   1593124  
  9600.000000   1589522   1585213   1581075   1577870   1575966  
  9590.000000   1575227   1575101   1574841   1573821   1571723  
  9580.000000   1568635   1564928   1561064   1557432   1554208  
  9570.000000   1551431   1549075   1547222   1546129   1546194  
  9560.000000   1547809   1551145   1555960   1561539   1566803  
  9550.000000   1570565   1571930   1570523   1566717   1561428  
  9540.000000   1555914   1551317   1548360   1547170   1547302  
  9530.000000   1548018   1548591   1548654   1548259   1547849  
  9520.000000   1547909   1548738   1550233   1551914   1553171  
  9510.000000   1553447   1552572   1550700   1548329   1546001  
  9500.000000   1544130   1542862   1542085   1541635   1541435  
  9490.000000   1541677   1542717   1544930   1548429   1552931  
  9480.000000   1557760   1562038   1564960   1566022   1565145  
  9470.000000   1562633   1559023   1554922   1550855   1547240  
  9460.000000   1544374   1542487   1541697   1541968   1543006  
  9450.000000   1544270   1545035   1544621   1542604   1539002  
  9440.000000   1534311   1529369   1525117   1522297   1521258  
  9430.000000   1521889   1523737   1526189   1528689   1530850  
  9420.000000   1532500   1533609   1534207   1534305   1533886  
  9410.000000   1532952   1531591   1530005   1528486   1527335  
  9400.000000   1526780   1526910   1527663   1528840   1530134  
  9390.000000   1531182   1531595   1531051   1529345   1526475  
  9380.000000   1522682   1518440   1514441   1511417   1510002  
  9370.000000   1510449   1512544   1515599   1518644   1520716  
  9360.000000   1521139   1519757   1517015   1513878   1511552  
  9350.000000   1511100   1513068   1517290   1522925   1528727  
  9340.000000   1533408   1536014   1536175   1534182   1530831  
  9330.000000   1527113   1523859   1521492   1519988   1518983  
  9320.000000   1518007   1516681   1514852   1512649   1510371  
  9310.000000   1508394   1506977   1506237   1506153   1506617  
  9300.000000   1507505   1508644   1509838   1510840   1511427  
  9290.000000   1511467   1511003   1510275   1509692   1509712  
  9280.000000   1510679   1512640   1515277   1517997   1520132  
  9270.000000   1521180   1520929   1519522   1517347   1514930  
  9260.000000   1512751   1511125   1510175   1509838   1509963  
  9250.000000   1510301   1510544   1510304   1509222   1507074  
  9240.000000   1503918   1500152   1496473   1493733   1492663  
  9230.000000   1493650   1496532   1500692   1505242   1509364  
  9220.000000   1512543   1514679   1516021   1516912   1517592  
  9210.000000   1517996   1517833   1516684   1514288   1510692  
  9200.000000   1506344   1501969   1498331   1496047   1495364  
  9190.000000   1496213   1498180   1500720   1503250   1505305  
  9180.000000   1506598   1507011   1506597   1505518   1504037  
  9170.000000   1502438   1500961   1499728   1498752   1497973  
  9160.000000   1497343   1496878   1496659   1496800   1497339  
  9150.000000   1498166   1498958   1499251   1498601   1496779  
  9140.000000   1493931   1490555   1487370   1485081   1484127  
  9130.000000   1484546   1485935   1487674   1489133   1489942  
  9120.000000   1490037   1489653   1489152   1488821   1488756  
  9110.000000   1488771   1488555   1487718   1486026   1483401  
  9100.000000   1480015   1476176   1472292   1468814   1466160  
  9090.000000   1464709   1464684   1466176   1469069   1473047  
  9080.000000   1477602   1482142   1486116   1489104   1490875  
  9070.000000   1491395   1490834   1489470   1487645   1485682  
  9060.000000   1483885   1482463   1481508   1480965   1480650  
  9050.000000   1480296   1479609   1478384   1476549   1474217  
  9040.000000   1471633   1469140   1467090   1465770   1465358  
  9030.000000   1465891   1467309   1469421   1471959   1474561  
  9020.000000   1476863   1478519   1479331   1479270   1478548  
  9010.000000   1477538   1476701   1476441   1477002   1478415  
  9000.000000   1480485   1482921   1485387   1487659   1489605  
  8990.000000   1491219   1492545   1493623   1494450   1494936  
  8980.000000   1494942   1494299   1492883   1490659   1487731  
  8970.000000   1484389   1481088   1478387   1476800   1476669  
  8960.000000   1478012   1480489   1483442   1486079   1487724  
  8950.000000   1488026   1487088   1485399   1483678   1482603  
  8940.000000   1482603   1483712   1485613   1487793   1489773  
  8930.000000   1491262   1492210   1492771   1493170   1493594  
  8920.000000   1494088   1494577   1494927   1495015   1494803  
  8910.000000   1494325   1493695   1493025   1492413   1491923  
  8900.000000   1491593   1491460   1491544   1491846   1492328  
  8890.000000   1492920   1493533   1494126   1494719   1495413  
  8880.000000   1496324   1497536   1499031   1500668   1502220  
  8870.000000   1503437   1504153   1504318   1504031   1503459  
  8860.000000   1502782   1502107   1501445   1500754   1499973  
  8850.000000   1499124   1498299   1497683   1497471   1497821  
  8840.000000   1498769   1500221   1501946   1503635   1504958  
  8830.000000   1505620   1505435   1504361   1502556   1500333  
  8820.000000   1498132   1496390   1495456   1495475   1496349  
  8810.000000   1497775   1499334   1500650   1501497   1501877  
  8800.000000   1501993   1502152   1502652   1503643   1505112  
  8790.000000   1506853   1508592   1510017   1510921   1511197  
  8780.000000   1510898   1510197   1509359   1508693   1508484  
  8770.000000   1508953   1510192   1512158   1514654   1517398  
  8760.000000   1520087   1522491   1524506   1526146   1527510  
  8750.000000   1528685   1529704   1530488   1530922   1530881  
  8740.000000   1530366   1529514   1528609   1527993   1527964  
  8730.000000   1528708   1530221   1532367   1534880   1537513  
  8720.000000   1540057   1542425   1544613   1546684   1548713  
  8710.000000   1550743   1552754   1554644   1556251   1557368  
  8700.000000   1557817   1557489   1556417   1554793   1552940  
  8690.000000   1551241   1550030   1549502   1549664   1550340  
  8680.000000   1551241   1552075   1552656   1552964   1553133  
  8670.000000   1553400   1554018   1555172   1556951   1559315  
  8660.000000   1562146   1565248   1568409   1571393   1574011  
  8650.000000   1576119   1577681   1578753   1579499   1580126  
  8640.000000   1580835   1581745   1582866   1584116   1585382  
  8630.000000   1586608   1587821   1589162   1590794   1592846  
  8620.000000   1595306   1598013   1600696   1603059   1604899  
  8610.000000   1606157   1606939   1607453   1607920   1608503  
  8600.000000   1609268   1610219   1611329   1612598   1614047  
  8590.000000   1615701   1617533   1619437   1621228   1622694  
  8580.000000   1623678   1624138   1624175   1623993   1623843  
  8570.000000   1623938   1624402   1625259   1626453   1627907  
  8560.000000   1629545   1631314   1633167   1635043   1636853  
  8550.000000   1638484   1639836   1640854   1641558   1642032  
  8540.000000   1642399   1642793   1643319   1644051   1645011  
  8530.000000   1646199   1647584   1649110   1650677   1652143  
  8520.000000   1653336   1654096   1654313   1653979   1653216  
  8510.000000   1652247   1651366   1650840   1650869   1651503  
  8500.000000   1652653   1654106   1655599   1656883   1657801  
  8490.000000   1658335   1658615   1658885   1659433   1660496  
  8480.000000   1662193   1664476   1667145   1669898   1672436  
  8470.000000   1674531   1676102   1677201   1677983   1678620  
  8460.000000   1679245   1679904   1680584   1681233   1681826  
  8450.000000   1682385   1682975   1683685   1684563   1685619  
  8440.000000   1686794   1688023   1689252   1690490   1691790  
  8430.000000   1693233   1694864   1696659   1698502   1700219  
  8420.000000   1701629   1702613   1703148   1703321   1703297  
  8410.000000   1703263   1703367   1703674   1704156   1704710  
  8400.000000   1705198   1705499   1705541   1705344   1705003  
  8390.000000   1704686   1704559   1704776   1705406   1706444  
  8380.000000   1707784   1709266   1710722   1712006   1713024  
  8370.000000   1713720   1714071   1714069   1713711   1713017  
  8360.000000   1712045   1710926   1709850   1709045   1708690  
  8350.000000   1708879   1709557   1710550   1711577   1712365  
  8340.000000   1712701   1712508   1711836   1710827   1709661  
  8330.000000   1708496   1707443   1706558   1705850   1705303  
  8320.000000   1704884   1704549   1704248   1703922   1703529  
  8310.000000   1703048   1702502   1701934   1701392   1700892  
  8300.000000   1700409   1699903   1699361   1698854   1698543  
  8290.000000   1698659   1699409   1700885   1702975   1705337  
  8280.000000   1707466   1708835   1709080   1708105   1706135  
  8270.000000   1703629   1701141   1699148   1697903   1697411  
  8260.000000   1697446   1697715   1697940   1697994   1697865  
  8250.000000   1697659   1697490   1697425   1697425   1697347  
  8240.000000   1697007   1696222   1694890   1692993   1690623  
  8230.000000   1687958   1685232   1682729   1680709   1679395  
  8220.000000   1678890   1679180   1680089   1681329   1682526  
  8210.000000   1683319   1683432   1682744   1681311   1679330  
  8200.000000   1677087   1674860   1672866   1671202   1669845  
  8190.000000   1668682   1667567   1666397   1665131   1663834  
  8180.000000   1662618   1661621   1660925   1660540   1660371  
  8170.000000   1660248   1659970   1659363   1658342   1656916  
  8160.000000   1655196   1653331   1651468   1649706   1648075  
  8150.000000   1646554   1645098   1643675   1642293   1640995  
  8140.000000   1639837   1638846   1637996   1637202   1636340  
  8130.000000   1635298   1634020   1632536   1630968   1629506  
  8120.000000   1628350   1627658   1627486   1627764   1628303  
  8110.000000   1628831   1629068   1628779   1627853   1626309  
  8100.000000   1624310   1622099   1619952   1618101   1616687  
  8090.000000   1615745   1615205   1614955   1614859   1614829  
  8080.000000   1614802   1614772   1614733   1614680   1614578  
  8070.000000   1614359   1613945   1613246   1612203   1610780  
  8060.000000   1608999   1606918   1604652   1602344   1600156  
  8050.000000   1598239   1596700   1595585   1594864   1594449  
  8040.000000   1594218   1594063   1593914   1593758   1593630  
  8030.000000   1593580   1593641   1593802   1594009   1594177  
  8020.000000   1594233   1594127   1593858   1593445   1592918  
  8010.000000   1592288   1591549   1590677   1589668   1588539  
  8000.000000   1587346   1586160   1585044   1584032   1583117  
  7990.000000   1582271   1581470   1580726   1580093   1579653  
  7980.000000   1579474   1579570   1579873   1580242   1580508  
  7970.000000   1580525   1580233   1579662   1578928   1578163  
  7960.000000   1577475   1576896   1576390   1575869   1575255  
  7950.000000   1574510   1573662   1572785   1571972   1571292  
  7940.000000   1570767   1570377   1570077   1569828   1569617  
  7930.000000   1569451   1569350   1569318   1569335   1569352  
  7920.000000   1569323   1569220   1569058   1568887   1568779  
  7910.000000   1568784   1568914   1569125   1569334   1569452  
  7900.000000   1569422   1569239   1568961   1568679   1568495  
  7890.000000   1568470   1568616   1568881   1569175   1569401  
  7880.000000   1569478   1569382   1569137   1568819   1568528  
  7870.000000   1568364   1568390   1568623   1569015   1569470  
  7860.000000   1569857   1570054   1569971   1569584   1568938  
  7850.000000   1568137   1567311   1566574   1565996   1565575  
  7840.000000   1565255   1564939   1564541   1564008   1563351  
  7830.000000   1562639   1561976   1561477   1561226   1561268  
  7820.000000   1561586   1562121   1562780   1563460   1564067  
  7810.000000   1564527   1564788   1564826   1564633   1564213  
  7800.000000   1563581   1562753   1561764   1560656   1559494  
  7790.000000   1558355   1557315   1556438   1555747   1555231  
  7780.000000   1554833   1554487   1554131   1553739   1553331  
  7770.000000   1552957   1552681   1552536   1552507   1552524  
  7760.000000   1552489   1552312   1551952   1551445   1550889  
  7750.000000   1550421   1550148   1550122   1550299   1550562  
  7740.000000   1550757   1550741   1550427   1549798   1548895  
  7730.000000   1547790   1546553   1545241   1543895   1542570  
  7720.000000   1541339   1540304   1539564   1539179   1539130  
  7710.000000   1539306   1539519   1539562   1539272   1538592  
  7700.000000   1537597   1536470   1535453   1534766   1534538  
  7690.000000   1534774   1535359   1536097   1536782   1537244  
  7680.000000   1537394   1537223   1536779   1536138   1535373  
  7670.000000   1534535   1533672   1532819   1532026   1531345  
  7660.000000   1530828   1530504   1530365   1530377   1530474  
  7650.000000   1530597   1530701   1530775   1530837   1530908  
  7640.000000   1531005   1531112   1531192   1531188   1531062  
  7630.000000   1530803   1530452   1530081   1529776   1529598  
  7620.000000   1529570   1529660   1529807   1529939   1530008  
  7610.000000   1530001   1529947   1529897   1529902   1529994  
  7600.000000   1530182   1530455   1530802   1531219   1531719  
  7590.000000   1532316   1533013   1533787   1534582   1535320  
  7580.000000   1535925   1536348   1536589   1536694   1536750  
  7570.000000   1536849   1537071   1537441   1537939   1538492  
  7560.000000   1539011   1539408   1539633   1539682   1539608  
  7550.000000   1539507   1539498   1539687   1540143   1540873  
  7540.000000   1541827   1542908   1544007   1545026   1545915  
  7530.000000   1546672   1547346   1548003   1548705   1549481  
  7520.000000   1550334   1551232   1552148   1553062   1553987  
  7510.000000   1554948   1555982   1557104   1558313   1559573  
  7500.000000   1560843   1562084   1563289   1564473   1565678  
  7490.000000   1566950   1568330   1569835   1571467   1573202  
  7480.000000   1575015   1576864   1578712   1580509   1582209  
  7470.000000   1583763   1585149   1586371   1587484   1588574  
  7460.000000   1589753   1591126   1592766   1594683   1596829  
  7450.000000   1599099   1601370   1603524   1605487   1607232  
  7440.000000   1608809   1610306   1611845   1613534   1615460  
  7430.000000   1617651   1620089   1622701   1625391   1628063  
  7420.000000   1630643   1633099   1635435   1637692   1639917  
  7410.000000   1642151   1644416   1646700   1648975   1651188  
  7400.000000   1653297   1655259   1657052   1658672   1660143  
  7390.000000   1661518   1662873   1664308   1665918   1667790  
  7380.000000   1669967   1672444   1675151   1677985   1680827  
  7370.000000   1683573   1686150   1688525   1690700   1692693  
  7360.000000   1694529   1696231   1697822   1699336   1700824  
  7350.000000   1702357   1704010   1705848   1707886   1710090  
  7340.000000   1712361   1714575   1716599   1718346   1719792  
  7330.000000   1720993   1722061   1723149   1724399   1725913  
  7320.000000   1727718   1729769   1731959   1734152   1736208  
  7310.000000   1738021   1739534   1740755   1741741   1742584  
  7300.000000   1743385   1744232   1745190   1746283   1747502  
  7290.000000   1748803   1750119   1751377   1752519   1753515  
  7280.000000   1754375   1755154   1755932   1756803   1757835  
  7270.000000   1759061   1760465   1761992   1763572   1765136  
  7260.000000   1766644   1768081   1769457   1770776   1772040  
  7250.000000   1773223   1774311   1775289   1776189   1777070  
  7240.000000   1778029   1779151   1780499   1782078   1783856  
  7230.000000   1785765   1787755   1789796   1791911   1794134  
  7220.000000   1796517   1799067   1801770   1804556   1807358  
  7210.000000   1810100   1812762   1815345   1817904   1820495  
  7200.000000   1823183   1826004   1828983   1832116   1835401  
  7190.000000   1838813   1842328   1845895   1849466   1852977  
  7180.000000   1856394   1859697   1862922   1866122   1869379  
  7170.000000   1872753   1876294   1879999   1883854   1887816  
  7160.000000   1891865   1895977   1900164   1904427   1908780  
  7150.000000   1913205   1917696   1922222   1926790   1931402  
  7140.000000   1936109   1940948   1945978   1951216   1956676  
  7130.000000   1962327   1968142   1974067   1980081   1986150  
  7120.000000   1992284   1998479   2004763   2011133   2017593  
  7110.000000   2024107   2030643   2037144   2043587   2049963  
  7100.000000   2056318   2062716   2069250   2075980   2082932  
  7090.000000   2090065   2097302   2104536   2111692   2118731  
  7080.000000   2125682   2132607   2139587   2146672   2153877  
  7070.000000   2161163   2168475   2175754   2182976   2190144  
  7060.000000   2197286   2204424   2211565   2218688   2225760  
  7050.000000   2232753   2239667   2246528   2253381   2260268  
  7040.000000   2267204   2274174   2281130   2288028   2294829  
  7030.000000   2301538   2308178   2314799   2321439   2328127  
  7020.000000   2334849   2341585   2348283   2354905   2361401  
  7010.000000   2367744   2373905   2379877   2385658   2391271  
  7000.000000   2396738   2402093   2407346   2412506   2417548  
  6990.000000   2422465   2427241   2431910   2436499   2441075  
  6980.000000   2445657   2450261   2454832   2459314   2463629  
  6970.000000   2467740   2471631   2475331   2478859   2482236  
  6960.000000   2485438   2488438   2491196   2493724   2496064  
  6950.000000   2498322   2500593   2502969   2505469   2508072  
  6940.000000   2510698   2513274   2515733   2518059   2520249  
  6930.000000   2522328   2524298   2526167   2527924   2529582  
  6920.000000   2531167   2532731   2534315   2535947   2537603  
  6910.000000   2539237   2540779   2542193   2543472   2544663  
  6900.000000   2545822   2547001   2548201   2549385   2550481  
  6890.000000   2551431   2552213   2552864   2553463   2554101  
  6880.000000   2554840   2555704   2556668   2557688   2558724  
  6870.000000   2559760   2560802   2561865   2562952   2564048  
  6860.000000   2565112   2566110   2567020   2567851   2568634  
  6850.000000   2569410   2570199   2571003   2571794   2572540  
  6840.000000   2573208   2573787   2574273   2574667   2574963  
  6830.000000   2575158   2575249   2575268   2575267   2575330  
  6820.000000   2575532   2575923   2576485   2577152   2577814  
  6810.000000   2578370   2578751   2578951   2579008   2578991  
  6800.000000   2578963   2578962   2578994   2579050   2579112  
  6790.000000   2579175   2579229   2579266   2579254   2579153  
  6780.000000   2578920   2578542   2578042   2577486   2576952  
  6770.000000   2576504   2576152   2575854   2575530   2575101  
  6760.000000   2574526   2573828   2573082   2572391   2571836  
  6750.000000   2571456   2571229   2571097   2570985   2570836  
  6740.000000   2570618   2570320   2569944   2569489   2568951  
  6730.000000   2568332   2567649   2566942   2566261   2565651  
  6720.000000   2565127   2564670   2564226   2563731   2563137  
  6710.000000   2562432   2561632   2560782   2559922   2559085  
  6700.000000   2558279   2557512   2556784   2556109   2555497  
  6690.000000   2554946   2554427   2553884   2553240   2552434  
  6680.000000   2551436   2550267   2548983   2547664   2546377  
  6670.000000   2545162   2544023   2542947   2541910   2540909  
  6660.000000   2539938   2539000   2538073   2537119   2536082  
  6650.000000   2534922   2533625   2532225   2530781   2529369  
  6640.000000   2528033   2526784   2525581   2524376   2523114  
  6630.000000   2521785   2520399   2518995   2517596   2516202  
  6620.000000   2514773   2513253   2511585   2509746   2507751  
  6610.000000   2505653   2503517   2501402   2499345   2497366  
  6600.000000   2495469   2493665   2491965   2490384   2488920  
  6590.000000   2487554   2486238   2484921   2483557   2482125  
  6580.000000   2480632   2479103   2477569   2476039   2474508  
  6570.000000   2472948   2471336   2469665   2467953   2466240  
  6560.000000   2464573   2462990   2461505   2460108   2458773  
  6550.000000   2457467   2456167   2454857   2453533   2452191  
  6540.000000   2450837   2449474   2448116   2446778   2445488  
  6530.000000   2444263   2443115   2442039   2441016   2440020  
  6520.000000   2439031   2438038   2437041   2436051   2435073  
  6510.000000   2434108   2433144   2432162   2431146   2430085  
  6500.000000   2428975   2427817   2426616   2425377   2424107  
  6490.000000   2422823   2421549   2420322   2419171   2418116  
  6480.000000   2417148   2416230   2415308   2414318   2413215  
  6470.000000   2411980   2410626   2409188   2407721   2406271  
  6460.000000   2404883   2403586   2402400   2401334   2400383  
  6450.000000   2399535   2398761   2398029   2397307   2396573  
  6440.000000   2395823   2395059   2394294   2393520   2392724  
  6430.000000   2391871   2390936   2389907   2388814   2387717  
  6420.000000   2386697   2385826   2385144   2384640   2384260  
  6410.000000   2383924   2383563   2383136   2382647   2382133  
  6400.000000   2381648   2381234   2380908   2380655   2380438  
  6390.000000   2380209   2379932   2379589   2379184   2378735  
  6380.000000   2378272   2377823   2377407   2377032   2376690  
  6370.000000   2376358   2376003   2375595   2375109   2374547  
  6360.000000   2373928   2373295   2372689   2372149   2371682  
  6350.000000   2371276   2370888   2370475   2369991   2369409  
  6340.000000   2368715   2367915   2367015   2366036   2364995  
  6330.000000   2363920   2362838   2361785   2360787   2359860  
  6320.000000   2358994   2358161   2357316   2356416   2355425  
  6310.000000   2354332   2353140   2351873   2350555   2349214  
  6300.000000   2347868   2346537   2345229   2343957   2342713  
  6290.000000   2341487   2340249   2338971   2337620   2336183  
  6280.000000   2334654   2333053   2331398   2329711   2328001  
  6270.000000   2326276   2324529   2322767   2320994   2319225  
  6260.000000   2317457   2315679   2313860   2311961   2309947  
  6250.000000   2307811   2305571   2303279   2300992   2298761  
  6240.000000   2296604   2294515   2292465   2290429   2288391  
  6230.000000   2286365   2284370   2282425   2280526   2278645  
  6220.000000   2276734   2274746   2272655   2270468   2268222  
  6210.000000   2265968   2263756   2261613   2259541   2257526  
  6200.000000   2255550   2253607   2251704   2249859   2248087  
  6190.000000   2246389   2244748   2243130   2241499   2239825  
  6180.000000   2238093   2236307   2234485   2232652   2230840  
  6170.000000   2229073   2227376   2225761   2224230   2222766  
  6160.000000   2221344   2219924   2218471   2216961   2215388  
  6150.000000   2213766   2212125   2210490   2208884   2207309  
  6140.000000   2205763   2204234   2202720   2201228   2199774  
  6130.000000   2198378   2197051   2195794   2194595   2193437  
  6120.000000   2192306   2191189   2190084   2188986   2187892  
  6110.000000   2186791   2185676   2184539   2183392   2182251  
  6100.000000   2181152   2180128   2179209   2178408   2177730  
  6090.000000   2177156   2176670   2176240   2175845   2175452  
  6080.000000   2175044   2174594   2174104   2173572   2173032  
  6070.000000   2172514   2172067   2171718   2171496   2171401  
  6060.000000   2171432   2171568   2171808   2172140   2172574  
  6050.000000   2173105   2173738   2174459   2175265   2176142  
  6040.000000   2177100   2178139   2179287   2180552   2181953  
  6030.000000   2183477   2185120   2186853   2188664   2190526  
  6020.000000   2192435   2194373   2196338   2198317   2200309  
  6010.000000   2202307   2204323   2206358   2208432   2210542  
  6000.000000   2212696   2214879   2217089   2219312   2221558  
  5990.000000   2223831   2226151   2228528   2230978   2233499  
  5980.000000   2236102   2238790   2241584   2244498   2247552  
  5970.000000   2250738   2254043   2257418   2260821   2264198  
  5960.000000   2267531   2270805   2274043   2277262   2280489  
  5950.000000   2283729   2286992   2290275   2293596   2296979  
  5940.000000   2300467   2304096   2307895   2311861   2315968  
  5930.000000   2320163   2324386   2328585   2332720   2336767  
  5920.000000   2340716   2344558   2348283   2351881   2355341  
  5910.000000   2358664   2361857   2364943   2367947   2370900  
  5900.000000   2373825   2376747   2379678   2382636   2385626  
  5890.000000   2388655   2391714   2394792   2397862   2400904  
  5880.000000   2403892   2406815   2409663   2412435   2415131  
  5870.000000   2417746   2420275   2422712   2425059   2427320  
  5860.000000   2429511   2431648   2433754   2435847   2437949  
  5850.000000   2440083   2442277   2444560   2446956   2449481  
  5840.000000   2452135   2454900   2457747   2460640   2463548  
  5830.000000   2466445   2469312   2472135   2474895   2477574  
  5820.000000   2480156   2482633   2485008   2487300   2489530  
  5810.000000   2491725   2493885   2496015   2498084   2500084  
  5800.000000   2501987   2503814   2505561   2507268   2508923  
  5790.000000   2510538   2512057   2513436   2514581   2515420  
  5780.000000   2515853   2515818   2515246   2514122   2512445  
  5770.000000   2510282   2507720   2504902   2501964   2499056  
  5760.000000   2496281   2493725   2491418   2489380   2487596  
  5750.000000   2486056   2484729   2483585   2482580   2481664  
  5740.000000   2480794   2479934   2479080   2478232   2477424  
  5730.000000   2476668   2475983   2475354   2474768   2474195  
  5720.000000   2473628   2473062   2472518   2472015   2471575  
  5710.000000   2471203   2470897   2470640   2470421   2470229  
  5700.000000   2470061   2469918   2469798   2469701   2469621  
  5690.000000   2469561   2469522   2469517   2469545   2469606  
  5680.000000   2469669   2469702   2469646   2469460   2469099  
  5670.000000   2468548   2467790   2466827   2465654   2464273  
  5660.000000   2462687   2460919   2459003   2457002   2454973  
  5650.000000   2452977   2451047   2449203   2447440   2445757  
  5640.000000   2444146   2442617   2441173   2439816   2438530  
  5630.000000   2437286   2436052   2434802   2433534   2432262  
  5620.000000   2431021   2429836   2428721   2427665   2426639  
  5610.000000   2425612   2424565   2423502   2422445   2421425  
  5600.000000   2420464   2419567   2418718   2417887   2417043  
  5590.000000   2416166   2415249   2414296   2413314   2412312  
  5580.000000   2411294   2410266   2409233   2408206   2407189  
  5570.000000   2406179   2405155   2404090   2402948   2401710  
  5560.000000   2400375   2398967   2397528   2396102   2394717  
  5550.000000   2393385   2392095   2390832   2389584   2388353  
  5540.000000   2387153   2386003   2384914   2383883   2382890  
  5530.000000   2381913   2380930   2379928   2378906   2377866  
  5520.000000   2376810   2375732   2374622   2373473   2372286  
  5510.000000   2371071   2369843   2368615   2367387   2366157  
  5500.000000   2364912   2363654   2362393   2361160   2359982  
  5490.000000   2358877   2357827   2356795   2355715   2354535  
  5480.000000   2353214   2351756   2350186   2348551   2346887  
  5470.000000   2345216   2343531   2341816   2340047   2338216  
  5460.000000   2336322   2334377   2332384   2330345   2328248  
  5450.000000   2326093   2323883   2321645   2319413   2317221  
  5440.000000   2315091   2313020   2310992   2308983   2306986  
  5430.000000   2305004   2303060   2301174   2299364   2297621  
  5420.000000   2295942   2294313   2292748   2291266   2289914  
  5410.000000   2288712   2287678   2286780   2285990   2285258  
  5400.000000   2284575   2283938   2283393   2282969   2282711  
  5390.000000   2282615   2282684   2282884   2283221   2283689  
  5380.000000   2284332   2285169   2286234   2287503   2288960  
  5370.000000   2290535   2292207   2293928   2295724   2297592  
  5360.000000   2299598   2301751   2304118   2306702   2309574  
  5350.000000   2312740   2316279   2320186   2324526   2329264  
  5340.000000   2334439   2339999   2345998   2352396   2359262  
  5330.000000   2366549   2374312   2382482   2391104   2400121  
  5320.000000   2409625   2419608   2430214   2441446   2453436  
  5310.000000   2466139   2479632   2493824   2508776   2524414  
  5300.000000   2540833   2558002   2576051   2594970   2614882  
  5290.000000   2635747   2657621   2680383   2703989   2728249  
  5280.000000   2753094   2778389   2804167   2830423   2857285  
  5270.000000   2884782   2912953   2941680   2970801   3000084  
  5260.000000   3029340   3058462   3087435   3116336   3145215  
  5250.000000   3174099   3202856   3231326   3259217   3286360  
  5240.000000   3312571   3337898   3362357   3386149   3409326  
  5230.000000   3432030   3454177   3475759   3496576   3516580  
  5220.000000   3535610   3553727   3570892   3587279   3602911  
  5210.000000   3617959   3632385   3646252   3659412   3671857  
  5200.000000   3683430   3694181   3704050   3713176   3721551  
  5190.000000   3729307   3736393   3742879   3748673   3753837  
  5180.000000   3758310   3762195   3765463   3768212   3770386  
  5170.000000   3772034   3773073   3773550   3773415   3772758  
  5160.000000   3771571   3769950   3767874   3765405   3762502  
  5150.000000   3759219   3755538   3751536   3747212   3742631  
  5140.000000   3737766   3732645   3727232   3721562   3715639  
  5130.000000   3709544   3703314   3697026   3690690   3684329  
  5120.000000   3677908   3671423   3664850   3658207   3651501  
  5110.000000   3644765   3638004   3631231   3624433   3617615  
  5100.000000   3610777   3603945   3597145   3590408   3583747  
  5090.000000   3577164   3570638   3564146   3557663   3551178  
  5080.000000   3544684   3538189   3531694   3525202   3518707  
  5070.000000   3512209   3505704   3499200   3492698   3486207  
  5060.000000   3479716   3473214   3466670   3460063   3453369  
  5050.000000   3446588   3439727   3432809   3425854   3418881  
  5040.000000   3411897   3404902   3397891   3390860   3383812  
  5030.000000   3376758   3369717   3362708   3355759   3348884  
  5020.000000   3342107   3335434   3328880   3322439   3316118  
  5010.000000   3309901   3303794   3297783   3291890   3286115  
  5000.000000   3280503   3275065   3269851   3264862   3260133  
  4990.000000   3255643   3251412   3247408   3243653   3240119  
  4980.000000   3236842   3233799   3231036   3228538   3226357  
  4970.000000   3224482   3222969   3221801   3221024   3220599  
  4960.000000   3220555   3220839   3221479   3222432   3223745  
  4950.000000   3225392   3227428   3229827   3232628   3235786  
  4940.000000   3239328   3243206   3247453   3252031   3256985  
  4930.000000   3262277   3267942   3273931   3280265   3286893  
  4920.000000   3293840   3301072   3308622   3316466   3324636  
  4910.000000   3333103   3341881   3350934   3360264   3369831  
  4900.000000   3379627   3389612   3399766   3410051   3420440  
  4890.000000   3430896   3441381   3451860   3462275   3472583  
  4880.000000   3482716   3492639   3502293   3511667   3520719  
  4870.000000   3529456   3537831   3545843   3553428   3560577  
  4860.000000   3567232   3573411   3579092   3584332   3589140  
  4850.000000   3593595   3597710   3601555   3605136   3608510  
  4840.000000   3611680   3614703   3617584   3620378   3623092  
  4830.000000   3625765   3628392   3630992   3633543   3636042  
  4820.000000   3638459   3640788   3643013   3645145   3647194  
  4810.000000   3649192   3651163   3653135   3655118   3657117  
  4800.000000   3659119   3661118   3663101   3665071   3667030  
  4790.000000   3668992   3670963   3672949   3674944   3676943  
  4780.000000   3678932   3680907   3682853   3684766   3686629  
  4770.000000   3688433   3690152   3691778   3693292   3694703  
  4760.000000   3696012   3697245   3698406   3699512   3700546  
  4750.000000   3701498   3702329   3703016   3703522   3703840  
  4740.000000   3703956   3703889   3703650   3703278   3702796  
  4730.000000   3702241   3701631   3700988   3700308   3699591  
  4720.000000   3698819   3697981   3697069   3696086   3695049  
  4710.000000   3693984   3692928   3691915   3690980   3690146  
  4700.000000   3689436   3688861   3688435   3688166   3688066  
  4690.000000   3688138   3688386   3688796   3689352   3690014  
  4680.000000   3690741   3691474   3692168   3692766   3693245  
  4670.000000   3693580   3693791   3693895   3693945   3693979  
  4660.000000   3694054   3694202   3694466   3694867   3695436  
  4650.000000   3696191   3697156   3698338   3699738   3701334  
  4640.000000   3703095   3704976   3706934   3708934   3710956  
  4630.000000   3712987   3715026   3717063   3719081   3721049  
  4620.000000   3722926   3724669   3726238   3727611   3728770  
  4610.000000   3729724   3730477   3731053   3731464   3731746  
  4600.000000   3731915   3732014   3732059   3732085   3732084  
  4590.000000   3732065   3731988   3731834   3731553   3731128  
  4580.000000   3730527   3729754   3728803   3727697   3726444  
  4570.000000   3725071   3723587   3722020   3720379   3718687  
  4560.000000   3716952   3715190   3713403   3711599   3709781  
  4550.000000   3707957   3706136   3704331   3702555   3700819  
  4540.000000   3699135   3697505   3695939   3694431   3692994  
  4530.000000   3691620   3690333   3689129   3688040   3687064  
  4520.000000   3686246   3685580   3685113   3684833   3684789  
  4510.000000   3684966   3685431   3686181   3687310   3688828  
  4500.000000   3690841   3693348   3696438   3700081   3704346  
  4490.000000   3709192   3714697   3720840   3727717   3735315  
  4480.000000   3743719   3752889   3762868   3773576   3785021  
  4470.000000   3797099   3809801   3823019   3836729   3850821  
  4460.000000   3865262   3879948   3894852   3909895   3925066  
  4450.000000   3940311   3955624   3970969   3986332   4001688  
  4440.000000   4017017   4032311   4047548   4062738   4077848  
  4430.000000   4092892   4107810   4122604   4137182   4151526  
  4420.000000   4165516   4179117   4192193   4204703   4216512  
  4410.000000   4227589   4237820   4247202   4255661   4263239  
  4400.000000   4269916   4275783   4280868   4285301   4289142  
  4390.000000   4292536   4295559   4298351   4300986   4303584  
  4380.000000   4306198   4308911   4311753   4314776   4318000  
  4370.000000   4321462   4325182   4329184   4333481   4338075  
  4360.000000   4342960   4348116   4353513   4359124   4364893  
  4350.000000   4370785   4376714   4382649   4388503   4394280  
  4340.000000   4399935   4405501   4410919   4416133   4420924  
  4330.000000   4425016   4428000   4429495   4429163   4426885  
  4320.000000   4422754   4417150   4410609   4403786   4397252  
  4310.000000   4391478   4386684   4382943   4380133   4378093  
  4300.000000   4376618   4375563   4374812   4374296   4373975  
  4290.000000   4373801   4373761   4373823   4374006   4374317  
  4280.000000   4374798   4375474   4376358   4377448   4378708  
  4270.000000   4380111   4381589   4383080   4384463   4385593  
  4260.000000   4386254   4386225   4385274   4383254   4380106  
  4250.000000   4375924   4370909   4365374   4359638   4354021  
  4240.000000   4348738   4343939   4339638   4335806   4332339  
  4230.000000   4329138   4326093   4323119   4320151   4317140  
  4220.000000   4314074   4310941   4307782   4304626   4301554  
  4210.000000   4298617   4295898   4293429   4291254   4289362  
  4200.000000   4287750   4286370   4285195   4284166   4283267  
  4190.000000   4282449   4281725   4281069   4280524   4280080  
  4180.000000   4279794   4279660   4279738   4280022   4280585  
  4170.000000   4281435   4282669   4284313   4286469   4289150  
  4160.000000   4292425   4296259   4300679   4305614   4311080  
  4150.000000   4317008   4323430   4330295   4337644   4345427  
  4140.000000   4353686   4362365   4371506   4381059   4391069  
  4130.000000   4401488   4412354   4423608   4435278   4447311  
  4120.000000   4459741   4472546   4485787   4499469   4513656  
  4110.000000   4528340   4543546   4559216   4575322   4591770  
  4100.000000   4608508   4625451   4642566   4659806   4677164  
  4090.000000   4694621   4712169   4729793   4747469   4765188  
  4080.000000   4782933   4800720   4818536   4836401   4854263  
  4070.000000   4872093   4889770   4907226   4924321   4941020  
  4060.000000   4957234   4972996   4988250   5003044   5017302  
  4050.000000   5031057   5044220   5056846   5068866   5080360  
  4040.000000   5091248   5101579   5111222   5120192   5128349  
  4030.000000   5135732   5142243   5147951   5152783   5156792  
  4020.000000   5159874   5162096   5163449   5164053   5163907  
  4010.000000   5163198   5162030   5160434   5158176   5155292  
  4000.000000   5152080  
##END= 
