##TITLE= Sample 030 By ssteindl date Dienstag, November 20 2018
##JCAMP-DX= 4.24
##DATA TYPE= INFRARED SPECTRUM
##ORIGIN= Exported PE Spectrum Data File
##OWNER= Sandra Steindl
##DATE= 18/11/20
##TIME= 15:02:29.00
##SPECTROMETER/DATA SYSTEM= PERKIN-ELMER Frontier FT-IR/NIR IR
##INSTRUMENT PARAMETERS=
  APODIZATION=stark
  DETECTOR=INGAAS
##RESOLUTION= 16.000000
##DELTAX= -2.000000
##XUNITS= 1/CM
##YUNITS= A
##XFACTOR= 1.00
##YFACTOR= 0.00000011920928955078
##FIRSTX= 10000.00
##LASTX= 4000.00
##NPOINTS= 3001
##FIRSTY= 0.186746
##MAXY= 0.562262
##MINY= 0.165369
##XYDATA= (X++(Y..Y))
 10000.000000   1566541   1563611   1561963   1563247   1567382  
  9990.000000   1572730   1577491   1580447   1580986   1579129  
  9980.000000   1575527   1571001   1566141   1561161   1556250  
  9970.000000   1551679   1547924   1545500   1544644   1545095  
  9960.000000   1546003   1546356   1545366   1543026   1540183  
  9950.000000   1538244   1538603   1541843   1547491   1553930  
  9940.000000   1559100   1561121   1559069   1553268   1545171  
  9930.000000   1536916   1530553   1527621   1528703   1533579  
  9920.000000   1541329   1550654   1560114   1568244   1573787  
  9910.000000   1575745   1573642   1567574   1558315   1547146  
  9900.000000   1535664   1525448   1517786   1513545   1513014  
  9890.000000   1516059   1522030   1530008   1538775   1547038  
  9880.000000   1553587   1557450   1558182   1555811   1550957  
  9870.000000   1544510   1537529   1530931   1525441   1521607  
  9860.000000   1519844   1520540   1523880   1529777   1537582  
  9850.000000   1546127   1553842   1559137   1560870   1558651  
  9840.000000   1553054   1545369   1537308   1530452   1525912  
  9830.000000   1524142   1524966   1527854   1532069   1536932  
  9820.000000   1541782   1546078   1549324   1551164   1551416  
  9810.000000   1550113   1547545   1544121   1540369   1536713  
  9800.000000   1533510   1530959   1529167   1528197   1528026  
  9790.000000   1528596   1529702   1531075   1532395   1533439  
  9780.000000   1534129   1534565   1534910   1535270   1535603  
  9770.000000   1535686   1535300   1534315   1532888   1531369  
  9760.000000   1530167   1529513   1529256   1528933   1527924  
  9750.000000   1525849   1522820   1519550   1517131   1516606  
  9740.000000   1518473   1522379   1527158   1531221   1533150  
  9730.000000   1532218   1528659   1523522   1518292   1514339  
  9720.000000   1512508   1512942   1515140   1518252   1521331  
  9710.000000   1523623   1524665   1524353   1522898   1520773  
  9700.000000   1518572   1516874   1516024   1515988   1516302  
  9690.000000   1516193   1514891   1511976   1507641   1502716  
  9680.000000   1498360   1495633   1494987   1496066   1497813  
  9670.000000   1498889   1498263   1495600   1491420   1486809  
  9660.000000   1482971   1480711   1480171   1480853   1481959  
  9650.000000   1482766   1482986   1482764   1482559   1482777  
  9640.000000   1483570   1484736   1485879   1486641   1486927  
  9630.000000   1486924   1487011   1487524   1488612   1490191  
  9620.000000   1492038   1493946   1495821   1497692   1499600  
  9610.000000   1501472   1503055   1503985   1503935   1502829  
  9600.000000   1500902   1498705   1496858   1495872   1495906  
  9590.000000   1496783   1498044   1499205   1499873   1499884  
  9580.000000   1499200   1497867   1495885   1493247   1489993  
  9570.000000   1486309   1482548   1479140   1476442   1474550  
  9560.000000   1473257   1472106   1470599   1468426   1465608  
  9550.000000   1462519   1459712   1457696   1456734   1456764  
  9540.000000   1457468   1458438   1459331   1459976   1460338  
  9530.000000   1460466   1460369   1460004   1459302   1458228  
  9520.000000   1456867   1455323   1453722   1451991   1449936  
  9510.000000   1447195   1443486   1438715   1433159   1427432  
  9500.000000   1422387   1418879   1417545   1418637   1421985  
  9490.000000   1427082   1433226   1439681   1445802   1451105  
  9480.000000   1455333   1458430   1460571   1462062   1463304  
  9470.000000   1464624   1466217   1468017   1469761   1471053  
  9460.000000   1471532   1471030   1469598   1467548   1465247  
  9450.000000   1463086   1461267   1459889   1458903   1458285  
  9440.000000   1458030   1458196   1458794   1459726   1460728  
  9430.000000   1461415   1461396   1460394   1458371   1455517  
  9420.000000   1452226   1448952   1446120   1444030   1442828  
  9410.000000   1442539   1443065   1444253   1445854   1447586  
  9400.000000   1449118   1450176   1450583   1450329   1449578  
  9390.000000   1448560   1447520   1446538   1445566   1444393  
  9380.000000   1442805   1440658   1437975   1434983   1432047  
  9370.000000   1429612   1428056   1427632   1428393   1430223  
  9360.000000   1432838   1435833   1438732   1441055   1442431  
  9350.000000   1442689   1441936   1440518   1438943   1437687  
  9340.000000   1437064   1437087   1437526   1437969   1438061  
  9330.000000   1437614   1436697   1435566   1434507   1433738  
  9320.000000   1433276   1433036   1432874   1432816   1433062  
  9310.000000   1433988   1435919   1438970   1442874   1446997  
  9300.000000   1450467   1452403   1452211   1449725   1445299  
  9290.000000   1439614   1433503   1427696   1422702   1418770  
  9280.000000   1415926   1414091   1413134   1412958   1413455  
  9270.000000   1414522   1415989   1417661   1419314   1420755  
  9260.000000   1421866   1422594   1423001   1423177   1423268  
  9250.000000   1423379   1423599   1423924   1424295   1424573  
  9240.000000   1424614   1424279   1423495   1422258   1420641  
  9230.000000   1418791   1416899   1415188   1413863   1413118  
  9220.000000   1413100   1413919   1415583   1417992   1420871  
  9210.000000   1423839   1426447   1428295   1429138   1428946  
  9200.000000   1427939   1426480   1424961   1423656   1422635  
  9190.000000   1421771   1420790   1419461   1417692   1415646  
  9180.000000   1413675   1412223   1411635   1411988   1413007  
  9170.000000   1414098   1414555   1413778   1411530   1408018  
  9160.000000   1403901   1400090   1397482   1396676   1397779  
  9150.000000   1400413   1403869   1407327   1410119   1411898  
  9140.000000   1412704   1412835   1412653   1412422   1412231  
  9130.000000   1412022   1411687   1411173   1410583   1410141  
  9120.000000   1410106   1410610   1411542   1412582   1413276  
  9110.000000   1413225   1412203   1410286   1407839   1405381  
  9100.000000   1403412   1402270   1402075   1402711   1403880  
  9090.000000   1405208   1406328   1406976   1406976   1406326  
  9080.000000   1405172   1403811   1402616   1401948   1402064  
  9070.000000   1402964   1404369   1405741   1406464   1406010  
  9060.000000   1404127   1400942   1396972   1392961   1389680  
  9050.000000   1387688   1387211   1388076   1389797   1391756  
  9040.000000   1393413   1394445   1394806   1394711   1394544  
  9030.000000   1394707   1395484   1396945   1398947   1401165  
  9020.000000   1403211   1404722   1405488   1405485   1404874  
  9010.000000   1403928   1402941   1402130   1401587   1401274  
  9000.000000   1401063   1400806   1400382   1399768   1399016  
  8990.000000   1398278   1397723   1397540   1397853   1398716  
  8980.000000   1400062   1401708   1403387   1404770   1405565  
  8970.000000   1405576   1404787   1403352   1401549   1399707  
  8960.000000   1398108   1396936   1396226   1395940   1396000  
  8950.000000   1396351   1396945   1397731   1398614   1399410  
  8940.000000   1399890   1399807   1399049   1397630   1395748  
  8930.000000   1393685   1391772   1390265   1389317   1389023  
  8920.000000   1389461   1390751   1392971   1396154   1400149  
  8910.000000   1404605   1408961   1412587   1414996   1415957  
  8900.000000   1415613   1414336   1412626   1410852   1409169  
  8890.000000   1407498   1405666   1403602   1401439   1399578  
  8880.000000   1398499   1398632   1400082   1402616   1405654  
  8870.000000   1408517   1410627   1411678   1411713   1410995  
  8860.000000   1409930   1408809   1407805   1406880   1405932  
  8850.000000   1404834   1403546   1402130   1400746   1399639  
  8840.000000   1399049   1399251   1400433   1402721   1406046  
  8830.000000   1410131   1414507   1418554   1421705   1423510  
  8820.000000   1423833   1422789   1420753   1418153   1415397  
  8810.000000   1412769   1410468   1408688   1407659   1407689  
  8800.000000   1409018   1411772   1415752   1420494   1425282  
  8790.000000   1429401   1432324   1433855   1434158   1433606  
  8780.000000   1432635   1431532   1430392   1429134   1427654  
  8770.000000   1425963   1424233   1422779   1421890   1421729  
  8760.000000   1422196   1422999   1423734   1424066   1423855  
  8750.000000   1423162   1422239   1421354   1420741   1420473  
  8740.000000   1420523   1420785   1421181   1421689   1422358  
  8730.000000   1423269   1424504   1426114   1428105   1430445  
  8720.000000   1433060   1435815   1438514   1440888   1442672  
  8710.000000   1443645   1443757   1443127   1442067   1440965  
  8700.000000   1440176   1439902   1440132   1440696   1441355  
  8690.000000   1441960   1442509   1443175   1444193   1445764  
  8680.000000   1447906   1450440   1453026   1455286   1456952  
  8670.000000   1457933   1458362   1458487   1458609   1458921  
  8660.000000   1459486   1460215   1460941   1461497   1461790  
  8650.000000   1461849   1461820   1461939   1462457   1463582  
  8640.000000   1465398   1467842   1470682   1473561   1476100  
  8630.000000   1477989   1479122   1479603   1479738   1479911  
  8620.000000   1480463   1481556   1483134   1484944   1486669  
  8610.000000   1488055   1489027   1489711   1490355   1491224  
  8600.000000   1492448   1494004   1495711   1497364   1498812  
  8590.000000   1500052   1501212   1502465   1503914   1505513  
  8580.000000   1507064   1508269   1508869   1508733   1507959  
  8570.000000   1506789   1505537   1504465   1503715   1503314  
  8560.000000   1503206   1503387   1503932   1505030   1506865  
  8550.000000   1509547   1512983   1516869   1520717   1524000  
  8540.000000   1526318   1527483   1527580   1526880   1525766  
  8530.000000   1524575   1523535   1522722   1522115   1521659  
  8520.000000   1521317   1521111   1521086   1521302   1521763  
  8510.000000   1522442   1523274   1524204   1525213   1526308  
  8500.000000   1527522   1528842   1530219   1531532   1532661  
  8490.000000   1533520   1534123   1534590   1535113   1535893  
  8480.000000   1537056   1538610   1540430   1542311   1544041  
  8470.000000   1545464   1546517   1547219   1547636   1547830  
  8460.000000   1547834   1547663   1547348   1546968   1546657  
  8450.000000   1546581   1546878   1547597   1548659   1549877  
  8440.000000   1551019   1551886   1552390   1552573   1552606  
  8430.000000   1552704   1553049   1553729   1554726   1555951  
  8420.000000   1557296   1558689   1560113   1561604   1563195  
  8410.000000   1564882   1566584   1568161   1569451   1570328  
  8400.000000   1570741   1570731   1570422   1569976   1569540  
  8390.000000   1569222   1569050   1569013   1569062   1569163  
  8380.000000   1569296   1569481   1569751   1570138   1570633  
  8370.000000   1571182   1571678   1572001   1572054   1571810  
  8360.000000   1571336   1570795   1570400   1570360   1570786  
  8350.000000   1571672   1572864   1574121   1575177   1575822  
  8340.000000   1575968   1575651   1575004   1574188   1573328  
  8330.000000   1572478   1571621   1570716   1569746   1568760  
  8320.000000   1567866   1567211   1566912   1567015   1567439  
  8310.000000   1568011   1568503   1568701   1568471   1567782  
  8300.000000   1566722   1565458   1564206   1563164   1562471  
  8290.000000   1562183   1562268   1562616   1563071   1563459  
  8280.000000   1563641   1563532   1563132   1562510   1561782  
  8270.000000   1561077   1560496   1560108   1559926   1559947  
  8260.000000   1560144   1560498   1560982   1561553   1562135  
  8250.000000   1562607   1562819   1562617   1561891   1560618  
  8240.000000   1558884   1556874   1554840   1553049   1551724  
  8230.000000   1551007   1550915   1551352   1552104   1552912  
  8220.000000   1553504   1553674   1553316   1552464   1551277  
  8210.000000   1549998   1548876   1548084   1547661   1547505  
  8200.000000   1547413   1547165   1546597   1545671   1544472  
  8190.000000   1543180   1541970   1540956   1540121   1539350  
  8180.000000   1538469   1537332   1535879   1534164   1532324  
  8170.000000   1530536   1528938   1527590   1526446   1525391  
  8160.000000   1524286   1523015   1521527   1519834   1518002  
  8150.000000   1516122   1514289   1512581   1511056   1509745  
  8140.000000   1508662   1507789   1507089   1506494   1505930  
  8130.000000   1505324   1504634   1503847   1503000   1502143  
  8120.000000   1501349   1500660   1500104   1499660   1499286  
  8110.000000   1498923   1498519   1498050   1497523   1496990  
  8100.000000   1496525   1496222   1496154   1496354   1496783  
  8090.000000   1497332   1497826   1498067   1497886   1497186  
  8080.000000   1495980   1494382   1492574   1490758   1489087  
  8070.000000   1487645   1486426   1485380   1484440   1483575  
  8060.000000   1482796   1482144   1481643   1481264   1480901  
  8050.000000   1480386   1479550   1478278   1476586   1474619  
  8040.000000   1472634   1470917   1469700   1469091   1469043  
  8030.000000   1469380   1469866   1470277   1470472   1470403  
  8020.000000   1470107   1469642   1469061   1468367   1467536  
  8010.000000   1466548   1465432   1464288   1463283   1462605  
  8000.000000   1462402   1462722   1463483   1464479   1465431  
  7990.000000   1466052   1466130   1465561   1464389   1462764  
  7980.000000   1460918   1459096   1457517   1456329   1455602  
  7970.000000   1455331   1455449   1455859   1456445   1457102  
  7960.000000   1457733   1458263   1458632   1458806   1458776  
  7950.000000   1458560   1458214   1457815   1457458   1457219  
  7940.000000   1457138   1457193   1457299   1457334   1457168  
  7930.000000   1456716   1455972   1455014   1453987   1453059  
  7920.000000   1452357   1451937   1451764   1451745   1451764  
  7910.000000   1451742   1451661   1451567   1451536   1451621  
  7900.000000   1451821   1452053   1452188   1452086   1451661  
  7890.000000   1450905   1449912   1448836   1447849   1447091  
  7880.000000   1446628   1446456   1446507   1446698   1446957  
  7870.000000   1447243   1447548   1447878   1448234   1448591  
  7860.000000   1448898   1449090   1449115   1448944   1448601  
  7850.000000   1448150   1447690   1447322   1447125   1447131  
  7840.000000   1447315   1447608   1447913   1448141   1448235  
  7830.000000   1448190   1448042   1447856   1447686   1447559  
  7820.000000   1447451   1447306   1447053   1446652   1446110  
  7810.000000   1445498   1444925   1444500   1444282   1444257  
  7800.000000   1444319   1444311   1444074   1443505   1442601  
  7790.000000   1441466   1440283   1439251   1438521   1438156  
  7780.000000   1438110   1438261   1438447   1438533   1438442  
  7770.000000   1438178   1437801   1437407   1437080   1436863  
  7760.000000   1436748   1436676   1436562   1436314   1435866  
  7750.000000   1435186   1434291   1433233   1432092   1430962  
  7740.000000   1429923   1429041   1428347   1427849   1427530  
  7730.000000   1427364   1427318   1427358   1427442   1427523  
  7720.000000   1427538   1427426   1427137   1426658   1426024  
  7710.000000   1425316   1424648   1424118   1423783   1423622  
  7700.000000   1423541   1423396   1423035   1422360   1421356  
  7690.000000   1420110   1418789   1417592   1416699   1416215  
  7680.000000   1416153   1416428   1416891   1417372   1417720  
  7670.000000   1417837   1417696   1417342   1416877   1416436  
  7660.000000   1416155   1416130   1416400   1416917   1417573  
  7650.000000   1418211   1418686   1418888   1418785   1418413  
  7640.000000   1417864   1417247   1416654   1416132   1415692  
  7630.000000   1415311   1414968   1414663   1414419   1414279  
  7620.000000   1414275   1414418   1414686   1415034   1415410  
  7610.000000   1415771   1416103   1416393   1416645   1416836  
  7600.000000   1416939   1416913   1416737   1416425   1416036  
  7590.000000   1415678   1415472   1415532   1415920   1416634  
  7580.000000   1417600   1418695   1419772   1420688   1421336  
  7570.000000   1421643   1421601   1421238   1420641   1419915  
  7560.000000   1419189   1418582   1418198   1418101   1418323  
  7550.000000   1418848   1419631   1420602   1421686   1422808  
  7540.000000   1423906   1424929   1425853   1426674   1427430  
  7530.000000   1428173   1428982   1429918   1431025   1432293  
  7520.000000   1433679   1435087   1436413   1437551   1438433  
  7510.000000   1439039   1439402   1439603   1439756   1439995  
  7500.000000   1440452   1441237   1442413   1443978   1445863  
  7490.000000   1447931   1450004   1451887   1453421   1454506  
  7480.000000   1455147   1455430   1455518   1455596   1455846  
  7470.000000   1456395   1457308   1458577   1460140   1461905  
  7460.000000   1463781   1465694   1467601   1469483   1471344  
  7450.000000   1473185   1475006   1476781   1478487   1480091  
  7440.000000   1481598   1483035   1484470   1485984   1487654  
  7430.000000   1489528   1491605   1493840   1496153   1498463  
  7420.000000   1500706   1502852   1504896   1506838   1508677  
  7410.000000   1510387   1511934   1513288   1514452   1515471  
  7400.000000   1516437   1517459   1518637   1520034   1521661  
  7390.000000   1523484   1525436   1527446   1529453   1531417  
  7380.000000   1533308   1535108   1536809   1538420   1539970  
  7370.000000   1541511   1543111   1544827   1546686   1548657  
  7360.000000   1550660   1552581   1554310   1555784   1557003  
  7350.000000   1558045   1559035   1560111   1561383   1562897  
  7340.000000   1564631   1566502   1568395   1570189   1571791  
  7330.000000   1573148   1574261   1575196   1576065   1577016  
  7320.000000   1578185   1579673   1581505   1583630   1585918  
  7310.000000   1588203   1590330   1592194   1593762   1595061  
  7300.000000   1596150   1597084   1597890   1598566   1599107  
  7290.000000   1599526   1599875   1600237   1600703   1601339  
  7280.000000   1602156   1603111   1604121   1605106   1606016  
  7270.000000   1606850   1607652   1608478   1609374   1610343  
  7260.000000   1611359   1612361   1613313   1614190   1615019  
  7250.000000   1615841   1616713   1617668   1618726   1619877  
  7240.000000   1621117   1622439   1623869   1625426   1627146  
  7230.000000   1629033   1631081   1633251   1635513   1637823  
  7220.000000   1640167   1642528   1644915   1647323   1649764  
  7210.000000   1652233   1654743   1657298   1659917   1662603  
  7200.000000   1665362   1668182   1671056   1673966   1676914  
  7190.000000   1679897   1682925   1685989   1689078   1692146  
  7180.000000   1695155   1698056   1700842   1703524   1706168  
  7170.000000   1708848   1711662   1714675   1717940   1721453  
  7160.000000   1725188   1729082   1733080   1737121   1741189  
  7150.000000   1745275   1749419   1753653   1758033   1762569  
  7140.000000   1767259   1772044   1776867   1781657   1786399  
  7130.000000   1791108   1795867   1800760   1805884   1811265  
  7120.000000   1816888   1822663   1828490   1834272   1839972  
  7110.000000   1845600   1851229   1856931   1862778   1868788  
  7100.000000   1874955   1881225   1887547   1893858   1900114  
  7090.000000   1906269   1912293   1918170   1923920   1929603  
  7080.000000   1935326   1941206   1947349   1953786   1960459  
  7070.000000   1967217   1973872   1980252   1986280   1991990  
  7060.000000   1997530   2003093   2008864   2014948   2021353  
  7050.000000   2027999   2034760   2041518   2048201   2054792  
  7040.000000   2061310   2067783   2074214   2080583   2086844  
  7030.000000   2092957   2098899   2104680   2110326   2115877  
  7020.000000   2121358   2126787   2132160   2137476   2142720  
  7010.000000   2147901   2153011   2158064   2163058   2168008  
  7000.000000   2172914   2177796   2182649   2187476   2192245  
  6990.000000   2196926   2201466   2205841   2210032   2214064  
  6980.000000   2217965   2221777   2225508   2229151   2232661  
  6970.000000   2236001   2239136   2242077   2244855   2247541  
  6960.000000   2250189   2252857   2255549   2258266   2260967  
  6950.000000   2263624   2266192   2268648   2270964   2273131  
  6940.000000   2275144   2277024   2278802   2280531   2282249  
  6930.000000   2283989   2285743   2287489   2289185   2290810  
  6920.000000   2292364   2293887   2295428   2297035   2298708  
  6910.000000   2300407   2302046   2303535   2304807   2305853  
  6900.000000   2306723   2307514   2308330   2309251   2310305  
  6890.000000   2311469   2312676   2313852   2314931   2315887  
  6880.000000   2316722   2317477   2318203   2318956   2319774  
  6870.000000   2320676   2321642   2322626   2323564   2324386  
  6860.000000   2325043   2325520   2325845   2326082   2326308  
  6850.000000   2326597   2326990   2327499   2328104   2328780  
  6840.000000   2329502   2330262   2331054   2331865   2332658  
  6830.000000   2333373   2333939   2334296   2334423   2334352  
  6820.000000   2334160   2333956   2333843   2333899   2334148  
  6810.000000   2334578   2335131   2335738   2336320   2336805  
  6800.000000   2337130   2337253   2337150   2336827   2336319  
  6790.000000   2335688   2335006   2334346   2333760   2333280  
  6780.000000   2332909   2332645   2332469   2332370   2332323  
  6770.000000   2332303   2332264   2332163   2331958   2331627  
  6760.000000   2331175   2330632   2330040   2329433   2328829  
  6750.000000   2328227   2327615   2326990   2326363   2325768  
  6740.000000   2325240   2324807   2324462   2324175   2323889  
  6730.000000   2323552   2323128   2322617   2322038   2321427  
  6720.000000   2320809   2320199   2319595   2318995   2318406  
  6710.000000   2317846   2317333   2316876   2316455   2316025  
  6700.000000   2315524   2314904   2314141   2313259   2312311  
  6690.000000   2311364   2310473   2309665   2308932   2308246  
  6680.000000   2307569   2306877   2306149   2305383   2304568  
  6670.000000   2303697   2302754   2301737   2300652   2299529  
  6660.000000   2298397   2297281   2296180   2295072   2293914  
  6650.000000   2292669   2291317   2289873   2288372   2286867  
  6640.000000   2285392   2283969   2282590   2281236   2279879  
  6630.000000   2278501   2277085   2275619   2274084   2272467  
  6620.000000   2270762   2268985   2267181   2265420   2263767  
  6610.000000   2262266   2260914   2259654   2258398   2257061  
  6600.000000   2255589   2253986   2252305   2250628   2249031  
  6590.000000   2247554   2246195   2244916   2243669   2242417  
  6580.000000   2241148   2239870   2238598   2237339   2236085  
  6570.000000   2234817   2233514   2232167   2230786   2229390  
  6560.000000   2228003   2226636   2225287   2223944   2222594  
  6550.000000   2221235   2219879   2218548   2217266   2216043  
  6540.000000   2214881   2213766   2212682   2211614   2210555  
  6530.000000   2209500   2208449   2207398   2206345   2205287  
  6520.000000   2204230   2203179   2202139   2201102   2200051  
  6510.000000   2198960   2197805   2196580   2195304   2194023  
  6500.000000   2192792   2191660   2190645   2189729   2188865  
  6490.000000   2187997   2187081   2186104   2185080   2184046  
  6480.000000   2183036   2182068   2181139   2180230   2179322  
  6470.000000   2178407   2177492   2176596   2175735   2174914  
  6460.000000   2174120   2173327   2172508   2171647   2170741  
  6450.000000   2169801   2168843   2167883   2166929   2165986  
  6440.000000   2165059   2164152   2163275   2162429   2161615  
  6430.000000   2160821   2160032   2159238   2158438   2157643  
  6420.000000   2156872   2156137   2155440   2154763   2154082  
  6410.000000   2153375   2152643   2151909   2151217   2150614  
  6400.000000   2150136   2149784   2149531   2149327   2149118  
  6390.000000   2148860   2148534   2148139   2147690   2147204  
  6380.000000   2146692   2146164   2145628   2145097   2144589  
  6370.000000   2144124   2143715   2143365   2143058   2142775  
  6360.000000   2142484   2142166   2141803   2141390   2140922  
  6350.000000   2140398   2139816   2139180   2138499   2137789  
  6340.000000   2137071   2136366   2135686   2135035   2134403  
  6330.000000   2133785   2133166   2132547   2131922   2131290  
  6320.000000   2130639   2129957   2129224   2128432   2127583  
  6310.000000   2126698   2125801   2124918   2124051   2123188  
  6300.000000   2122290   2121319   2120233   2119022   2117688  
  6290.000000   2116265   2114784   2113283   2111782   2110294  
  6280.000000   2108811   2107326   2105817   2104271   2102667  
  6270.000000   2100994   2099245   2097428   2095556   2093657  
  6260.000000   2091752   2089865   2088005   2086179   2084384  
  6250.000000   2082625   2080906   2079238   2077624   2076051  
  6240.000000   2074491   2072902   2071242   2069484   2067624  
  6230.000000   2065688   2063716   2061754   2059832   2057967  
  6220.000000   2056153   2054380   2052637   2050924   2049240  
  6210.000000   2047586   2045951   2044310   2042629   2040881  
  6200.000000   2039057   2037171   2035263   2033382   2031575  
  6190.000000   2029864   2028251   2026711   2025210   2023714  
  6180.000000   2022199   2020658   2019098   2017532   2015980  
  6170.000000   2014458   2012979   2011548   2010164   2008815  
  6160.000000   2007486   2006160   2004829   2003495   2002172  
  6150.000000   2000882   1999642   1998457   1997316   1996189  
  6140.000000   1995045   1993854   1992610   1991322   1990017  
  6130.000000   1988721   1987453   1986216   1984999   1983783  
  6120.000000   1982558   1981323   1980093   1978888   1977729  
  6110.000000   1976627   1975584   1974593   1973645   1972733  
  6100.000000   1971856   1971016   1970218   1969462   1968749  
  6090.000000   1968070   1967427   1966811   1966227   1965672  
  6080.000000   1965154   1964669   1964227   1963827   1963482  
  6070.000000   1963191   1962965   1962797   1962690   1962634  
  6060.000000   1962639   1962705   1962854   1963093   1963436  
  6050.000000   1963870   1964385   1964947   1965543   1966158  
  6040.000000   1966811   1967521   1968331   1969262   1970337  
  6030.000000   1971545   1972877   1974310   1975838   1977451  
  6020.000000   1979154   1980937   1982790   1984680   1986576  
  6010.000000   1988435   1990240   1991975   1993657   1995299  
  6000.000000   1996932   1998574   2000252   2001980   2003785  
  5990.000000   2005678   2007680   2009785   2011988   2014259  
  5980.000000   2016574   2018907   2021257   2023632   2026063  
  5970.000000   2028573   2031183   2033887   2036670   2039496  
  5960.000000   2042342   2045182   2048015   2050839   2053673  
  5950.000000   2056520   2059393   2062291   2065221   2068182  
  5940.000000   2071185   2074233   2077336   2080493   2083708  
  5930.000000   2086980   2090307   2093687   2097112   2100563  
  5920.000000   2104010   2107411   2110727   2113922   2116979  
  5910.000000   2119896   2122686   2125368   2127960   2130477  
  5900.000000   2132930   2135341   2137732   2140141   2142599  
  5890.000000   2145139   2147765   2150474   2153232   2156010  
  5880.000000   2158770   2161490   2164147   2166724   2169202  
  5870.000000   2171559   2173780   2175861   2177823   2179706  
  5860.000000   2181562   2183438   2185367   2187354   2189388  
  5850.000000   2191452   2193540   2195663   2197848   2200129  
  5840.000000   2202526   2205035   2207630   2210265   2212895  
  5830.000000   2215482   2218008   2220470   2222869   2225209  
  5820.000000   2227486   2229701   2231855   2233969   2236064  
  5810.000000   2238168   2240290   2242430   2244547   2246613  
  5800.000000   2248573   2250418   2252129   2253736   2255240  
  5790.000000   2256671   2258000   2259213   2260241   2261036  
  5780.000000   2261515   2261627   2261308   2260538   2259303  
  5770.000000   2257648   2255639   2253397   2251041   2248708  
  5760.000000   2246489   2244456   2242621   2240978   2239495  
  5750.000000   2238148   2236916   2235790   2234762   2233823  
  5740.000000   2232960   2232154   2231398   2230684   2230023  
  5730.000000   2229418   2228880   2228396   2227961   2227549  
  5720.000000   2227151   2226761   2226391   2226055   2225775  
  5710.000000   2225555   2225401   2225302   2225253   2225245  
  5700.000000   2225276   2225344   2225444   2225564   2225686  
  5690.000000   2225798   2225890   2225970   2226047   2226142  
  5680.000000   2226255   2226381   2226486   2226530   2226458  
  5670.000000   2226227   2225792   2225130   2224223   2223078  
  5660.000000   2221712   2220173   2218517   2216823   2215158  
  5650.000000   2213581   2212111   2210743   2209441   2208167  
  5640.000000   2206885   2205584   2204270   2202965   2201692  
  5630.000000   2200466   2199294   2198174   2197109   2196101  
  5620.000000   2195165   2194305   2193522   2192798   2192104  
  5610.000000   2191406   2190680   2189913   2189114   2188302  
  5600.000000   2187497   2186717   2185966   2185242   2184537  
  5590.000000   2183847   2183162   2182476   2181776   2181044  
  5580.000000   2180260   2179412   2178497   2177530   2176531  
  5570.000000   2175520   2174507   2173490   2172451   2171378  
  5560.000000   2170264   2169124   2167982   2166869   2165807  
  5550.000000   2164801   2163835   2162885   2161923   2160937  
  5540.000000   2159929   2158911   2157902   2156912   2155946  
  5530.000000   2154999   2154065   2153142   2152231   2151337  
  5520.000000   2150461   2149600   2148742   2147877   2146995  
  5510.000000   2146094   2145173   2144235   2143272   2142277  
  5500.000000   2141232   2140131   2138974   2137777   2136561  
  5490.000000   2135348   2134140   2132927   2131679   2130371  
  5480.000000   2128981   2127517   2125996   2124455   2122920  
  5470.000000   2121411   2119922   2118443   2116953   2115441  
  5460.000000   2113895   2112314   2110691   2109016   2107275  
  5450.000000   2105463   2103584   2101661   2099731   2097832  
  5440.000000   2095997   2094237   2092550   2090919   2089329  
  5430.000000   2087765   2086224   2084696   2083179   2081658  
  5420.000000   2080137   2078617   2077135   2075732   2074469  
  5410.000000   2073377   2072478   2071741   2071133   2070599  
  5400.000000   2070122   2069690   2069335   2069078   2068957  
  5390.000000   2068968   2069115   2069365   2069718   2070162  
  5380.000000   2070726   2071421   2072280   2073290   2074456  
  5370.000000   2075736   2077132   2078610   2080198   2081886  
  5360.000000   2083719   2085692   2087858   2090215   2092834  
  5350.000000   2095730   2098983   2102598   2106631   2111044  
  5340.000000   2115863   2121029   2126585   2132492   2138815  
  5330.000000   2145517   2152653   2160162   2168087   2176370  
  5320.000000   2185097   2194257   2203986   2214291   2225300  
  5310.000000   2236974   2249383   2262436   2276180   2290541  
  5300.000000   2305603   2321342   2337889   2355249   2373546  
  5290.000000   2392746   2412897   2433871   2455613   2477937  
  5280.000000   2500778   2524016   2547695   2571830   2596553  
  5270.000000   2621904   2647923   2674502   2701487   2728659  
  5260.000000   2755832   2782895   2809823   2836672   2863477  
  5250.000000   2890261   2916904   2943266   2969084   2994208  
  5240.000000   3018456   3041855   3064396   3086241   3107424  
  5230.000000   3128075   3148133   3167620   3186381   3204402  
  5220.000000   3221549   3237884   3253368   3268154   3282253  
  5210.000000   3295815   3308795   3321250   3333036   3344149  
  5200.000000   3354443   3363975   3372694   3380736   3388091  
  5190.000000   3394877   3401032   3406605   3411501   3415769  
  5180.000000   3419356   3422366   3424781   3426703   3428083  
  5170.000000   3428971   3429291   3429092   3428339   3427126  
  5160.000000   3425459   3423433   3421029   3418292   3415166  
  5150.000000   3411680   3407802   3403598   3399074   3394310  
  5140.000000   3389308   3384119   3378726   3373163   3367422  
  5130.000000   3361548   3355545   3349449   3343248   3336952  
  5120.000000   3330538   3324023   3317412   3310748   3304064  
  5110.000000   3297404   3290779   3284199   3277647   3271113  
  5100.000000   3264586   3258074   3251586   3245142   3238745  
  5090.000000   3232401   3226096   3219820   3213560   3207309  
  5080.000000   3201059   3194803   3188527   3182219   3175865  
  5070.000000   3169464   3163021   3156559   3150099   3143666  
  5060.000000   3137265   3130897   3124544   3118189   3111809  
  5050.000000   3105394   3098938   3092438   3085893   3079302  
  5040.000000   3072665   3065986   3059278   3052561   3045864  
  5030.000000   3039211   3032626   3026122   3019706   3013376  
  5020.000000   3007136   3000981   2994923   2988962   2983111  
  5010.000000   2977364   2971736   2966213   2960815   2955535  
  5000.000000   2950400   2945409   2940595   2935954   2931514  
  4990.000000   2927266   2923239   2919417   2915831   2912461  
  4980.000000   2909335   2906427   2903767   2901332   2899165  
  4970.000000   2897256   2895656   2894353   2893390   2892735  
  4960.000000   2892412   2892380   2892666   2893241   2894150  
  4950.000000   2895376   2896967   2898895   2901189   2903801  
  4940.000000   2906748   2909984   2913536   2917370   2921522  
  4930.000000   2925958   2930708   2935733   2941060   2946657  
  4920.000000   2952558   2958743   2965246   2972041   2979144  
  4910.000000   2986513   2994148   3002005   3010083   3018346  
  4900.000000   3026793   3035392   3044131   3052978   3061910  
  4890.000000   3070903   3079933   3088982   3098020   3107021  
  4880.000000   3115938   3124734   3133347   3141741   3149848  
  4870.000000   3157642   3165063   3172100   3178712   3184916  
  4860.000000   3190703   3196121   3201179   3205934   3210389  
  4850.000000   3214584   3218505   3222187   3225622   3228858  
  4840.000000   3231907   3234828   3237630   3240358   3243006  
  4830.000000   3245595   3248113   3250579   3252988   3255361  
  4820.000000   3257693   3259993   3262245   3264444   3266573  
  4810.000000   3268631   3270614   3272532   3274387   3276189  
  4800.000000   3277938   3279639   3281294   3282914   3284508  
  4790.000000   3286096   3287685   3289292   3290911   3292551  
  4780.000000   3294201   3295868   3297546   3299238   3300928  
  4770.000000   3302602   3304222   3305756   3307160   3308408  
  4760.000000   3309478   3310375   3311104   3311693   3312157  
  4750.000000   3312526   3312807   3313021   3313160   3313234  
  4740.000000   3313222   3313121   3312905   3312570   3312099  
  4730.000000   3311502   3310782   3309962   3309055   3308079  
  4720.000000   3307040   3305942   3304782   3303564   3302298  
  4710.000000   3301004   3299712   3298456   3297272   3296186  
  4700.000000   3295220   3294380   3293667   3293071   3292581  
  4690.000000   3292182   3291864   3291610   3291414   3291263  
  4680.000000   3291154   3291068   3291002   3290933   3290853  
  4670.000000   3290741   3290598   3290416   3290216   3290014  
  4660.000000   3289851   3289757   3289782   3289951   3290303  
  4650.000000   3290847   3291598   3292547   3293690   3295005  
  4640.000000   3296479   3298089   3299823   3301663   3303593  
  4630.000000   3305590   3307629   3309674   3311691   3313643  
  4620.000000   3315501   3317241   3318848   3320314   3321633  
  4610.000000   3322806   3323828   3324712   3325463   3326111  
  4600.000000   3326675   3327193   3327681   3328163   3328633  
  4590.000000   3329095   3329524   3329915   3330240   3330496  
  4580.000000   3330661   3330731   3330687   3330529   3330247  
  4570.000000   3329852   3329349   3328760   3328094   3327365  
  4560.000000   3326571   3325715   3324788   3323796   3322741  
  4550.000000   3321638   3320497   3319330   3318143   3316937  
  4540.000000   3315718   3314492   3313281   3312105   3310998  
  4530.000000   3309969   3309039   3308188   3307419   3306703  
  4520.000000   3306060   3305485   3305040   3304744   3304680  
  4510.000000   3304861   3305363   3306181   3307380   3308948  
  4500.000000   3310958   3313397   3316340   3319767   3323748  
  4490.000000   3328252   3333350   3339016   3345328   3352261  
  4480.000000   3359890   3368179   3377179   3386831   3397157  
  4470.000000   3408077   3419585   3431582   3444042   3456860  
  4460.000000   3470002   3483375   3496957   3510679   3524526  
  4450.000000   3538441   3552399   3566347   3580254   3594086  
  4440.000000   3607825   3621476   3635037   3648541   3661981  
  4430.000000   3675384   3688710   3701961   3715053   3727965  
  4420.000000   3740581   3752860   3764671   3775971   3786630  
  4410.000000   3796621   3805840   3814289   3821898   3828703  
  4400.000000   3834674   3839879   3844326   3848120   3851307  
  4390.000000   3854026   3856356   3858447   3860379   3862271  
  4380.000000   3864171   3866144   3868204   3870382   3872693  
  4370.000000   3875178   3877881   3880854   3884149   3887798  
  4360.000000   3891820   3896204   3900919   3905922   3911143  
  4350.000000   3916533   3922002   3927517   3933006   3938475  
  4340.000000   3943891   3949281   3954590   3959748   3964546  
  4330.000000   3968712   3971861   3973628   3973693   3971936  
  4320.000000   3968432   3963524   3957706   3951591   3945722  
  4310.000000   3940556   3936316   3933084   3930747   3929147  
  4300.000000   3928075   3927373   3926917   3926631   3926477  
  4290.000000   3926417   3926451   3926558   3926766   3927086  
  4280.000000   3927559   3928205   3929037   3930047   3931199  
  4270.000000   3932460   3933766   3935064   3936253   3937216  
  4260.000000   3937778   3937750   3936932   3935183   3932433  
  4250.000000   3928746   3924285   3919322   3914151   3909081  
  4240.000000   3904333   3900071   3896330   3893094   3890263  
  4230.000000   3887734   3885383   3883111   3880836   3878496  
  4220.000000   3876064   3873523   3870905   3868235   3865595  
  4210.000000   3863042   3860668   3858521   3856659   3855086  
  4200.000000   3853808   3852781   3851973   3851318   3850783  
  4190.000000   3850306   3849882   3849477   3849125   3848822  
  4180.000000   3848634   3848573   3848717   3849078   3849730  
  4170.000000   3850684   3852015   3853733   3855917   3858569  
  4160.000000   3861754   3865449   3869691   3874424   3879665  
  4150.000000   3885342   3891469   3897980   3904908   3912203  
  4140.000000   3919917   3928016   3936562   3945520   3954941  
  4130.000000   3964777   3975065   3985750   3996868   4008380  
  4120.000000   4020337   4032718   4045578   4058897   4072708  
  4110.000000   4086976   4101712   4116863   4132418   4148309  
  4100.000000   4164503   4180916   4197500   4214179   4230923  
  4090.000000   4247693   4264490   4281318   4298195   4315144  
  4080.000000   4332173   4349304   4366522   4383831   4401172  
  4070.000000   4418517   4435761   4452854   4469680   4486211  
  4060.000000   4502361   4518144   4533485   4548403   4562804  
  4050.000000   4576703   4590006   4602762   4614912   4626538  
  4040.000000   4637575   4648078   4657928   4667139   4675573  
  4030.000000   4683266   4690123   4696226   4701514   4706060  
  4020.000000   4709765   4712685   4714772   4716094   4716591  
  4010.000000   4716399   4715589   4714208   4712074   4709283  
  4000.000000   4706163  
##END= 
