##TITLE= Sample 032 By ssteindl date Dienstag, November 20 2018
##JCAMP-DX= 4.24
##DATA TYPE= INFRARED SPECTRUM
##ORIGIN= Exported PE Spectrum Data File
##OWNER= Sandra Steindl
##DATE= 18/11/20
##TIME= 15:04:56.00
##SPECTROMETER/DATA SYSTEM= PERKIN-ELMER Frontier FT-IR/NIR IR
##INSTRUMENT PARAMETERS=
  APODIZATION=stark
  DETECTOR=INGAAS
##RESOLUTION= 16.000000
##DELTAX= -2.000000
##XUNITS= 1/CM
##YUNITS= A
##XFACTOR= 1.00
##YFACTOR= 0.00000011920928955078
##FIRSTX= 10000.00
##LASTX= 4000.00
##NPOINTS= 3001
##FIRSTY= 0.200186
##MAXY= 0.600146
##MINY= 0.178020
##XYDATA= (X++(Y..Y))
 10000.000000   1679284   1674200   1670387   1669492   1671586  
  9990.000000   1675307   1679197   1682142   1683344   1682433  
  9980.000000   1679801   1676317   1672858   1670056   1668273  
  9970.000000   1667627   1668032   1669290   1671154   1673242  
  9960.000000   1675104   1676203   1676057   1674344   1670983  
  9950.000000   1666191   1660417   1654310   1648610   1644090  
  9940.000000   1641427   1641098   1643214   1647424   1652909  
  9930.000000   1658473   1662841   1664904   1664104   1660502  
  9920.000000   1654893   1648476   1642626   1638437   1636536  
  9910.000000   1637012   1639503   1643474   1648280   1653421  
  9900.000000   1658434   1663031   1667000   1670247   1672757  
  9890.000000   1674498   1675416   1675270   1673778   1670585  
  9880.000000   1665570   1658923   1651297   1643727   1637382  
  9870.000000   1633294   1631972   1633336   1636673   1641004  
  9860.000000   1645340   1649057   1651947   1654201   1656156  
  9850.000000   1658073   1660015   1661804   1663207   1663986  
  9840.000000   1664075   1663486   1662309   1660593   1658340  
  9830.000000   1655568   1652345   1648912   1645626   1642916  
  9820.000000   1641127   1640392   1640603   1641426   1642455  
  9810.000000   1643330   1643848   1643954   1643711   1643233  
  9800.000000   1642689   1642317   1642437   1643418   1645563  
  9790.000000   1648989   1653506   1658610   1663574   1667643  
  9780.000000   1670255   1671172   1670511   1668622   1665941  
  9770.000000   1662846   1659593   1656384   1653386   1650871  
  9760.000000   1649084   1648274   1648455   1649460   1650888  
  9750.000000   1652293   1653284   1653616   1653184   1651909  
  9740.000000   1649711   1646449   1642070   1636697   1630794  
  9730.000000   1625130   1620624   1618092   1617893   1619837  
  9720.000000   1623138   1626761   1629718   1631422   1631820  
  9710.000000   1631255   1630281   1629269   1628343   1627254  
  9700.000000   1625637   1623146   1619719   1615617   1611392  
  9690.000000   1607746   1605304   1604523   1605522   1608168  
  9680.000000   1612010   1616425   1620637   1623902   1625638  
  9670.000000   1625601   1623942   1621168   1617959   1614929  
  9660.000000   1612452   1610535   1608920   1607180   1604960  
  9650.000000   1602074   1598574   1594680   1590662   1586747  
  9640.000000   1583101   1579860   1577231   1575490   1574954  
  9630.000000   1575823   1578070   1581376   1585213   1589011  
  9620.000000   1592366   1595144   1597499   1599693   1601968  
  9610.000000   1604341   1606628   1608478   1609546   1609643  
  9600.000000   1608795   1607267   1605428   1603675   1602289  
  9590.000000   1601441   1601146   1601316   1601725   1602047  
  9580.000000   1601865   1600784   1598561   1595257   1591277  
  9570.000000   1587335   1584209   1582525   1582502   1583910  
  9560.000000   1586153   1588534   1590486   1591751   1592354  
  9550.000000   1592475   1592254   1591666   1590558   1588737  
  9540.000000   1586194   1583126   1579959   1577131   1574945  
  9530.000000   1573407   1572268   1571161   1569837   1568313  
  9520.000000   1566896   1566024   1566048   1567031   1568706  
  9510.000000   1570610   1572299   1573573   1574549   1575588  
  9500.000000   1577092   1579290   1582109   1585172   1587936  
  9490.000000   1589865   1590604   1590041   1588294   1585618  
  9480.000000   1582335   1578782   1575302   1572251   1569926  
  9470.000000   1568524   1568001   1568109   1568411   1568515  
  9460.000000   1568193   1567537   1566886   1566686   1567261  
  9450.000000   1568620   1570428   1572084   1572967   1572657  
  9440.000000   1571111   1568665   1565906   1563443   1561705  
  9430.000000   1560831   1560680   1560937   1561221   1561192  
  9420.000000   1560589   1559277   1557278   1554793   1552209  
  9410.000000   1550006   1548651   1548404   1549226   1550717  
  9400.000000   1552243   1553129   1552936   1551660   1549770  
  9390.000000   1548044   1547263   1547879   1549865   1552698  
  9380.000000   1555622   1557860   1558922   1558678   1557376  
  9370.000000   1555488   1553522   1551912   1550929   1550739  
  9360.000000   1551424   1553031   1555521   1558736   1562308  
  9350.000000   1565732   1568411   1569869   1569855   1568437  
  9340.000000   1565984   1563038   1560188   1557865   1556242  
  9330.000000   1555194   1554353   1553295   1551658   1549314  
  9320.000000   1546384   1543267   1540516   1538685   1538101  
  9310.000000   1538731   1540145   1541636   1542446   1542010  
  9300.000000   1540179   1537297   1534128   1531575   1530356  
  9290.000000   1530735   1532450   1534801   1536931   1538066  
  9280.000000   1537807   1536188   1533657   1530841   1528320  
  9270.000000   1526463   1525376   1524983   1525118   1525649  
  9260.000000   1526509   1527713   1529257   1531097   1533061  
  9250.000000   1534899   1536322   1537075   1537035   1536179  
  9240.000000   1534641   1532590   1530253   1527804   1525356  
  9230.000000   1522970   1520673   1518563   1516776   1515556  
  9220.000000   1515119   1515689   1517336   1519947   1523175  
  9210.000000   1526480   1529288   1531052   1531418   1530210  
  9200.000000   1527521   1523639   1519024   1514216   1509779  
  9190.000000   1506271   1504156   1503746   1505053   1507778  
  9180.000000   1511315   1514897   1517760   1519310   1519304  
  9170.000000   1517865   1515467   1512687   1510058   1507920  
  9160.000000   1506457   1505721   1505725   1506488   1508038  
  9150.000000   1510371   1513323   1516555   1519522   1521688  
  9140.000000   1522632   1522236   1520696   1518506   1516346  
  9130.000000   1514814   1514291   1514779   1515983   1517326  
  9120.000000   1518096   1517643   1515551   1511813   1506823  
  9110.000000   1501411   1496656   1493688   1493340   1495886  
  9100.000000   1500896   1507291   1513636   1518475   1520786  
  9090.000000   1520213   1517201   1512738   1508047   1504200  
  9080.000000   1501867   1501188   1501844   1503324   1505167  
  9070.000000   1507137   1509167   1511325   1513622   1515942  
  9060.000000   1517959   1519213   1519289   1517928   1515204  
  9050.000000   1511441   1507208   1503147   1499849   1497734  
  9040.000000   1496934   1497360   1498706   1500593   1502605  
  9030.000000   1504424   1505857   1506839   1507392   1507564  
  9020.000000   1507419   1506959   1506174   1505032   1503593  
  9010.000000   1501979   1500390   1499053   1498159   1497824  
  9000.000000   1498018   1498608   1499389   1500141   1500690  
  8990.000000   1500924   1500847   1500500   1499981   1499384  
  8980.000000   1498812   1498356   1498071   1498007   1498214  
  8970.000000   1498769   1499760   1501282   1503399   1506060  
  8960.000000   1509062   1512011   1514419   1515759   1515666  
  8950.000000   1514056   1511242   1507860   1504707   1502558  
  8940.000000   1501927   1502982   1505455   1508843   1512533  
  8930.000000   1516016   1518925   1521094   1522490   1523123  
  8920.000000   1522974   1521987   1520177   1517636   1514615  
  8910.000000   1511456   1508569   1506301   1504840   1504205  
  8900.000000   1504231   1504707   1505387   1506120   1506836  
  8890.000000   1507562   1508384   1509363   1510538   1511831  
  8880.000000   1513108   1514130   1514670   1514531   1513671  
  8870.000000   1512235   1510569   1509170   1508540   1509059  
  8860.000000   1510812   1513582   1516875   1520083   1522658  
  8850.000000   1524257   1524825   1524538   1523715   1522649  
  8840.000000   1521537   1520429   1519325   1518232   1517261  
  8830.000000   1516621   1516556   1517254   1518719   1520779  
  8820.000000   1523103   1525324   1527155   1528469   1529336  
  8810.000000   1529939   1530504   1531178   1532009   1532937  
  8800.000000   1533866   1534714   1535476   1536213   1537025  
  8790.000000   1537995   1539142   1540413   1541692   1542858  
  8780.000000   1543818   1544555   1545125   1545649   1546276  
  8770.000000   1547147   1548358   1549925   1551778   1553756  
  8760.000000   1555631   1557163   1558150   1558500   1558263  
  8750.000000   1557645   1556950   1556517   1556606   1557332  
  8740.000000   1558607   1560180   1561697   1562827   1563356  
  8730.000000   1563250   1562646   1561797   1560982   1560410  
  8720.000000   1560169   1560215   1560424   1560656   1560830  
  8710.000000   1560948   1561099   1561396   1561931   1562718  
  8700.000000   1563705   1564773   1565813   1566735   1567530  
  8690.000000   1568235   1568937   1569718   1570657   1571804  
  8680.000000   1573205   1574900   1576922   1579272   1581881  
  8670.000000   1584592   1587191   1589437   1591160   1592294  
  8660.000000   1592921   1593231   1593459   1593803   1594355  
  8650.000000   1595109   1595989   1596940   1597972   1599170  
  8640.000000   1600646   1602457   1604540   1606672   1608542  
  8630.000000   1609837   1610403   1610293   1609801   1609347  
  8620.000000   1609363   1610147   1611777   1614130   1616934  
  8610.000000   1619930   1622920   1625854   1628756   1631688  
  8600.000000   1634646   1637526   1640151   1642296   1643807  
  8590.000000   1644588   1644665   1644122   1643097   1641742  
  8580.000000   1640212   1638715   1637495   1636864   1637096  
  8570.000000   1638397   1640789   1644096   1647922   1651761  
  8560.000000   1655098   1657545   1658934   1659336   1659051  
  8550.000000   1658477   1658038   1658045   1658667   1659888  
  8540.000000   1661535   1663341   1665011   1666335   1667210  
  8530.000000   1667698   1667966   1668266   1668820   1669764  
  8520.000000   1671082   1672613   1674119   1675350   1676150  
  8510.000000   1676487   1676475   1676303   1676157   1676149  
  8500.000000   1676284   1676483   1676645   1676724   1676783  
  8490.000000   1676981   1677526   1678575   1680166   1682168  
  8480.000000   1684313   1686271   1687780   1688707   1689115  
  8470.000000   1689223   1689359   1689840   1690891   1692584  
  8460.000000   1694845   1697484   1700249   1702901   1705258  
  8450.000000   1707235   1708819   1710074   1711096   1711999  
  8440.000000   1712866   1713747   1714642   1715519   1716314  
  8430.000000   1716968   1717441   1717734   1717862   1717862  
  8420.000000   1717749   1717531   1717192   1716731   1716166  
  8410.000000   1715570   1715053   1714747   1714747   1715090  
  8400.000000   1715723   1716525   1717341   1718030   1718524  
  8390.000000   1718826   1719019   1719195   1719436   1719760  
  8380.000000   1720133   1720484   1720752   1720929   1721070  
  8370.000000   1721298   1721741   1722506   1723610   1724986  
  8360.000000   1726479   1727889   1729016   1729702   1729873  
  8350.000000   1729536   1728774   1727723   1726541   1725400  
  8340.000000   1724446   1723808   1723556   1723719   1724260  
  8330.000000   1725095   1726070   1727011   1727732   1728082  
  8320.000000   1727976   1727405   1726454   1725267   1724040  
  8310.000000   1722938   1722082   1721505   1721166   1720969  
  8300.000000   1720803   1720588   1720304   1720010   1719803  
  8290.000000   1719802   1720077   1720646   1721446   1722368  
  8280.000000   1723276   1724051   1724614   1724936   1725026  
  8270.000000   1724911   1724615   1724147   1723498   1722657  
  8260.000000   1721620   1720414   1719089   1717729   1716413  
  8250.000000   1715231   1714240   1713481   1712944   1712586  
  8240.000000   1712312   1712008   1711545   1710821   1709771  
  8230.000000   1708415   1706850   1705251   1703826   1702754  
  8220.000000   1702141   1701971   1702107   1702316   1702328  
  8210.000000   1701908   1700928   1699411   1697517   1695504  
  8200.000000   1693643   1692153   1691140   1690575   1690315  
  8190.000000   1690155   1689888   1689375   1688555   1687467  
  8180.000000   1686199   1684865   1683554   1682316   1681150  
  8170.000000   1680020   1678874   1677667   1676378   1675013  
  8160.000000   1673595   1672149   1670688   1669213   1667706  
  8150.000000   1666152   1664551   1662930   1661354   1659911  
  8140.000000   1658689   1657738   1657056   1656564   1656130  
  8130.000000   1655599   1654837   1653772   1652418   1650875  
  8120.000000   1649292   1647838   1646647   1645793   1645270  
  8110.000000   1644998   1644854   1644683   1644340   1643696  
  8100.000000   1642671   1641224   1639387   1637244   1634943  
  8090.000000   1632667   1630609   1628937   1627765   1627135  
  8080.000000   1627010   1627288   1627811   1628408   1628899  
  8070.000000   1629139   1629028   1628532   1627694   1626611  
  8060.000000   1625432   1624290   1623281   1622414   1621619  
  8050.000000   1620768   1619734   1618460   1616992   1615482  
  8040.000000   1614132   1613126   1612553   1612369   1612413  
  8030.000000   1612462   1612320   1611886   1611189   1610364  
  8020.000000   1609595   1609038   1608772   1608784   1608988  
  8010.000000   1609267   1609511   1609641   1609604   1609370  
  8000.000000   1608920   1608251   1607390   1606397   1605360  
  7990.000000   1604366   1603470   1602659   1601858   1600956  
  7980.000000   1599870   1598593   1597225   1595951   1594973  
  7970.000000   1594435   1594350   1594600   1594974   1595254  
  7960.000000   1595304   1595108   1594776   1594459   1594294  
  7950.000000   1594305   1594413   1594441   1594216   1593628  
  7940.000000   1592698   1591577   1590492   1589688   1589333  
  7930.000000   1589495   1590108   1591022   1592035   1592954  
  7920.000000   1593628   1593970   1593958   1593623   1593034  
  7910.000000   1592270   1591407   1590499   1589586   1588686  
  7900.000000   1587827   1587044   1586390   1585922   1585680  
  7890.000000   1585668   1585835   1586091   1586327   1586458  
  7880.000000   1586451   1586343   1586222   1586197   1586352  
  7870.000000   1586710   1587227   1587794   1588281   1588571  
  7860.000000   1588589   1588321   1587801   1587105   1586328  
  7850.000000   1585576   1584941   1584507   1584315   1584368  
  7840.000000   1584613   1584955   1585265   1585422   1585335  
  7830.000000   1584967   1584337   1583509   1582569   1581600  
  7820.000000   1580673   1579836   1579131   1578586   1578222  
  7810.000000   1578044   1578022   1578102   1578202   1578242  
  7800.000000   1578163   1577957   1577656   1577329   1577045  
  7790.000000   1576848   1576736   1576662   1576548   1576321  
  7780.000000   1575927   1575352   1574616   1573759   1572820  
  7770.000000   1571829   1570795   1569720   1568604   1567462  
  7760.000000   1566327   1565258   1564322   1563591   1563113  
  7750.000000   1562909   1562946   1563152   1563420   1563635  
  7740.000000   1563703   1563566   1563229   1562729   1562133  
  7730.000000   1561493   1560834   1560137   1559367   1558493  
  7720.000000   1557525   1556526   1555605   1554884   1554454  
  7710.000000   1554340   1554482   1554756   1555009   1555105  
  7700.000000   1554968   1554599   1554067   1553480   1552952  
  7690.000000   1552567   1552364   1552333   1552429   1552587  
  7680.000000   1552746   1552851   1552868   1552777   1552572  
  7670.000000   1552258   1551852   1551375   1550859   1550341  
  7660.000000   1549866   1549472   1549197   1549056   1549043  
  7650.000000   1549128   1549261   1549392   1549482   1549517  
  7640.000000   1549519   1549531   1549603   1549764   1550008  
  7630.000000   1550283   1550518   1550636   1550599   1550412  
  7620.000000   1550133   1549844   1549626   1549521   1549528  
  7610.000000   1549601   1549680   1549711   1549683   1549621  
  7600.000000   1549579   1549618   1549776   1550062   1550451  
  7590.000000   1550903   1551381   1551864   1552351   1552853  
  7580.000000   1553378   1553916   1554443   1554921   1555323  
  7570.000000   1555641   1555895   1556133   1556409   1556765  
  7560.000000   1557215   1557739   1558297   1558832   1559303  
  7550.000000   1559676   1559949   1560127   1560229   1560268  
  7540.000000   1560263   1560235   1560224   1560289   1560508  
  7530.000000   1560965   1561725   1562817   1564221   1565871  
  7520.000000   1567668   1569494   1571245   1572824   1574179  
  7510.000000   1575271   1576109   1576714   1577157   1577519  
  7500.000000   1577919   1578468   1579262   1580347   1581715  
  7490.000000   1583309   1585043   1586840   1588648   1590457  
  7480.000000   1592290   1594173   1596110   1598057   1599941  
  7470.000000   1601663   1603159   1604408   1605468   1606439  
  7460.000000   1607450   1608606   1609968   1611538   1613277  
  7450.000000   1615116   1617004   1618898   1620785   1622657  
  7440.000000   1624516   1626364   1628214   1630095   1632058  
  7430.000000   1634169   1636491   1639047   1641813   1644698  
  7420.000000   1647573   1650285   1652710   1654766   1656450  
  7410.000000   1657815   1658968   1660037   1661156   1662446  
  7400.000000   1663996   1665857   1668034   1670479   1673096  
  7390.000000   1675750   1678298   1680621   1682650   1684393  
  7380.000000   1685930   1687397   1688950   1690716   1692769  
  7370.000000   1695103   1697644   1700270   1702845   1705250  
  7360.000000   1707411   1709314   1710997   1712537   1714019  
  7350.000000   1715515   1717067   1718674   1720306   1721919  
  7340.000000   1723474   1724960   1726396   1727830   1729314  
  7330.000000   1730899   1732611   1734454   1736401   1738414  
  7320.000000   1740446   1742453   1744394   1746232   1747937  
  7310.000000   1749479   1750846   1752035   1753067   1753977  
  7300.000000   1754814   1755635   1756494   1757441   1758508  
  7290.000000   1759717   1761062   1762525   1764060   1765621  
  7280.000000   1767152   1768612   1769973   1771224   1772372  
  7270.000000   1773424   1774389   1775262   1776047   1776744  
  7260.000000   1777379   1777986   1778624   1779342   1780179  
  7250.000000   1781141   1782214   1783365   1784576   1785848  
  7240.000000   1787221   1788750   1790505   1792511   1794769  
  7230.000000   1797211   1799752   1802277   1804707   1806978  
  7220.000000   1809093   1811077   1813007   1814959   1817034  
  7210.000000   1819307   1821848   1824672   1827767   1831066  
  7200.000000   1834483   1837919   1841301   1844592   1847813  
  7190.000000   1851013   1854277   1857663   1861217   1864915  
  7180.000000   1868708   1872493   1876184   1879687   1882963  
  7170.000000   1885998   1888850   1891609   1894414   1897401  
  7160.000000   1900703   1904396   1908510   1913008   1917824  
  7150.000000   1922858   1928034   1933274   1938549   1943819  
  7140.000000   1949077   1954283   1959421   1964454   1969405  
  7130.000000   1974305   1979251   1984329   1989642   1995229  
  7120.000000   2001098   2007191   2013442   2019780   2026184  
  7110.000000   2032655   2039228   2045924   2052751   2059667  
  7100.000000   2066628   2073573   2080482   2087347   2094204  
  7090.000000   2101074   2107976   2114887   2121773   2128589  
  7080.000000   2135312   2141944   2148522   2155094   2161713  
  7070.000000   2168413   2175206   2182087   2189035   2196025  
  7060.000000   2203024   2209989   2216876   2223640   2230255  
  7050.000000   2236728   2243102   2249449   2255845   2262344  
  7040.000000   2268958   2275656   2282376   2289059   2295661  
  7030.000000   2302177   2308624   2315032   2321414   2327768  
  7020.000000   2334068   2340292   2346418   2352458   2358421  
  7010.000000   2364331   2370181   2375959   2381624   2387155  
  7000.000000   2392529   2397762   2402863   2407862   2412748  
  6990.000000   2417515   2422127   2426577   2430862   2435028  
  6980.000000   2439110   2443160   2447176   2451149   2455021  
  6970.000000   2458761   2462336   2465768   2469082   2472329  
  6960.000000   2475519   2478656   2481695   2484605   2487353  
  6950.000000   2489946   2492400   2494754   2497022   2499211  
  6940.000000   2501296   2503270   2505128   2506909   2508659  
  6930.000000   2510447   2512306   2514249   2516233   2518202  
  6920.000000   2520075   2521797   2523322   2524644   2525771  
  6910.000000   2526745   2527610   2528432   2529268   2530174  
  6900.000000   2531168   2532239   2533334   2534387   2535334  
  6890.000000   2536147   2536842   2537477   2538128   2538857  
  6880.000000   2539690   2540616   2541595   2542593   2543590  
  6870.000000   2544599   2545639   2546729   2547851   2548961  
  6860.000000   2549995   2550898   2551648   2552262   2552785  
  6850.000000   2553261   2553711   2554123   2554459   2554688  
  6840.000000   2554803   2554847   2554886   2554999   2555232  
  6830.000000   2555592   2556035   2556508   2556962   2557389  
  6820.000000   2557811   2558270   2558791   2559359   2559913  
  6810.000000   2560368   2560645   2560704   2560561   2560285  
  6800.000000   2559971   2559711   2559558   2559525   2559579  
  6790.000000   2559674   2559755   2559788   2559757   2559670  
  6780.000000   2559540   2559387   2559216   2559024   2558787  
  6770.000000   2558480   2558078   2557572   2556977   2556337  
  6760.000000   2555709   2555154   2554705   2554363   2554082  
  6750.000000   2553796   2553432   2552949   2552343   2551652  
  6740.000000   2550939   2550262   2549658   2549126   2548638  
  6730.000000   2548154   2547638   2547076   2546473   2545850  
  6720.000000   2545228   2544629   2544061   2543535   2543050  
  6710.000000   2542601   2542167   2541713   2541188   2540549  
  6700.000000   2539763   2538841   2537824   2536787   2535799  
  6690.000000   2534913   2534135   2533431   2532736   2531988  
  6680.000000   2531132   2530150   2529040   2527824   2526523  
  6670.000000   2525164   2523775   2522397   2521070   2519830  
  6660.000000   2518684   2517605   2516526   2515366   2514059  
  6650.000000   2512585   2510981   2509333   2507733   2506251  
  6640.000000   2504895   2503624   2502358   2501032   2499614  
  6630.000000   2498131   2496637   2495194   2493826   2492515  
  6620.000000   2491199   2489810   2488302   2486673   2484963  
  6610.000000   2483226   2481507   2479813   2478113   2476361  
  6600.000000   2474518   2472580   2470580   2468581   2466647  
  6590.000000   2464823   2463123   2461532   2460014   2458533  
  6580.000000   2457055   2455555   2454018   2452432   2450796  
  6570.000000   2449122   2447439   2445785   2444201   2442711  
  6560.000000   2441314   2439980   2438667   2437333   2435960  
  6550.000000   2434555   2433146   2431765   2430432   2429143  
  6540.000000   2427876   2426602   2425309   2424002   2422708  
  6530.000000   2421458   2420275   2419161   2418100   2417065  
  6520.000000   2416034   2414994   2413949   2412904   2411863  
  6510.000000   2410816   2409748   2408639   2407482   2406282  
  6500.000000   2405055   2403823   2402606   2401414   2400253  
  6490.000000   2399126   2398038   2396996   2395997   2395030  
  6480.000000   2394065   2393069   2392014   2390892   2389725  
  6470.000000   2388553   2387420   2386348   2385333   2384335  
  6460.000000   2383304   2382202   2381020   2379786   2378552  
  6450.000000   2377377   2376300   2375337   2374476   2373694  
  6440.000000   2372973   2372298   2371658   2371030   2370378  
  6430.000000   2369649   2368799   2367804   2366688   2365510  
  6420.000000   2364364   2363327   2362452   2361735   2361135  
  6410.000000   2360589   2360044   2359473   2358884   2358299  
  6400.000000   2357740   2357212   2356706   2356202   2355692  
  6390.000000   2355183   2354705   2354288   2353952   2353693  
  6380.000000   2353479   2353266   2353010   2352682   2352271  
  6370.000000   2351779   2351215   2350581   2349880   2349123  
  6360.000000   2348329   2347536   2346783   2346101   2345488  
  6350.000000   2344917   2344333   2343689   2342955   2342149  
  6340.000000   2341315   2340521   2339814   2339215   2338697  
  6330.000000   2338208   2337683   2337073   2336358   2335547  
  6320.000000   2334661   2333728   2332757   2331748   2330690  
  6310.000000   2329581   2328423   2327238   2326042   2324854  
  6300.000000   2323671   2322484   2321266   2320001   2318673  
  6290.000000   2317282   2315833   2314343   2312817   2311271  
  6280.000000   2309707   2308133   2306547   2304957   2303355  
  6270.000000   2301740   2300100   2298422   2296688   2294883  
  6260.000000   2292983   2290979   2288863   2286653   2284379  
  6250.000000   2282098   2279869   2277749   2275765   2273910  
  6240.000000   2272134   2270371   2268549   2266621   2264570  
  6230.000000   2262419   2260204   2257966   2255732   2253508  
  6220.000000   2251290   2249071   2246859   2244673   2242543  
  6210.000000   2240488   2238514   2236604   2234727   2232855  
  6200.000000   2230973   2229088   2227225   2225413   2223676  
  6190.000000   2222016   2220426   2218880   2217358   2215841  
  6180.000000   2214318   2212780   2211223   2209641   2208033  
  6170.000000   2206407   2204784   2203191   2201653   2200184  
  6160.000000   2198779   2197417   2196069   2194709   2193325  
  6150.000000   2191919   2190500   2189075   2187641   2186183  
  6140.000000   2184688   2183151   2181586   2180023   2178497  
  6130.000000   2177034   2175636   2174283   2172940   2171574  
  6120.000000   2170178   2168764   2167370   2166035   2164789  
  6110.000000   2163634   2162554   2161516   2160498   2159489  
  6100.000000   2158505   2157566   2156705   2155934   2155260  
  6090.000000   2154664   2154130   2153633   2153162   2152702  
  6080.000000   2152257   2151821   2151408   2151019   2150675  
  6070.000000   2150383   2150162   2150008   2149924   2149891  
  6060.000000   2149909   2149974   2150110   2150340   2150704  
  6050.000000   2151215   2151886   2152689   2153605   2154593  
  6040.000000   2155645   2156751   2157929   2159189   2160547  
  6030.000000   2161991   2163515   2165091   2166714   2168374  
  6020.000000   2170085   2171851   2173683   2175569   2177500  
  6010.000000   2179451   2181414   2183377   2185352   2187340  
  6000.000000   2189358   2191398   2193467   2195552   2197661  
  5990.000000   2199797   2201982   2204228   2206560   2208987  
  5980.000000   2211525   2214177   2216958   2219867   2222907  
  5970.000000   2226058   2229293   2232563   2235833   2239065  
  5960.000000   2242258   2245421   2248592   2251796   2255062  
  5950.000000   2258386   2261758   2265153   2268558   2271967  
  5940.000000   2275393   2278856   2282374   2285959   2289611  
  5930.000000   2293323   2297085   2300887   2304721   2308573  
  5920.000000   2312422   2316234   2319973   2323603   2327102  
  5910.000000   2330462   2333692   2336807   2339824   2342759  
  5900.000000   2345624   2348445   2351246   2354069   2356943  
  5890.000000   2359896   2362918   2365983   2369040   2372042  
  5880.000000   2374952   2377762   2380480   2383129   2385725  
  5870.000000   2388271   2390750   2393139   2395425   2397610  
  5860.000000   2399719   2401793   2403872   2405989   2408155  
  5850.000000   2410373   2412633   2414929   2417259   2419629  
  5840.000000   2422040   2424495   2426986   2429505   2432043  
  5830.000000   2434588   2437128   2439645   2442110   2444491  
  5820.000000   2446757   2448898   2450921   2452868   2454784  
  5810.000000   2456723   2458702   2460725   2462748   2464738  
  5800.000000   2466642   2468459   2470182   2471851   2473470  
  5790.000000   2475057   2476565   2477951   2479122   2480004  
  5780.000000   2480503   2480562   2480124   2479177   2477727  
  5770.000000   2475838   2473597   2471144   2468609   2466131  
  5760.000000   2463793   2461649   2459692   2457903   2456245  
  5750.000000   2454708   2453288   2452002   2450859   2449856  
  5740.000000   2448974   2448172   2447419   2446685   2445969  
  5730.000000   2445271   2444613   2444003   2443451   2442952  
  5720.000000   2442504   2442100   2441742   2441423   2441140  
  5710.000000   2440876   2440615   2440342   2440052   2439755  
  5700.000000   2439470   2439219   2439016   2438866   2438759  
  5690.000000   2438687   2438639   2438619   2438625   2438663  
  5680.000000   2438712   2438743   2438702   2438541   2438210  
  5670.000000   2437687   2436957   2436025   2434891   2433560  
  5660.000000   2432030   2430316   2428444   2426475   2424475  
  5650.000000   2422522   2420668   2418942   2417331   2415807  
  5640.000000   2414329   2412869   2411417   2409985   2408595  
  5630.000000   2407269   2406023   2404859   2403776   2402761  
  5620.000000   2401804   2400888   2399998   2399113   2398217  
  5610.000000   2397298   2396357   2395405   2394460   2393533  
  5600.000000   2392630   2391736   2390831   2389894   2388914  
  5590.000000   2387897   2386863   2385840   2384847   2383896  
  5580.000000   2382980   2382086   2381196   2380298   2379379  
  5570.000000   2378428   2377430   2376366   2375220   2373987  
  5560.000000   2372681   2371334   2369986   2368679   2367434  
  5550.000000   2366252   2365113   2363989   2362857   2361714  
  5540.000000   2360569   2359445   2358360   2357323   2356328  
  5530.000000   2355361   2354404   2353447   2352482   2351508  
  5520.000000   2350518   2349502   2348449   2347354   2346218  
  5510.000000   2345062   2343908   2342780   2341684   2340617  
  5500.000000   2339556   2338482   2337375   2336237   2335072  
  5490.000000   2333891   2332688   2331449   2330141   2328743  
  5480.000000   2327240   2325649   2323999   2322336   2320692  
  5470.000000   2319081   2317489   2315890   2314246   2312534  
  5460.000000   2310736   2308856   2306895   2304864   2302772  
  5450.000000   2300638   2298486   2296352   2294272   2292272  
  5440.000000   2290360   2288522   2286734   2284967   2283211  
  5430.000000   2281464   2279742   2278049   2276392   2274752  
  5420.000000   2273123   2271498   2269911   2268406   2267053  
  5410.000000   2265896   2264962   2264221   2263634   2263141  
  5400.000000   2262716   2262345   2262057   2261868   2261806  
  5390.000000   2261855   2262003   2262210   2262480   2262816  
  5380.000000   2263281   2263915   2264779   2265869   2267184  
  5370.000000   2268659   2270269   2271956   2273737   2275599  
  5360.000000   2277599   2279740   2282088   2284646   2287490  
  5350.000000   2290632   2294161   2298080   2302459   2307262  
  5340.000000   2312523   2318181   2324278   2330769   2337717  
  5330.000000   2345073   2352892   2361100   2369737   2378738  
  5320.000000   2388191   2398090   2408584   2419696   2431571  
  5310.000000   2444180   2457601   2471738   2486636   2502206  
  5300.000000   2518528   2535568   2553454   2572181   2591868  
  5290.000000   2612470   2634029   2656411   2679568   2703321  
  5280.000000   2727625   2752378   2777643   2803441   2829905  
  5270.000000   2857056   2884910   2913325   2942111   2971020  
  5260.000000   2999851   3028492   3056924   3085224   3113445  
  5250.000000   3141627   3169659   3197406   3224596   3251077  
  5240.000000   3276656   3301365   3325193   3348314   3370763  
  5230.000000   3392680   3413994   3434721   3454683   3473854  
  5220.000000   3492079   3509418   3525827   3541470   3556366  
  5210.000000   3570682   3584378   3597515   3609946   3621664  
  5200.000000   3632517   3642563   3651753   3660233   3668002  
  5190.000000   3675191   3681746   3687723   3693022   3697691  
  5180.000000   3701665   3705037   3707783   3710001   3711649  
  5170.000000   3712791   3713365   3713437   3712974   3712067  
  5160.000000   3710700   3708945   3706755   3704163   3701111  
  5150.000000   3697646   3693756   3689534   3684994   3680215  
  5140.000000   3675176   3669904   3664350   3658538   3652454  
  5130.000000   3646162   3639689   3633105   3626425   3619684  
  5120.000000   3612869   3606000   3599076   3592131   3585180  
  5110.000000   3578251   3571341   3564454   3557572   3550697  
  5100.000000   3543831   3536997   3530211   3523490   3516826  
  5090.000000   3510205   3503596   3496982   3490354   3483725  
  5080.000000   3477110   3470528   3463984   3457467   3450952  
  5070.000000   3444417   3437840   3431220   3424563   3417887  
  5060.000000   3411200   3404512   3397819   3391118   3384402  
  5050.000000   3377674   3370934   3364188   3357431   3350658  
  5040.000000   3343857   3337020   3330145   3323242   3316330  
  5030.000000   3309432   3302577   3295784   3289076   3282459  
  5020.000000   3275952   3269557   3263290   3257145   3251130  
  5010.000000   3245228   3239445   3233764   3228207   3222772  
  5000.000000   3217497   3212390   3207484   3202770   3198268  
  4990.000000   3193954   3189847   3185928   3182235   3178758  
  4980.000000   3175540   3172566   3169869   3167421   3165253  
  4970.000000   3163336   3161711   3160359   3159330   3158606  
  4960.000000   3158236   3158197   3158537   3159236   3160340  
  4950.000000   3161822   3163719   3165983   3168633   3171611  
  4940.000000   3174937   3178564   3182533   3186812   3191449  
  4930.000000   3196413   3201739   3207386   3213385   3219707  
  4920.000000   3226391   3233421   3240834   3248601   3256731  
  4910.000000   3265168   3273896   3282853   3292019   3301347  
  4900.000000   3310824   3320413   3330101   3339858   3349668  
  4890.000000   3359512   3369368   3379219   3389025   3398751  
  4880.000000   3408328   3417711   3426825   3435646   3444122  
  4870.000000   3452260   3460025   3467436   3474453   3481089  
  4860.000000   3487299   3493103   3498471   3503443   3508005  
  4850.000000   3512209   3516049   3519578   3522793   3525752  
  4840.000000   3528464   3530998   3533373   3535652   3537848  
  4830.000000   3540001   3542100   3544159   3546152   3548079  
  4820.000000   3549918   3551678   3553357   3554978   3556555  
  4810.000000   3558113   3559660   3561205   3562740   3564257  
  4800.000000   3565747   3567206   3568640   3570064   3571494  
  4790.000000   3572949   3574436   3575961   3577516   3579098  
  4780.000000   3580698   3582318   3583952   3585600   3587245  
  4770.000000   3588868   3590433   3591913   3593270   3594492  
  4760.000000   3595564   3596497   3597294   3597977   3598551  
  4750.000000   3599033   3599419   3599721   3599926   3600040  
  4740.000000   3600045   3599944   3599721   3599383   3598925  
  4730.000000   3598362   3597700   3596957   3596138   3595251  
  4720.000000   3594297   3593283   3592219   3591125   3590032  
  4710.000000   3588974   3587990   3587110   3586360   3585750  
  4700.000000   3585289   3584970   3584790   3584737   3584803  
  4690.000000   3584972   3585234   3585570   3585970   3586411  
  4680.000000   3586882   3587353   3587811   3588221   3588571  
  4670.000000   3588835   3589021   3589130   3589198   3589252  
  4660.000000   3589345   3589515   3589811   3590263   3590905  
  4650.000000   3591755   3592828   3594122   3595630   3597323  
  4640.000000   3599173   3601139   3603188   3605287   3607416  
  4630.000000   3609560   3611706   3613843   3615954   3618019  
  4620.000000   3620011   3621904   3623667   3625276   3626702  
  4610.000000   3627930   3628939   3629741   3630341   3630783  
  4600.000000   3631100   3631352   3631564   3631771   3631960  
  4590.000000   3632122   3632211   3632201   3632048   3631743  
  4580.000000   3631268   3630640   3629858   3628945   3627906  
  4570.000000   3626764   3625523   3624205   3622815   3621371  
  4560.000000   3619873   3618333   3616747   3615124   3613465  
  4550.000000   3611778   3610067   3608338   3606592   3604828  
  4540.000000   3603055   3601279   3599526   3597817   3596190  
  4530.000000   3594664   3593271   3592005   3590884   3589889  
  4520.000000   3589043   3588329   3587792   3587426   3587291  
  4510.000000   3587385   3587779   3588475   3589561   3591043  
  4500.000000   3593018   3595478   3598506   3602064   3606214  
  4490.000000   3610907   3616213   3622103   3628670   3635902  
  4480.000000   3643891   3652603   3662096   3672300   3683235  
  4470.000000   3694809   3707022   3719777   3733061   3746773  
  4460.000000   3760888   3775308   3790009   3804912   3820000  
  4450.000000   3835214   3850541   3865930   3881356   3896774  
  4440.000000   3912146   3927446   3942633   3957702   3972616  
  4430.000000   3987387   4001965   4016366   4030519   4044424  
  4420.000000   4057982   4071175   4083882   4096072   4107614  
  4410.000000   4118480   4128552   4137821   4146204   4153734  
  4400.000000   4160378   4166222   4171285   4175692   4179498  
  4390.000000   4182847   4185811   4188534   4191091   4193603  
  4380.000000   4196122   4198727   4201435   4204282   4207268  
  4370.000000   4210417   4213744   4217281   4221056   4225098  
  4360.000000   4229421   4234028   4238895   4244000   4249282  
  4350.000000   4254710   4260202   4265740   4271251   4276748  
  4340.000000   4282185   4287581   4292859   4297931   4302558  
  4330.000000   4306448   4309189   4310405   4309771   4307179  
  4320.000000   4302736   4296830   4290006   4282928   4276177  
  4310.000000   4270227   4265307   4261483   4258625   4256560  
  4300.000000   4255073   4254006   4253243   4252715   4252386  
  4290.000000   4252212   4252183   4252265   4252473   4252811  
  4280.000000   4253319   4254014   4254909   4255994   4257228  
  4270.000000   4258576   4259971   4261356   4262622   4263645  
  4260.000000   4264229   4264170   4263248   4261318   4258315  
  4250.000000   4254325   4249536   4244250   4238776   4233427  
  4240.000000   4228413   4223880   4219844   4216278   4213082  
  4230.000000   4210162   4207408   4204732   4202058   4199324  
  4220.000000   4196508   4193594   4190628   4187654   4184773  
  4210.000000   4182058   4179608   4177468   4175683   4174242  
  4200.000000   4173135   4172309   4171728   4171325   4171063  
  4190.000000   4170877   4170749   4170630   4170538   4170450  
  4180.000000   4170424   4170464   4170649   4170999   4171605  
  4170.000000   4172493   4173761   4175437   4177613   4180303  
  4160.000000   4183577   4187412   4191843   4196811   4202324  
  4150.000000   4208301   4214744   4221568   4228790   4236348  
  4140.000000   4244292   4252599   4261350   4270535   4280224  
  4130.000000   4290376   4301014   4312052   4323489   4335248  
  4120.000000   4347354   4359783   4372605   4385837   4399553  
  4110.000000   4413758   4428489   4443708   4459406   4475504  
  4100.000000   4491953   4508657   4525551   4542550   4559615  
  4090.000000   4576708   4593825   4610975   4628171   4645436  
  4080.000000   4662768   4680178   4697632   4715123   4732584  
  4070.000000   4749990   4767239   4784295   4801046   4817468  
  4060.000000   4833457   4849012   4864033   4878525   4892386  
  4050.000000   4905642   4918218   4930194   4941536   4952353  
  4040.000000   4962595   4972330   4981447   4989971   4997771  
  4030.000000   5004891   5011238   5016883   5021752   5025893  
  4020.000000   5029194   5031697   5033362   5034271   5034391  
  4010.000000   5033879   5032822   5031266   5029017   5026146  
  4000.000000   5022958  
##END= 
