##TITLE= Sample 057 By ssteindl date Dienstag, November 20 2018
##JCAMP-DX= 4.24
##DATA TYPE= INFRARED SPECTRUM
##ORIGIN= Exported PE Spectrum Data File
##OWNER= Sandra Steindl
##DATE= 18/11/20
##TIME= 13:07:30.00
##SPECTROMETER/DATA SYSTEM= PERKIN-ELMER Frontier FT-IR/NIR IR
##INSTRUMENT PARAMETERS=
  APODIZATION=stark
  DETECTOR=INGAAS
##RESOLUTION= 16.000000
##DELTAX= -2.000000
##XUNITS= 1/CM
##YUNITS= A
##XFACTOR= 1.00
##YFACTOR= 0.00000011920928955078
##FIRSTX= 10000.00
##LASTX= 4000.00
##NPOINTS= 3001
##FIRSTY= 0.230726
##MAXY= 0.726219
##MINY= 0.198253
##XYDATA= (X++(Y..Y))
 10000.000000   1935466   1934394   1932471   1928987   1924675  
  9990.000000   1920859   1918123   1916229   1914942   1914135  
  9980.000000   1913544   1912771   1911611   1910033   1908106  
  9970.000000   1905985   1904004   1902578   1902097   1902793  
  9960.000000   1904661   1907418   1910611   1913742   1916415  
  9950.000000   1918423   1919747   1920504   1920849   1920913  
  9940.000000   1920764   1920413   1919838   1919023   1917960  
  9930.000000   1916679   1915179   1913487   1911576   1909470  
  9920.000000   1907190   1904823   1902481   1900291   1898342  
  9910.000000   1896639   1895075   1893428   1891438   1888869  
  9900.000000   1885651   1881922   1878082   1874687   1872318  
  9890.000000   1871380   1871942   1873672   1875934   1877976  
  9880.000000   1879255   1879591   1879274   1878867   1878936  
  9870.000000   1879766   1881166   1882597   1883363   1883032  
  9860.000000   1881617   1879694   1878113   1877679   1878700  
  9850.000000   1880822   1883084   1884213   1883136   1879243  
  9840.000000   1872695   1864190   1854805   1845563   1837252  
  9830.000000   1830366   1825154   1821838   1820585   1821618  
  9820.000000   1824990   1830602   1838025   1846594   1855442  
  9810.000000   1863632   1870328   1874815   1876677   1875689  
  9800.000000   1872001   1866018   1858531   1850532   1843123  
  9790.000000   1837220   1833358   1831560   1831362   1832033  
  9780.000000   1832773   1833032   1832541   1831433   1830045  
  9770.000000   1828879   1828409   1829061   1831128   1834740  
  9760.000000   1839786   1845837   1852156   1857748   1861619  
  9750.000000   1862974   1861534   1857537   1851725   1845021  
  9740.000000   1838283   1832069   1826593   1821875   1817903  
  9730.000000   1814879   1813157   1813214   1815282   1819238  
  9720.000000   1824413   1829814   1834344   1837174   1837995  
  9710.000000   1837025   1834948   1832531   1830447   1828985  
  9700.000000   1828086   1827397   1826456   1824891   1822496  
  9690.000000   1819351   1815721   1812072   1808914   1806743  
  9680.000000   1805888   1806394   1807966   1809938   1811473  
  9670.000000   1811733   1810221   1806913   1802378   1797573  
  9660.000000   1793639   1791510   1791714   1794195   1798398  
  9650.000000   1803440   1808368   1812451   1815305   1817001  
  9640.000000   1817922   1818647   1819715   1821481   1824015  
  9630.000000   1827051   1830096   1832495   1833652   1833157  
  9620.000000   1830898   1827112   1822270   1817034   1812037  
  9610.000000   1807861   1804868   1803251   1802955   1803776  
  9600.000000   1805350   1807252   1809020   1810245   1810622  
  9590.000000   1810008   1808434   1806075   1803200   1800090  
  9580.000000   1797052   1794353   1792273   1791011   1790654  
  9570.000000   1791094   1791968   1792735   1792755   1791537  
  9560.000000   1788926   1785252   1781316   1778140   1776631  
  9550.000000   1777184   1779501   1782636   1785349   1786548  
  9540.000000   1785710   1783028   1779323   1775710   1773174  
  9530.000000   1772247   1772820   1774282   1775780   1776610  
  9520.000000   1776466   1775516   1774239   1773170   1772612  
  9510.000000   1772542   1772619   1772340   1771278   1769179  
  9500.000000   1766134   1762460   1758663   1755216   1752456  
  9490.000000   1750499   1749265   1748575   1748259   1748259  
  9480.000000   1748629   1749531   1751109   1753430   1756397  
  9470.000000   1759744   1763108   1766085   1768383   1769810  
  9460.000000   1770327   1769951   1768744   1766786   1764206  
  9450.000000   1761260   1758314   1755854   1754306   1753950  
  9440.000000   1754722   1756244   1757864   1758907   1758875  
  9430.000000   1757636   1755400   1752626   1749791   1747226  
  9420.000000   1745048   1743194   1741592   1740251   1739320  
  9410.000000   1738957   1739187   1739779   1740253   1740050  
  9400.000000   1738779   1736440   1733492   1730729   1728972  
  9390.000000   1728743   1730049   1732403   1735050   1737278  
  9380.000000   1738673   1739194   1739067   1738562   1737794  
  9370.000000   1736649   1734901   1732408   1729303   1726007  
  9360.000000   1723106   1721105   1720214   1720247   1720693  
  9350.000000   1720964   1720630   1719613   1718137   1716597  
  9340.000000   1715323   1714461   1713958   1713673   1713519  
  9330.000000   1713528   1713834   1714510   1715464   1716362  
  9320.000000   1716730   1716127   1714357   1711604   1708406  
  9310.000000   1705453   1703323   1702285   1702241   1702837  
  9300.000000   1703636   1704303   1704701   1704861   1704891  
  9290.000000   1704837   1704665   1704261   1703577   1702657  
  9280.000000   1701710   1700972   1700657   1700809   1701339  
  9270.000000   1702067   1702834   1703604   1704452   1705550  
  9260.000000   1707036   1708965   1711251   1713736   1716229  
  9250.000000   1718591   1720707   1722477   1723768   1724410  
  9240.000000   1724252   1723239   1721480   1719250   1716890  
  9230.000000   1714694   1712763   1711019   1709255   1707319  
  9220.000000   1705214   1703173   1701537   1700597   1700398  
  9210.000000   1700692   1701011   1700866   1699978   1698421  
  9200.000000   1696635   1695211   1694636   1695069   1696289  
  9190.000000   1697796   1699046   1699672   1699635   1699168  
  9180.000000   1698640   1698332   1698330   1698477   1698489  
  9170.000000   1698100   1697204   1695889   1694396   1693007  
  9160.000000   1691950   1691366   1691270   1691638   1692378  
  9150.000000   1693398   1694549   1695668   1696574   1697134  
  9140.000000   1697296   1697110   1696703   1696182   1695570  
  9130.000000   1694737   1693473   1691563   1688957   1685813  
  9120.000000   1682514   1679540   1677299   1675995   1675547  
  9110.000000   1675694   1676108   1676576   1677058   1677678  
  9100.000000   1678614   1679968   1681684   1683512   1685112  
  9090.000000   1686139   1686400   1685853   1684648   1683023  
  9080.000000   1681285   1679707   1678504   1677809   1677662  
  9070.000000   1677995   1678620   1679281   1679725   1679797  
  9060.000000   1679488   1678976   1678549   1678506   1679014  
  9050.000000   1680046   1681398   1682766   1683875   1684577  
  9040.000000   1684880   1684901   1684759   1684511   1684122  
  9030.000000   1683510   1682633   1681549   1680424   1679461  
  9020.000000   1678778   1678342   1677955   1677367   1676397  
  9010.000000   1675068   1673635   1672489   1671997   1672308  
  9000.000000   1673277   1674504   1675487   1675834   1675420  
  8990.000000   1674450   1673357   1672645   1672671   1673537  
  8980.000000   1675062   1676873   1678551   1679728   1680206  
  8970.000000   1679910   1678908   1677305   1675238   1672845  
  8960.000000   1670286   1667769   1665540   1663883   1663062  
  8950.000000   1663285   1664617   1666987   1670130   1673646  
  8940.000000   1677025   1679764   1681477   1681969   1681312  
  8930.000000   1679788   1677852   1675946   1674410   1673373  
  8920.000000   1672783   1672455   1672174   1671803   1671307  
  8910.000000   1670776   1670327   1670075   1670080   1670347  
  8900.000000   1670867   1671604   1672541   1673609   1674718  
  8890.000000   1675704   1676399   1676679   1676556   1676214  
  8880.000000   1675976   1676209   1677193   1679009   1681499  
  8870.000000   1684308   1686992   1689143   1690500   1690980  
  8860.000000   1690687   1689808   1688584   1687224   1685938  
  8850.000000   1684883   1684191   1683923   1684081   1684595  
  8840.000000   1685348   1686248   1687261   1688471   1690019  
  8830.000000   1692068   1694690   1697819   1701230   1704602  
  8820.000000   1707621   1710064   1711861   1713059   1713774  
  8810.000000   1714102   1714096   1713759   1713097   1712167  
  8800.000000   1711113   1710132   1709408   1709050   1709043  
  8790.000000   1709290   1709644   1710023   1710424   1710958  
  8780.000000   1711779   1713017   1714730   1716850   1719250  
  8770.000000   1721730   1724117   1726239   1727976   1729230  
  8760.000000   1729975   1730266   1730282   1730324   1730759  
  8750.000000   1731924   1733996   1736917   1740381   1743914  
  8740.000000   1747031   1749364   1750780   1751364   1751369  
  8730.000000   1751081   1750735   1750463   1750339   1750442  
  8720.000000   1750903   1751906   1753613   1756092   1759226  
  8710.000000   1762736   1766227   1769318   1771761   1773481  
  8700.000000   1774601   1775313   1775839   1776321   1776843  
  8690.000000   1777440   1778160   1779105   1780412   1782234  
  8680.000000   1784641   1787611   1790990   1794545   1797992  
  8670.000000   1801064   1803550   1805314   1806323   1806635  
  8660.000000   1806426   1805968   1805616   1805714   1806521  
  8650.000000   1808108   1810335   1812887   1815368   1817452  
  8640.000000   1818972   1819993   1820756   1821593   1822796  
  8630.000000   1824511   1826722   1829263   1831919   1834475  
  8620.000000   1836777   1838731   1840304   1841498   1842376  
  8610.000000   1843037   1843659   1844438   1845564   1847130  
  8600.000000   1849097   1851294   1853488   1855503   1857297  
  8590.000000   1859038   1861031   1863614   1866987   1871096  
  8580.000000   1875618   1880029   1883785   1886483   1888014  
  8570.000000   1888565   1888540   1888425   1888617   1889347  
  8560.000000   1890622   1892321   1894257   1896285   1898317  
  8550.000000   1900330   1902303   1904200   1905908   1907295  
  8540.000000   1908231   1908678   1908719   1908554   1908470  
  8530.000000   1908748   1909598   1911082   1913092   1915378  
  8520.000000   1917625   1919529   1920894   1921676   1922002  
  8510.000000   1922120   1922325   1922885   1923975   1925658  
  8500.000000   1927873   1930484   1933319   1936195   1938935  
  8490.000000   1941379   1943397   1944902   1945863   1946321  
  8480.000000   1946401   1946284   1946172   1946238   1946595  
  8470.000000   1947290   1948300   1949584   1951088   1952785  
  8460.000000   1954634   1956587   1958546   1960391   1962000  
  8450.000000   1963298   1964295   1965083   1965816   1966635  
  8440.000000   1967614   1968722   1969838   1970810   1971517  
  8430.000000   1971933   1972133   1972270   1972509   1972965  
  8420.000000   1973664   1974554   1975534   1976519   1977454  
  8410.000000   1978342   1979217   1980126   1981094   1982133  
  8400.000000   1983240   1984408   1985620   1986841   1987995  
  8390.000000   1988972   1989637   1989887   1989700   1989177  
  8380.000000   1988516   1987972   1987757   1987973   1988552  
  8370.000000   1989294   1989924   1990217   1990060   1989517  
  8360.000000   1988773   1988084   1987668   1987639   1987970  
  8350.000000   1988525   1989112   1989540   1989673   1989442  
  8340.000000   1988859   1987995   1986969   1985918   1984981  
  8330.000000   1984273   1983852   1983709   1983764   1983910  
  8320.000000   1984039   1984110   1984156   1984284   1984622  
  8310.000000   1985243   1986118   1987083   1987899   1988298  
  8300.000000   1988098   1987244   1985858   1984192   1982564  
  8290.000000   1981265   1980488   1980307   1980662   1981414  
  8280.000000   1982355   1983282   1984010   1984418   1984450  
  8270.000000   1984133   1983562   1982882   1982247   1981762  
  8260.000000   1981446   1981228   1980967   1980520   1979784  
  8250.000000   1978765   1977567   1976383   1975399   1974739  
  8240.000000   1974397   1974244   1974064   1973627   1972761  
  8230.000000   1971408   1969641   1967648   1965665   1963926  
  8220.000000   1962584   1961709   1961251   1961096   1961073  
  8210.000000   1961015   1960781   1960281   1959478   1958364  
  8200.000000   1956953   1955251   1953270   1951024   1948557  
  8190.000000   1945964   1943393   1941047   1939123   1937785  
  8180.000000   1937087   1936973   1937259   1937694   1937996  
  8170.000000   1937923   1937309   1936096   1934327   1932134  
  8160.000000   1929707   1927256   1924980   1923029   1921476  
  8150.000000   1920300   1919391   1918571   1917647   1916464  
  8140.000000   1914943   1913110   1911066   1908967   1906964  
  8130.000000   1905180   1903684   1902504   1901637   1901062  
  8120.000000   1900740   1900596   1900501   1900282   1899746  
  8110.000000   1898738   1897203   1895208   1892949   1890682  
  8100.000000   1888656   1887028   1885823   1884942   1884211  
  8090.000000   1883461   1882592   1881600   1880551   1879531  
  8080.000000   1878586   1877696   1876783   1875752   1874547  
  8070.000000   1873180   1871742   1870363   1869169   1868233  
  8060.000000   1867546   1867033   1866570   1866046   1865383  
  8050.000000   1864560   1863607   1862579   1861539   1860520  
  8040.000000   1859537   1858563   1857562   1856484   1855299  
  8030.000000   1853999   1852626   1851264   1850034   1849069  
  8020.000000   1848474   1848296   1848503   1848981   1849560  
  8010.000000   1850054   1850308   1850225   1849792   1849062  
  8000.000000   1848141   1847150   1846201   1845379   1844735  
  7990.000000   1844280   1843992   1843819   1843685   1843509  
  7980.000000   1843212   1842750   1842115   1841348   1840522  
  7970.000000   1839724   1839028   1838475   1838064   1837760  
  7960.000000   1837507   1837248   1836942   1836559   1836095  
  7950.000000   1835547   1834921   1834216   1833439   1832599  
  7940.000000   1831726   1830861   1830063   1829402   1828940  
  7930.000000   1828729   1828793   1829126   1829689   1830413  
  7920.000000   1831209   1831980   1832635   1833097   1833316  
  7910.000000   1833266   1832957   1832425   1831741   1831001  
  7900.000000   1830316   1829796   1829521   1829526   1829777  
  7890.000000   1830182   1830608   1830912   1830986   1830778  
  7880.000000   1830308   1829656   1828938   1828275   1827767  
  7870.000000   1827486   1827467   1827719   1828221   1828926  
  7860.000000   1829749   1830578   1831275   1831713   1831804  
  7850.000000   1831527   1830940   1830155   1829308   1828504  
  7840.000000   1827794   1827157   1826532   1825854   1825102  
  7830.000000   1824324   1823618   1823117   1822916   1823058  
  7820.000000   1823487   1824090   1824712   1825219   1825522  
  7810.000000   1825608   1825513   1825307   1825051   1824772  
  7800.000000   1824451   1824028   1823426   1822577   1821447  
  7790.000000   1820055   1818467   1816789   1815138   1813627  
  7780.000000   1812331   1811284   1810472   1809844   1809326  
  7770.000000   1808847   1808351   1807814   1807246   1806687  
  7760.000000   1806194   1805826   1805629   1805610   1805740  
  7750.000000   1805946   1806125   1806174   1806013   1805613  
  7740.000000   1805006   1804276   1803531   1802863   1802313  
  7730.000000   1801854   1801400   1800833   1800058   1799032  
  7720.000000   1797793   1796443   1795123   1793964   1793052  
  7710.000000   1792409   1792006   1791780   1791668   1791622  
  7700.000000   1791627   1791678   1791778   1791917   1792072  
  7690.000000   1792204   1792282   1792282   1792208   1792076  
  7680.000000   1791920   1791765   1791633   1791524   1791427  
  7670.000000   1791323   1791190   1791021   1790826   1790631  
  7660.000000   1790480   1790414   1790461   1790618   1790849  
  7650.000000   1791090   1791269   1791327   1791247   1791054  
  7640.000000   1790817   1790614   1790520   1790565   1790737  
  7630.000000   1790976   1791214   1791384   1791458   1791442  
  7620.000000   1791382   1791334   1791359   1791502   1791794  
  7610.000000   1792246   1792860   1793615   1794483   1795413  
  7600.000000   1796348   1797230   1798014   1798675   1799216  
  7590.000000   1799653   1800021   1800347   1800663   1800989  
  7580.000000   1801357   1801794   1802337   1803004   1803790  
  7570.000000   1804658   1805544   1806386   1807149   1807851  
  7560.000000   1808568   1809402   1810455   1811772   1813324  
  7550.000000   1814989   1816605   1817996   1819056   1819756  
  7540.000000   1820177   1820458   1820778   1821290   1822104  
  7530.000000   1823259   1824742   1826500   1828467   1830585  
  7520.000000   1832807   1835096   1837426   1839758   1842053  
  7510.000000   1844253   1846315   1848185   1849855   1851328  
  7500.000000   1852662   1853930   1855233   1856655   1858255  
  7490.000000   1860056   1862048   1864202   1866490   1868895  
  7480.000000   1871419   1874064   1876822   1879645   1882461  
  7470.000000   1885155   1887635   1889823   1891724   1893387  
  7460.000000   1894932   1896493   1898208   1900179   1902463  
  7450.000000   1905067   1907964   1911101   1914413   1917831  
  7440.000000   1921291   1924733   1928117   1931406   1934588  
  7430.000000   1937651   1940605   1943464   1946262   1949042  
  7420.000000   1951860   1954769   1957802   1960953   1964167  
  7410.000000   1967352   1970397   1973213   1975766   1978097  
  7400.000000   1980309   1982543   1984917   1987505   1990303  
  7390.000000   1993257   1996281   1999305   2002292   2005243  
  7380.000000   2008171   2011079   2013942   2016705   2019320  
  7370.000000   2021762   2024064   2026302   2028583   2030995  
  7360.000000   2033580   2036328   2039186   2042100   2045043  
  7350.000000   2048036   2051130   2054371   2057761   2061240  
  7340.000000   2064691   2067986   2071028   2073790   2076326  
  7330.000000   2078749   2081178   2083703   2086342   2089060  
  7320.000000   2091765   2094373   2096816   2099082   2101196  
  7310.000000   2103217   2105195   2107169   2109136   2111077  
  7300.000000   2112949   2114718   2116364   2117899   2119353  
  7290.000000   2120783   2122236   2123755   2125346   2126990  
  7280.000000   2128640   2130239   2131736   2133102   2134339  
  7270.000000   2135474   2136549   2137602   2138671   2139778  
  7260.000000   2140951   2142211   2143605   2145161   2146911  
  7250.000000   2148837   2150905   2153035   2155167   2157255  
  7240.000000   2159325   2161447   2163746   2166323   2169256  
  7230.000000   2172523   2176053   2179702   2183346   2186873  
  7220.000000   2190257   2193514   2196727   2199980   2203375  
  7210.000000   2206966   2210799   2214865   2219153   2223611  
  7200.000000   2228203   2232870   2237586   2242319   2247081  
  7190.000000   2251874   2256729   2261643   2266627   2271651  
  7180.000000   2276705   2281771   2286875   2292050   2297365  
  7170.000000   2302856   2308559   2314441   2320462   2326536  
  7160.000000   2332618   2338666   2344702   2350755   2356892  
  7150.000000   2363159   2369618   2376301   2383252   2390482  
  7140.000000   2398012   2405803   2413808   2421920   2430049  
  7130.000000   2438087   2445998   2453765   2461466   2469174  
  7120.000000   2477004   2485011   2493244   2501689   2510331  
  7110.000000   2519140   2528117   2537268   2546622   2556184  
  7100.000000   2565953   2575876   2585895   2595913   2605849  
  7090.000000   2615614   2625166   2634475   2643572   2652511  
  7080.000000   2661394   2670326   2679406   2688691   2698191  
  7070.000000   2707867   2717655   2727494   2737346   2747211  
  7060.000000   2757099   2767019   2776946   2786822   2796571  
  7050.000000   2806131   2815489   2824693   2833833   2843009  
  7040.000000   2852275   2861621   2870958   2880171   2889152  
  7030.000000   2897862   2906336   2914682   2923017   2931440  
  7020.000000   2939963   2948544   2957074   2965458   2973621  
  7010.000000   2981562   2989317   2996961   3004552   3012133  
  7000.000000   3019695   3027221   3034661   3041995   3049198  
  6990.000000   3056285   3063262   3070164   3076997   3083788  
  6980.000000   3090523   3097199   3103765   3110179   3116364  
  6970.000000   3122275   3127862   3133131   3138099   3142838  
  6960.000000   3147403   3151872   3156274   3160640   3164943  
  6950.000000   3169165   3173253   3177184   3180926   3184494  
  6940.000000   3187907   3191227   3194505   3197799   3201125  
  6930.000000   3204478   3207806   3211058   3214177   3217148  
  6920.000000   3219983   3222735   3225455   3228190   3230946  
  6910.000000   3233707   3236429   3239083   3241647   3244129  
  6900.000000   3246537   3248877   3251124   3253243   3255190  
  6890.000000   3256953   3258553   3260066   3261588   3263219  
  6880.000000   3265017   3266997   3269116   3271310   3273500  
  6870.000000   3275627   3277645   3279533   3281275   3282868  
  6860.000000   3284313   3285636   3286881   3288110   3289380  
  6850.000000   3290727   3292140   3293573   3294952   3296210  
  6840.000000   3297303   3298237   3299043   3299783   3300507  
  6830.000000   3301260   3302069   3302962   3303966   3305113  
  6820.000000   3306412   3307843   3309330   3310759   3312004  
  6810.000000   3312969   3313619   3314001   3314221   3314415  
  6800.000000   3314691   3315110   3315660   3316289   3316913  
  6790.000000   3317472   3317918   3318242   3318438   3318520  
  6780.000000   3318497   3318394   3318244   3318102   3318015  
  6770.000000   3318017   3318100   3318216   3318283   3318224  
  6760.000000   3317983   3317559   3316992   3316352   3315705  
  6750.000000   3315092   3314516   3313957   3313383   3312778  
  6740.000000   3312135   3311468   3310790   3310111   3309428  
  6730.000000   3308742   3308055   3307383   3306741   3306140  
  6720.000000   3305565   3304983   3304349   3303629   3302819  
  6710.000000   3301950   3301078   3300261   3299532   3298887  
  6700.000000   3298284   3297671   3297004   3296277   3295510  
  6690.000000   3294746   3294012   3293319   3292639   3291932  
  6680.000000   3291154   3290287   3289328   3288298   3287209  
  6670.000000   3286068   3284859   3283577   3282220   3280831  
  6660.000000   3279462   3278188   3277047   3276044   3275121  
  6650.000000   3274194   3273158   3271944   3270518   3268902  
  6640.000000   3267143   3265305   3263427   3261535   3259621  
  6630.000000   3257675   3255683   3253650   3251591   3249538  
  6620.000000   3247520   3245568   3243693   3241898   3240161  
  6610.000000   3238450   3236721   3234934   3233061   3231100  
  6600.000000   3229071   3227020   3224997   3223044   3221180  
  6590.000000   3219402   3217686   3216000   3214314   3212605  
  6580.000000   3210856   3209048   3207167   3205198   3203147  
  6570.000000   3201040   3198934   3196898   3194996   3193263  
  6560.000000   3191691   3190227   3188798   3187336   3185809  
  6550.000000   3184226   3182637   3181103   3179671   3178352  
  6540.000000   3177126   3175941   3174749   3173507   3172201  
  6530.000000   3170828   3169397   3167918   3166406   3164879  
  6520.000000   3163373   3161931   3160599   3159405   3158356  
  6510.000000   3157419   3156548   3155687   3154804   3153890  
  6500.000000   3152960   3152037   3151137   3150253   3149368  
  6490.000000   3148460   3147530   3146604   3145728   3144949  
  6480.000000   3144290   3143728   3143204   3142632   3141936  
  6470.000000   3141077   3140062   3138943   3137794   3136684  
  6460.000000   3135660   3134740   3133911   3133151   3132431  
  6450.000000   3131726   3131012   3130269   3129476   3128622  
  6440.000000   3127705   3126737   3125739   3124734   3123735  
  6430.000000   3122740   3121738   3120715   3119672   3118629  
  6420.000000   3117630   3116723   3115951   3115330   3114843  
  6410.000000   3114449   3114096   3113734   3113336   3112890  
  6400.000000   3112412   3111921   3111442   3110988   3110570  
  6390.000000   3110182   3109818   3109457   3109084   3108683  
  6380.000000   3108250   3107799   3107362   3106983   3106703  
  6370.000000   3106546   3106507   3106551   3106619   3106651  
  6360.000000   3106603   3106458   3106223   3105924   3105583  
  6350.000000   3105217   3104823   3104395   3103924   3103412  
  6340.000000   3102867   3102302   3101720   3101120   3100484  
  6330.000000   3099799   3099054   3098258   3097422   3096571  
  6320.000000   3095711   3094841   3093940   3092993   3091984  
  6310.000000   3090927   3089847   3088785   3087767   3086805  
  6300.000000   3085875   3084938   3083933   3082817   3081557  
  6290.000000   3080153   3078621   3076999   3075322   3073631  
  6280.000000   3071949   3070292   3068651   3067011   3065335  
  6270.000000   3063596   3061763   3059834   3057819   3055756  
  6260.000000   3053680   3051626   3049601   3047600   3045591  
  6250.000000   3043550   3041457   3039313   3037130   3034931  
  6240.000000   3032724   3030510   3028273   3025996   3023672  
  6230.000000   3021313   3018948   3016615   3014346   3012157  
  6220.000000   3010040   3007970   3005908   3003825   3001700  
  6210.000000   2999530   2997324   2995099   2992872   2990659  
  6200.000000   2988468   2986302   2984159   2982029   2979900  
  6190.000000   2977762   2975609   2973449   2971303   2969202  
  6180.000000   2967177   2965250   2963420   2961663   2959938  
  6170.000000   2958194   2956389   2954494   2952510   2950454  
  6160.000000   2948364   2946279   2944236   2942262   2940366  
  6150.000000   2938542   2936770   2935019   2933258   2931459  
  6140.000000   2929612   2927724   2925822   2923940   2922117  
  6130.000000   2920375   2918722   2917144   2915618   2914113  
  6120.000000   2912610   2911093   2909566   2908034   2906513  
  6110.000000   2905014   2903556   2902151   2900817   2899562  
  6100.000000   2898396   2897311   2896295   2895326   2894387  
  6090.000000   2893461   2892550   2891654   2890791   2889969  
  6080.000000   2889204   2888500   2887872   2887325   2886875  
  6070.000000   2886520   2886262   2886076   2885943   2885826  
  6060.000000   2885718   2885610   2885530   2885500   2885561  
  6050.000000   2885718   2885980   2886319   2886728   2887190  
  6040.000000   2887732   2888379   2889185   2890177   2891377  
  6030.000000   2892761   2894299   2895936   2897637   2899367  
  6020.000000   2901123   2902902   2904717   2906561   2908439  
  6010.000000   2910333   2912241   2914148   2916055   2917950  
  6000.000000   2919831   2921683   2923502   2925284   2927048  
  5990.000000   2928812   2930623   2932509   2934512   2936646  
  5980.000000   2938927   2941348   2943912   2946605   2949425  
  5970.000000   2952357   2955397   2958527   2961749   2965055  
  5960.000000   2968461   2971968   2975587   2979298   2983082  
  5950.000000   2986890   2990690   2994445   2998156   3001835  
  5940.000000   3005522   3009251   3013052   3016933   3020885  
  5930.000000   3024888   3028915   3032951   3036977   3040985  
  5920.000000   3044954   3048860   3052667   3056344   3059863  
  5910.000000   3063213   3066392   3069411   3072283   3075025  
  5900.000000   3077654   3080198   3082687   3085167   3087674  
  5890.000000   3090244   3092886   3095593   3098335   3101080  
  5880.000000   3103798   3106472   3109101   3111687   3114238  
  5870.000000   3116749   3119217   3121630   3123995   3126319  
  5860.000000   3128635   3130971   3133365   3135842   3138426  
  5850.000000   3141129   3143970   3146955   3150092   3153368  
  5840.000000   3156756   3160211   3163689   3167148   3170573  
  5830.000000   3173973   3177377   3180817   3184311   3187851  
  5820.000000   3191397   3194902   3198306   3201576   3204683  
  5810.000000   3207634   3210419   3213046   3215489   3217741  
  5800.000000   3219771   3221592   3223202   3224647   3225941  
  5790.000000   3227127   3228193   3229148   3229950   3230582  
  5780.000000   3230995   3231168   3231061   3230665   3229964  
  5770.000000   3228987   3227765   3226374   3224884   3223382  
  5760.000000   3221925   3220561   3219302   3218157   3217116  
  5750.000000   3216186   3215365   3214659   3214060   3213554  
  5740.000000   3213114   3212711   3212327   3211945   3211572  
  5730.000000   3211204   3210850   3210495   3210136   3209759  
  5720.000000   3209372   3208991   3208654   3208396   3208247  
  5710.000000   3208214   3208291   3208449   3208662   3208905  
  5700.000000   3209166   3209441   3209732   3210039   3210360  
  5690.000000   3210696   3211047   3211420   3211818   3212243  
  5680.000000   3212674   3213082   3213414   3213625   3213670  
  5670.000000   3213531   3213205   3212713   3212078   3211328  
  5660.000000   3210479   3209551   3208555   3207514   3206444  
  5650.000000   3205371   3204309   3203272   3202260   3201279  
  5640.000000   3200328   3199413   3198533   3197684   3196851  
  5630.000000   3196011   3195140   3194223   3193263   3192279  
  5620.000000   3191300   3190356   3189465   3188631   3187841  
  5610.000000   3187079   3186328   3185582   3184839   3184099  
  5600.000000   3183352   3182587   3181786   3180942   3180054  
  5590.000000   3179141   3178222   3177315   3176414   3175500  
  5580.000000   3174536   3173491   3172348   3171116   3169820  
  5570.000000   3168494   3167158   3165819   3164460   3163065  
  5560.000000   3161616   3160122   3158602   3157090   3155613  
  5550.000000   3154185   3152801   3151444   3150091   3148727  
  5540.000000   3147348   3145954   3144549   3143132   3141704  
  5530.000000   3140264   3138822   3137396   3136008   3134676  
  5520.000000   3133404   3132183   3130987   3129790   3128573  
  5510.000000   3127333   3126075   3124811   3123542   3122257  
  5500.000000   3120934   3119552   3118095   3116574   3115007  
  5490.000000   3113425   3111847   3110284   3108720   3107144  
  5480.000000   3105534   3103890   3102210   3100505   3098771  
  5470.000000   3097000   3095166   3093250   3091232   3089118  
  5460.000000   3086918   3084656   3082344   3079992   3077596  
  5450.000000   3075157   3072682   3070193   3067722   3065296  
  5440.000000   3062937   3060646   3058415   3056235   3054107  
  5430.000000   3052041   3050063   3048180   3046404   3044715  
  5420.000000   3043106   3041557   3040090   3038722   3037504  
  5410.000000   3036449   3035572   3034830   3034195   3033612  
  5400.000000   3033080   3032601   3032233   3032014   3032002  
  5390.000000   3032198   3032612   3033211   3034000   3034964  
  5380.000000   3036144   3037543   3039193   3041059   3043133  
  5370.000000   3045348   3047701   3050147   3052735   3055460  
  5360.000000   3058401   3061560   3065020   3068779   3072926  
  5350.000000   3077466   3082495   3088000   3094052   3100600  
  5340.000000   3107691   3115259   3123372   3131982   3141173  
  5330.000000   3150886   3161180   3171966   3183290   3195080  
  5320.000000   3207442   3220367   3234025   3248424   3263720  
  5310.000000   3279864   3296944   3314856   3333667   3353293  
  5300.000000   3373839   3395274   3417741   3441228   3465861  
  5290.000000   3491578   3518411   3546196   3574853   3604161  
  5280.000000   3634044   3664378   3695230   3726642   3758777  
  5270.000000   3791690   3825401   3859754   3894510   3929373  
  5260.000000   3964078   3998494   4032584   4066449   4100142  
  5250.000000   4133721   4167043   4199958   4232144   4263440  
  5240.000000   4293634   4322796   4350926   4378254   4404816  
  5230.000000   4430772   4456012   4480535   4504106   4526684  
  5220.000000   4548088   4568410   4587623   4605955   4623451  
  5210.000000   4640321   4656512   4672076   4686810   4700680  
  5200.000000   4713498   4725342   4736185   4746239   4755544  
  5190.000000   4764277   4772375   4779880   4786638   4792661  
  5180.000000   4797845   4802285   4805962   4809013   4811416  
  5170.000000   4813266   4814507   4815217   4815362   4815047  
  5160.000000   4814263   4813104   4811528   4809576   4807179  
  5150.000000   4804373   4801127   4797517   4793552   4789309  
  5140.000000   4784779   4780005   4774961   4769692   4764206  
  5130.000000   4758574   4752822   4747007   4741118   4735161  
  5120.000000   4729099   4722931   4716650   4710295   4703894  
  5110.000000   4697492   4691103   4684740   4678390   4672056  
  5100.000000   4665734   4659446   4653202   4647024   4640900  
  5090.000000   4634822   4628752   4622669   4616535   4610342  
  5080.000000   4604063   4597695   4591211   4584604   4577852  
  5070.000000   4570959   4563914   4556731   4549397   4541917  
  5060.000000   4534264   4526442   4518441   4510297   4502038  
  5050.000000   4493726   4485393   4477075   4468763   4460451  
  5040.000000   4452107   4443725   4435294   4426831   4418346  
  5030.000000   4409854   4401352   4392839   4384305   4375754  
  5020.000000   4367203   4358675   4350203   4341804   4333494  
  5010.000000   4325264   4317117   4309045   4301072   4293213  
  5000.000000   4285516   4277998   4270701   4263614   4256760  
  4990.000000   4250116   4243710   4237532   4231629   4226002  
  4980.000000   4220703   4215727   4211123   4206877   4203039  
  4970.000000   4199588   4196565   4193926   4191684   4189771  
  4960.000000   4188188   4186872   4185854   4185105   4184689  
  4950.000000   4184592   4184874   4185500   4186505   4187841  
  4940.000000   4189544   4191581   4194009   4196808   4200034  
  4930.000000   4203652   4207691   4212094   4216879   4221987  
  4920.000000   4227444   4233204   4239297   4245686   4252402  
  4910.000000   4259417   4266769   4274440   4282465   4290812  
  4900.000000   4299480   4308403   4317545   4326835   4336244  
  4890.000000   4345737   4355315   4364971   4374700   4384480  
  4880.000000   4394269   4404016   4413659   4423153   4432446  
  4870.000000   4441512   4450313   4458836   4467051   4474967  
  4860.000000   4482578   4489921   4497010   4503888   4510552  
  4850.000000   4517020   4523263   4529292   4535095   4540719  
  4840.000000   4546195   4551602   4556974   4562360   4567743  
  4830.000000   4573113   4578408   4583594   4588612   4593449  
  4820.000000   4598082   4602527   4606786   4610889   4614845  
  4810.000000   4618683   4622406   4626031   4629549   4632968  
  4800.000000   4636275   4639486   4642603   4645658   4648666  
  4790.000000   4651658   4654635   4657601   4660535   4663426  
  4780.000000   4666251   4669014   4671707   4674348   4676930  
  4770.000000   4679460   4681914   4684282   4686533   4688664  
  4760.000000   4690653   4692511   4694227   4695813   4697255  
  4750.000000   4698561   4699711   4700713   4701548   4702224  
  4740.000000   4702727   4703068   4703240   4703263   4703139  
  4730.000000   4702895   4702533   4702070   4701495   4700809  
  4720.000000   4699993   4699053   4697991   4696839   4695624  
  4710.000000   4694396   4693181   4692014   4690899   4689843  
  4700.000000   4688831   4687859   4686905   4685961   4685006  
  4690.000000   4684023   4682989   4681881   4680680   4679374  
  4680.000000   4677958   4676436   4674821   4673132   4671395  
  4670.000000   4669636   4667887   4666173   4664526   4662962  
  4660.000000   4661503   4660158   4658945   4657873   4656962  
  4650.000000   4656220   4655663   4655283   4655078   4655023  
  4640.000000   4655104   4655295   4655590   4655974   4656448  
  4630.000000   4656995   4657599   4658225   4658845   4659421  
  4620.000000   4659938   4660384   4660765   4661088   4661360  
  4610.000000   4661576   4661726   4661799   4661789   4661709  
  4600.000000   4661586   4661462   4661376   4661364   4661437  
  4590.000000   4661594   4661808   4662049   4662282   4662479  
  4580.000000   4662619   4662694   4662705   4662661   4662578  
  4570.000000   4662474   4662364   4662262   4662162   4662056  
  4560.000000   4661918   4661724   4661444   4661064   4660572  
  4550.000000   4659973   4659275   4658491   4657637   4656727  
  4540.000000   4655783   4654824   4653879   4652966   4652110  
  4530.000000   4651311   4650588   4649926   4649351   4648860  
  4520.000000   4648509   4648310   4648341   4648604   4649172  
  4510.000000   4650028   4651240   4652791   4654774   4657204  
  4500.000000   4660204   4663816   4668171   4673303   4679318  
  4490.000000   4686220   4694073   4702828   4712480   4722903  
  4480.000000   4734004   4745584   4757497   4769532   4781569  
  4470.000000   4793468   4805192   4816698   4828024   4839189  
  4460.000000   4850251   4861232   4872163   4883041   4893853  
  4450.000000   4904576   4915186   4925673   4936032   4946296  
  4440.000000   4956493   4966682   4976895   4987184   4997553  
  4430.000000   5008024   5018564   5029171   5039788   5050400  
  4420.000000   5060932   5071358   5081586   5091582   5101241  
  4410.000000   5110523   5119320   5127591   5135234   5142223  
  4400.000000   5148491   5154056   5158908   5163129   5166760  
  4390.000000   5169916   5172655   5175083   5177242   5179213  
  4380.000000   5181028   5182760   5184451   5186184   5188015  
  4370.000000   5190024   5192258   5194763   5197549   5200610  
  4360.000000   5203914   5207417   5211065   5214813   5218617  
  4350.000000   5222458   5226318   5230210   5234133   5238115  
  4340.000000   5242150   5246244   5250351   5254411   5258296  
  4330.000000   5261864   5264922   5267305   5268865   5269552  
  4320.000000   5269391   5268529   5267166   5265563   5263941  
  4310.000000   5262504   5261345   5260517   5259980   5259688  
  4300.000000   5259556   5259529   5259541   5259553   5259522  
  4290.000000   5259427   5259255   5259019   5258755   5258523  
  4280.000000   5258386   5258411   5258627   5259050   5259639  
  4270.000000   5260339   5261050   5261670   5262072   5262141  
  4260.000000   5261759   5260846   5259351   5257285   5254709  
  4250.000000   5251746   5248537   5245249   5242012   5238941  
  4240.000000   5236083   5233467   5231066   5228858   5226790  
  4230.000000   5224828   5222919   5221018   5219068   5217011  
  4220.000000   5214803   5212411   5209846   5207138   5204369  
  4210.000000   5201625   5199011   5196600   5194449   5192560  
  4200.000000   5190911   5189434   5188070   5186741   5185422  
  4190.000000   5184082   5182758   5181469   5180297   5179272  
  4180.000000   5178481   5177941   5177730   5177853   5178387  
  4170.000000   5179334   5180762   5182659   5185071   5187952  
  4160.000000   5191330   5195142   5199421   5204120   5209298  
  4150.000000   5214924   5221064   5227678   5234814   5242412  
  4140.000000   5250511   5259057   5268105   5277618   5287658  
  4130.000000   5298187   5309245   5320774   5332794   5345241  
  4120.000000   5358143   5371455   5385216   5399394   5414018  
  4110.000000   5429045   5444481   5460265   5476383   5492766  
  4100.000000   5509390   5526193   5543154   5560234   5577437  
  4090.000000   5594759   5612218   5629824   5647581   5665488  
  4080.000000   5683520   5701667   5719889   5738180   5756486  
  4070.000000   5774787   5792995   5811070   5828898   5846446  
  4060.000000   5863617   5880417   5896768   5912695   5928111  
  4050.000000   5943034   5957362   5971125   5984225   5996710  
  4040.000000   6008480   6019583   6029907   6039508   6048291  
  4030.000000   6056349   6063612   6070169   6075933   6080930  
  4020.000000   6085003   6088168   6090352   6091634   6091969  
  4010.000000   6091536   6090442   6088749   6086249   6083036  
  4000.000000   6079460  
##END= 
