##TITLE= Sample 008 By ssteindl date Dienstag, November 20 2018
##JCAMP-DX= 4.24
##DATA TYPE= INFRARED SPECTRUM
##ORIGIN= Exported PE Spectrum Data File
##OWNER= Sandra Steindl
##DATE= 18/11/20
##TIME= 09:59:55.00
##SPECTROMETER/DATA SYSTEM= PERKIN-ELMER Frontier FT-IR/NIR IR
##INSTRUMENT PARAMETERS=
  APODIZATION=stark
  DETECTOR=INGAAS
##RESOLUTION= 16.000000
##DELTAX= -2.000000
##XUNITS= 1/CM
##YUNITS= A
##XFACTOR= 1.00
##YFACTOR= 0.00000011920928955078
##FIRSTX= 10000.00
##LASTX= 4000.00
##NPOINTS= 3001
##FIRSTY= 0.187271
##MAXY= 0.626972
##MINY= 0.162655
##XYDATA= (X++(Y..Y))
 10000.000000   1570942   1568233   1565041   1560794   1555661  
  9990.000000   1550359   1545678   1542435   1541562   1543793  
  9980.000000   1549089   1556527   1564553   1571440   1575795  
  9970.000000   1576932   1575148   1571382   1566937   1562820  
  9960.000000   1559598   1557160   1555056   1552736   1549876  
  9950.000000   1546588   1543278   1540668   1539397   1540088  
  9940.000000   1543045   1548362   1555750   1564496   1573499  
  9930.000000   1581271   1586366   1587561   1584396   1577199  
  9920.000000   1567174   1556020   1545534   1537190   1531843  
  9910.000000   1529779   1530754   1534353   1539953   1546967  
  9900.000000   1554577   1561901   1567909   1571714   1572839  
  9890.000000   1571332   1567924   1563575   1559297   1555553  
  9880.000000   1552296   1548942   1544833   1539629   1533577  
  9870.000000   1527606   1522929   1520743   1521647   1525578  
  9860.000000   1531729   1538942   1546015   1552021   1556483  
  9850.000000   1559279   1560555   1560473   1559190   1556807  
  9840.000000   1553504   1549569   1545415   1541503   1538201  
  9830.000000   1535764   1534202   1533437   1533186   1533196  
  9820.000000   1533138   1532782   1531923   1530450   1528340  
  9810.000000   1525629   1522487   1519075   1515614   1512177  
  9800.000000   1508768   1505229   1501423   1497287   1492979  
  9790.000000   1488886   1485578   1483678   1483696   1485872  
  9780.000000   1490078   1495798   1502228   1508428   1513575  
  9770.000000   1517110   1518904   1519217   1518627   1517812  
  9760.000000   1517348   1517527   1518308   1519367   1520262  
  9750.000000   1520613   1520201   1519030   1517202   1514894  
  9740.000000   1512214   1509261   1506127   1503015   1500243  
  9730.000000   1498203   1497206   1497328   1498309   1499621  
  9720.000000   1500639   1500889   1500231   1498884   1497318  
  9710.000000   1496018   1495279   1495089   1495180   1495202  
  9700.000000   1494913   1494313   1493630   1493171   1493150  
  9690.000000   1493518   1494000   1494161   1493640   1492242  
  9680.000000   1490039   1487275   1484290   1481411   1478920  
  9670.000000   1477087   1476201   1476567   1478415   1481766  
  9660.000000   1486308   1491386   1496130   1499704   1501560  
  9650.000000   1501635   1500347   1498465   1496816   1496033  
  9640.000000   1496346   1497592   1499297   1500911   1501943  
  9630.000000   1502086   1501194   1499266   1496374   1492662  
  9620.000000   1488343   1483701   1479082   1474829   1471238  
  9610.000000   1468498   1466666   1465720   1465537   1466013  
  9600.000000   1466989   1468331   1469851   1471364   1472694  
  9590.000000   1473715   1474390   1474708   1474681   1474211  
  9580.000000   1473156   1471283   1468448   1464633   1460053  
  9570.000000   1455129   1450370   1446274   1443147   1441110  
  9560.000000   1440099   1439999   1440716   1442187   1444322  
  9550.000000   1446866   1449382   1451257   1451942   1451100  
  9540.000000   1448851   1445716   1442540   1440175   1439246  
  9530.000000   1439939   1442001   1444868   1447911   1450640  
  9520.000000   1452804   1454353   1455316   1455707   1455486  
  9510.000000   1454648   1453296   1451737   1450417   1449825  
  9500.000000   1450299   1451916   1454423   1457330   1460003  
  9490.000000   1461874   1462511   1461737   1459601   1456351  
  9480.000000   1452396   1448223   1444368   1441309   1439365  
  9470.000000   1438593   1438691   1439111   1439179   1438421  
  9460.000000   1436720   1434414   1432165   1430665   1430390  
  9450.000000   1431307   1432953   1434481   1435059   1434085  
  9440.000000   1431463   1427615   1423355   1419664   1417375  
  9430.000000   1417055   1418850   1422585   1427740   1433604  
  9420.000000   1439322   1444060   1447139   1448166   1447123  
  9410.000000   1444320   1440325   1435751   1431128   1426744  
  9400.000000   1422663   1418796   1415057   1411520   1408413  
  9390.000000   1406087   1404773   1404518   1405058   1405956  
  9380.000000   1406725   1407009   1406709   1405973   1405156  
  9370.000000   1404608   1404569   1405036   1405828   1406627  
  9360.000000   1407151   1407187   1406694   1405738   1404490  
  9350.000000   1403133   1401825   1400679   1399748   1399068  
  9340.000000   1398677   1398638   1399063   1400070   1401739  
  9330.000000   1404012   1406654   1409252   1411323   1412423  
  9320.000000   1412330   1411114   1409198   1407227   1405891  
  9310.000000   1405687   1406747   1408846   1411465   1414029  
  9300.000000   1416032   1417250   1417715   1417700   1417512  
  9290.000000   1417387   1417390   1417444   1417382   1417009  
  9280.000000   1416150   1414672   1412525   1409761   1406556  
  9270.000000   1403200   1400055   1397496   1395779   1394967  
  9260.000000   1394859   1395097   1395284   1395178   1394765  
  9250.000000   1394299   1394161   1394698   1396022   1397915  
  9240.000000   1399922   1401461   1402098   1401596   1400025  
  9230.000000   1397613   1394688   1391537   1388373   1385374  
  9220.000000   1382727   1380713   1379636   1379757   1381123  
  9210.000000   1383539   1386555   1389612   1392178   1393885  
  9200.000000   1394610   1394425   1393534   1392130   1390383  
  9190.000000   1388414   1386372   1384453   1382879   1381831  
  9180.000000   1381366   1381388   1381658   1381874   1381783  
  9170.000000   1381265   1380377   1379267   1378109   1376988  
  9160.000000   1375947   1375011   1374295   1374015   1374437  
  9150.000000   1375806   1378190   1381441   1385166   1388864  
  9140.000000   1392091   1394581   1396303   1397356   1397887  
  9130.000000   1397924   1397396   1396158   1394158   1391544  
  9120.000000   1388694   1386162   1384446   1383884   1384450  
  9110.000000   1385893   1387760   1389654   1391287   1392572  
  9100.000000   1393549   1394254   1394642   1394503   1393608  
  9090.000000   1391761   1388983   1385482   1381675   1378046  
  9080.000000   1375048   1373001   1372034   1372149   1373230  
  9070.000000   1375112   1377542   1380228   1382845   1385085  
  9060.000000   1386715   1387639   1387944   1387832   1387549  
  9050.000000   1387262   1387030   1386783   1386400   1385792  
  9040.000000   1384983   1384104   1383324   1382752   1382349  
  9030.000000   1381919   1381167   1379846   1377870   1375415  
  9020.000000   1372877   1370784   1369607   1369636   1370867  
  9010.000000   1373028   1375641   1378159   1380108   1381154  
  9000.000000   1381181   1380243   1378551   1376382   1374036  
  8990.000000   1371782   1369832   1368336   1367380   1366997  
  8980.000000   1367174   1367853   1368919   1370187   1371411  
  8970.000000   1372298   1372604   1372168   1371014   1369331  
  8960.000000   1367466   1365814   1364734   1364446   1365015  
  8950.000000   1366346   1368258   1370530   1372958   1375344  
  8940.000000   1377484   1379176   1380233   1380557   1380192  
  8930.000000   1379374   1378496   1378014   1378295   1379481  
  8920.000000   1381421   1383702   1385775   1387111   1387361  
  8910.000000   1386440   1384535   1382000   1379256   1376680  
  8900.000000   1374582   1373159   1372518   1372675   1373559  
  8890.000000   1375018   1376801   1378638   1380303   1381705  
  8880.000000   1382912   1384119   1385561   1387364   1389465  
  8870.000000   1391578   1393302   1394267   1394304   1393529  
  8860.000000   1392346   1391290   1390837   1391201   1392259  
  8850.000000   1393589   1394644   1394958   1394339   1392928  
  8840.000000   1391158   1389602   1388780   1389014   1390323  
  8830.000000   1392491   1395144   1397911   1400516   1402835  
  8820.000000   1404894   1406786   1408597   1410307   1411783  
  8810.000000   1412786   1413085   1412514   1411104   1409084  
  8800.000000   1406893   1405059   1404054   1404165   1405368  
  8790.000000   1407369   1409657   1411713   1413157   1413908  
  8780.000000   1414185   1414421   1415076   1416429   1418485  
  8770.000000   1420918   1423252   1424964   1425743   1425527  
  8760.000000   1424554   1423224   1421970   1421131   1420882  
  8750.000000   1421272   1422288   1423935   1426254   1429289  
  8740.000000   1432983   1437126   1441335   1445146   1448148  
  8730.000000   1450102   1451058   1451285   1451227   1451278  
  8720.000000   1451686   1452450   1453385   1454247   1454867  
  8710.000000   1455276   1455680   1456417   1457779   1459924  
  8700.000000   1462774   1466047   1469345   1472256   1474494  
  8690.000000   1475920   1476587   1476669   1476431   1476165  
  8680.000000   1476162   1476681   1477912   1479931   1482659  
  8670.000000   1485872   1489224   1492345   1494917   1496782  
  8660.000000   1497980   1498728   1499342   1500106   1501191  
  8650.000000   1502587   1504141   1505631   1506867   1507779  
  8640.000000   1508445   1509058   1509857   1511018   1512593  
  8630.000000   1514465   1516402   1518116   1519391   1520147  
  8620.000000   1520506   1520759   1521289   1522468   1524519  
  8610.000000   1527474   1531123   1535105   1538986   1542399  
  8600.000000   1545132   1547149   1548572   1549574   1550306  
  8590.000000   1550814   1551044   1550889   1550290   1549305  
  8580.000000   1548130   1547086   1546508   1546672   1547660  
  8570.000000   1549389   1551597   1553958   1556159   1557982  
  8560.000000   1559370   1560377   1561164   1561886   1562693  
  8550.000000   1563627   1564661   1565689   1566609   1567365  
  8540.000000   1567990   1568641   1569557   1571017   1573204  
  8530.000000   1576163   1579716   1583513   1587086   1590000  
  8520.000000   1591974   1592957   1593122   1592779   1592269  
  8510.000000   1591823   1591525   1591295   1590995   1590517  
  8500.000000   1589860   1589160   1588618   1588456   1588798  
  8490.000000   1589680   1591021   1592702   1594613   1596671  
  8480.000000   1598818   1600972   1603022   1604799   1606134  
  8470.000000   1606916   1607173   1607076   1606910   1606974  
  8460.000000   1607502   1608561   1610041   1611685   1613189  
  8450.000000   1614294   1614855   1614884   1614532   1614050  
  8440.000000   1613719   1613796   1614475   1615828   1617792  
  8430.000000   1620158   1622628   1624856   1626548   1627542  
  8420.000000   1627885   1627821   1627720   1627961   1628820  
  8410.000000   1630378   1632498   1634895   1637228   1639236  
  8400.000000   1640782   1641910   1642756   1643511   1644303  
  8390.000000   1645189   1646129   1647018   1647732   1648146  
  8380.000000   1648172   1647761   1646902   1645638   1644058  
  8370.000000   1642340   1640713   1639445   1638767   1638827  
  8360.000000   1639640   1641075   1642867   1644693   1646244  
  8350.000000   1647312   1647816   1647825   1647529   1647187  
  8340.000000   1647056   1647314   1648015   1649071   1650275  
  8330.000000   1651358   1652056   1652195   1651737   1650790  
  8320.000000   1649559   1648276   1647118   1646154   1645342  
  8310.000000   1644570   1643733   1642807   1641872   1641110  
  8300.000000   1640715   1640837   1641501   1642604   1643937  
  8290.000000   1645260   1646378   1647179   1647651   1647834  
  8280.000000   1647794   1647577   1647219   1646749   1646224  
  8270.000000   1645741   1645413   1645342   1645542   1645949  
  8260.000000   1646398   1646713   1646739   1646424   1645821  
  8250.000000   1645067   1644311   1643632   1643004   1642295  
  8240.000000   1641337   1640009   1638301   1636349   1634393  
  8230.000000   1632722   1631561   1631027   1631072   1631536  
  8220.000000   1632189   1632810   1633236   1633379   1633215  
  8210.000000   1632759   1632048   1631115   1630012   1628793  
  8200.000000   1627539   1626329   1625230   1624274   1623452  
  8190.000000   1622727   1622057   1621425   1620843   1620352  
  8180.000000   1619978   1619727   1619546   1619353   1619051  
  8170.000000   1618584   1617956   1617248   1616575   1616040  
  8160.000000   1615675   1615424   1615146   1614667   1613842  
  8150.000000   1612603   1610985   1609104   1607106   1605117  
  8140.000000   1603199   1601363   1599585   1597862   1596220  
  8130.000000   1594731   1593466   1592469   1591708   1591086  
  8120.000000   1590454   1589670   1588655   1587413   1586047  
  8110.000000   1584685   1583457   1582413   1581527   1580700  
  8100.000000   1579813   1578782   1577593   1576326   1575120  
  8090.000000   1574138   1573500   1573249   1573321   1573563  
  8080.000000   1573763   1573703   1573212   1572200   1570689  
  8070.000000   1568790   1566696   1564616   1562740   1561189  
  8060.000000   1559996   1559110   1558424   1557819   1557204  
  8050.000000   1556546   1555870   1555239   1554720   1554348  
  8040.000000   1554124   1553998   1553913   1553803   1553639  
  8030.000000   1553402   1553097   1552722   1552267   1551723  
  8020.000000   1551089   1550405   1549747   1549225   1548945  
  8010.000000   1548976   1549309   1549850   1550430   1550850  
  8000.000000   1550932   1550569   1549743   1548535   1547091  
  7990.000000   1545599   1544235   1543146   1542409   1542037  
  7980.000000   1541965   1542068   1542179   1542119   1541739  
  7970.000000   1540946   1539734   1538174   1536402   1534583  
  7960.000000   1532875   1531407   1530265   1529502   1529144  
  7950.000000   1529201   1529651   1530433   1531426   1532451  
  7940.000000   1533297   1533758   1533704   1533092   1532017  
  7930.000000   1530650   1529223   1527940   1526945   1526300  
  7920.000000   1525992   1525976   1526195   1526617   1527219  
  7910.000000   1527975   1528830   1529693   1530443   1530956  
  7900.000000   1531150   1530991   1530530   1529860   1529115  
  7890.000000   1528419   1527876   1527557   1527492   1527686  
  7880.000000   1528098   1528670   1529299   1529875   1530280  
  7870.000000   1530435   1530309   1529934   1529395   1528792  
  7860.000000   1528209   1527675   1527164   1526613   1525961  
  7850.000000   1525192   1524351   1523540   1522874   1522438  
  7840.000000   1522238   1522193   1522162   1521993   1521585  
  7830.000000   1520925   1520098   1519259   1518568   1518148  
  7820.000000   1518030   1518162   1518422   1518667   1518781  
  7810.000000   1518693   1518391   1517896   1517243   1516457  
  7800.000000   1515550   1514528   1513409   1512235   1511074  
  7790.000000   1509998   1509061   1508278   1507615   1507013  
  7780.000000   1506411   1505779   1505137   1504541   1504060  
  7770.000000   1503732   1503537   1503396   1503201   1502858  
  7760.000000   1502334   1501679   1501011   1500472   1500170  
  7750.000000   1500137   1500309   1500558   1500737   1500738  
  7740.000000   1500522   1500116   1499590   1499011   1498411  
  7730.000000   1497785   1497106   1496361   1495568   1494786  
  7720.000000   1494082   1493508   1493060   1492691   1492320  
  7710.000000   1491882   1491355   1490776   1490218   1489753  
  7700.000000   1489414   1489169   1488939   1488623   1488149  
  7690.000000   1487504   1486743   1485963   1485270   1484737  
  7680.000000   1484393   1484217   1484164   1484178   1484209  
  7670.000000   1484203   1484108   1483860   1483415   1482756  
  7660.000000   1481929   1481040   1480237   1479660   1479402  
  7650.000000   1479457   1479736   1480090   1480374   1480491  
  7640.000000   1480434   1480269   1480104   1480043   1480145  
  7630.000000   1480412   1480806   1481274   1481787   1482338  
  7620.000000   1482946   1483615   1484323   1485006   1485577  
  7610.000000   1485955   1486100   1486034   1485846   1485659  
  7600.000000   1485605   1485775   1486211   1486887   1487728  
  7590.000000   1488630   1489487   1490212   1490764   1491137  
  7580.000000   1491372   1491532   1491688   1491902   1492222  
  7570.000000   1492675   1493282   1494048   1494984   1496079  
  7560.000000   1497307   1498601   1499864   1500974   1501826  
  7550.000000   1502360   1502608   1502680   1502762   1503042  
  7540.000000   1503673   1504717   1506145   1507837   1509638  
  7530.000000   1511392   1512998   1514404   1515631   1516720  
  7520.000000   1517743   1518753   1519812   1520958   1522232  
  7510.000000   1523650   1525226   1526944   1528784   1530718  
  7500.000000   1532727   1534800   1536937   1539132   1541368  
  7490.000000   1543604   1545800   1547913   1549934   1551870  
  7480.000000   1553764   1555644   1557526   1559391   1561208  
  7470.000000   1562956   1564661   1566399   1568293   1570457  
  7460.000000   1572957   1575768   1578777   1581810   1584715  
  7450.000000   1587399   1589883   1592265   1594689   1597266  
  7440.000000   1600032   1602929   1605842   1608651   1611292  
  7430.000000   1613780   1616204   1618680   1621295   1624065  
  7420.000000   1626923   1629743   1632390   1634767   1636860  
  7410.000000   1638738   1640534   1642404   1644490   1646879  
  7400.000000   1649582   1652543   1655652   1658776   1661785  
  7390.000000   1664590   1667158   1669513   1671722   1673863  
  7380.000000   1676007   1678189   1680408   1682637   1684848  
  7370.000000   1687035   1689221   1691451   1693768   1696195  
  7360.000000   1698722   1701310   1703908   1706474   1708995  
  7350.000000   1711476   1713939   1716391   1718821   1721196  
  7340.000000   1723485   1725674   1727788   1729888   1732046  
  7330.000000   1734328   1736762   1739337   1741992   1744658  
  7320.000000   1747256   1749736   1752059   1754214   1756192  
  7310.000000   1758001   1759654   1761179   1762610   1763986  
  7300.000000   1765328   1766637   1767881   1769022   1770018  
  7290.000000   1770867   1771596   1772283   1773013   1773873  
  7280.000000   1774910   1776131   1777497   1778936   1780365  
  7270.000000   1781695   1782856   1783796   1784502   1784993  
  7260.000000   1785336   1785626   1785993   1786544   1787366  
  7250.000000   1788476   1789846   1791389   1793025   1794682  
  7240.000000   1796344   1798031   1799803   1801707   1803783  
  7230.000000   1806023   1808420   1810935   1813567   1816292  
  7220.000000   1819114   1821994   1824902   1827770   1830570  
  7210.000000   1833281   1835960   1838680   1841554   1844655  
  7200.000000   1848033   1851666   1855516   1859522   1863664  
  7190.000000   1867934   1872365   1876963   1881725   1886581  
  7180.000000   1891457   1896245   1900901   1905405   1909821  
  7170.000000   1914221   1918716   1923373   1928254   1933359  
  7160.000000   1938685   1944189   1949841   1955590   1961406  
  7150.000000   1967240   1973082   1978919   1984787   1990713  
  7140.000000   1996753   2002919   2009224   2015633   2022134  
  7130.000000   2028705   2035381   2042196   2049213   2056456  
  7120.000000   2063933   2071587   2079364   2087187   2095029  
  7110.000000   2102870   2110735   2118626   2126547   2134466  
  7100.000000   2142371   2150251   2158153   2166134   2174270  
  7090.000000   2182587   2191061   2199599   2208094   2216450  
  7080.000000   2224651   2232755   2240890   2249187   2257735  
  7070.000000   2266525   2275468   2284415   2293231   2301834  
  7060.000000   2310222   2318455   2326622   2334798   2343020  
  7050.000000   2351292   2359589   2367898   2376214   2384547  
  7040.000000   2392894   2401234   2409509   2417657   2425611  
  7030.000000   2433348   2440876   2448246   2455510   2462716  
  7020.000000   2469870   2476964   2483958   2490832   2497560  
  7010.000000   2504155   2510624   2516993   2523269   2529471  
  7000.000000   2535597   2541661   2547652   2553567   2559371  
  6990.000000   2565038   2570522   2575816   2580917   2585871  
  6980.000000   2590713   2595493   2600211   2604859   2609385  
  6970.000000   2613762   2617965   2622024   2625972   2629875  
  6960.000000   2633756   2637629   2641452   2645183   2648754  
  6950.000000   2652126   2655260   2658149   2660786   2663197  
  6940.000000   2665411   2667508   2669571   2671708   2673987  
  6930.000000   2676446   2679046   2681713   2684333   2686820  
  6920.000000   2689118   2691228   2693174   2694990   2696680  
  6910.000000   2698223   2699585   2700749   2701740   2702633  
  6900.000000   2703528   2704528   2705691   2707033   2708516  
  6890.000000   2710099   2711740   2713433   2715173   2716950  
  6880.000000   2718717   2720391   2721877   2723105   2724065  
  6870.000000   2724820   2725483   2726177   2726980   2727907  
  6860.000000   2728909   2729915   2730875   2731801   2732749  
  6850.000000   2733808   2735028   2736402   2737840   2739214  
  6840.000000   2740394   2741310   2741974   2742480   2742959  
  6830.000000   2743535   2744279   2745195   2746226   2747283  
  6820.000000   2748269   2749112   2749763   2750217   2750489  
  6810.000000   2750634   2750712   2750809   2750992   2751311  
  6800.000000   2751771   2752339   2752945   2753520   2754002  
  6790.000000   2754371   2754623   2754778   2754841   2754805  
  6780.000000   2754643   2754336   2753886   2753339   2752766  
  6770.000000   2752253   2751858   2751598   2751430   2751289  
  6760.000000   2751087   2750773   2750322   2749759   2749118  
  6750.000000   2748447   2747772   2747106   2746443   2745775  
  6740.000000   2745084   2744356   2743572   2742717   2741775  
  6730.000000   2740752   2739665   2738554   2737455   2736398  
  6720.000000   2735382   2734386   2733374   2732325   2731240  
  6710.000000   2730155   2729115   2728160   2727294   2726481  
  6700.000000   2725654   2724746   2723712   2722552   2721303  
  6690.000000   2720019   2718741   2717482   2716220   2714928  
  6680.000000   2713583   2712204   2710832   2709527   2708321  
  6670.000000   2707214   2706149   2705044   2703809   2702395  
  6660.000000   2700796   2699057   2697249   2695444   2693690  
  6650.000000   2692006   2690378   2688783   2687188   2685572  
  6640.000000   2683911   2682197   2680417   2678579   2676692  
  6630.000000   2674788   2672898   2671054   2669265   2667521  
  6620.000000   2665788   2664029   2662206   2660308   2658338  
  6610.000000   2656314   2654255   2652170   2650055   2647901  
  6600.000000   2645702   2643460   2641194   2638930   2636692  
  6590.000000   2634499   2632360   2630284   2628280   2626364  
  6580.000000   2624553   2622855   2621264   2619756   2618295  
  6570.000000   2616840   2615367   2613865   2612343   2610812  
  6560.000000   2609280   2607735   2606159   2604525   2602822  
  6550.000000   2601056   2599258   2597477   2595766   2594167  
  6540.000000   2592709   2591398   2590223   2589154   2588150  
  6530.000000   2587151   2586100   2584943   2583653   2582232  
  6520.000000   2580731   2579224   2577803   2576541   2575476  
  6510.000000   2574600   2573863   2573195   2572526   2571809  
  6500.000000   2571024   2570177   2569289   2568381   2567471  
  6490.000000   2566570   2565683   2564819   2563980   2563169  
  6480.000000   2562377   2561592   2560789   2559949   2559054  
  6470.000000   2558097   2557078   2556001   2554875   2553707  
  6460.000000   2552511   2551305   2550105   2548930   2547785  
  6450.000000   2546663   2545549   2544425   2543288   2542157  
  6440.000000   2541071   2540076   2539206   2538462   2537807  
  6430.000000   2537173   2536484   2535682   2534749   2533709  
  6420.000000   2532619   2531548   2530548   2529648   2528852  
  6410.000000   2528143   2527500   2526899   2526314   2525714  
  6400.000000   2525065   2524334   2523505   2522587   2521625  
  6390.000000   2520677   2519805   2519040   2518378   2517773  
  6380.000000   2517164   2516498   2515753   2514944   2514116  
  6370.000000   2513318   2512581   2511909   2511275   2510650  
  6360.000000   2510010   2509353   2508689   2508035   2507390  
  6350.000000   2506739   2506049   2505296   2504472   2503598  
  6340.000000   2502709   2501846   2501026   2500246   2499476  
  6330.000000   2498684   2497842   2496949   2496017   2495071  
  6320.000000   2494124   2493176   2492209   2491205   2490147  
  6310.000000   2489043   2487901   2486741   2485558   2484345  
  6300.000000   2483071   2481721   2480281   2478766   2477191  
  6290.000000   2475574   2473904   2472158   2470293   2468283  
  6280.000000   2466117   2463833   2461478   2459119   2456789  
  6270.000000   2454501   2452226   2449931   2447580   2445175  
  6260.000000   2442733   2440297   2437892   2435530   2433183  
  6250.000000   2430813   2428370   2425824   2423168   2420417  
  6240.000000   2417599   2414742   2411865   2408984   2406107  
  6230.000000   2403250   2400428   2397660   2394952   2392304  
  6220.000000   2389704   2387137   2384586   2382047   2379518  
  6210.000000   2377002   2374498   2371995   2369483   2366953  
  6200.000000   2364405   2361848   2359299   2356766   2354250  
  6190.000000   2351738   2349215   2346672   2344116   2341575  
  6180.000000   2339088   2336688   2334392   2332191   2330055  
  6170.000000   2327945   2325828   2323688   2321530   2319365  
  6160.000000   2317210   2315070   2312945   2310828   2308717  
  6150.000000   2306618   2304542   2302499   2300491   2298505  
  6140.000000   2296522   2294521   2292497   2290460   2288442  
  6130.000000   2286476   2284600   2282825   2281153   2279559  
  6120.000000   2278021   2276506   2275002   2273496   2271994  
  6110.000000   2270506   2269057   2267672   2266389   2265229  
  6100.000000   2264210   2263315   2262515   2261752   2260978  
  6090.000000   2260154   2259278   2258372   2257487   2256669  
  6080.000000   2255957   2255355   2254854   2254420   2254032  
  6070.000000   2253667   2253330   2253019   2252748   2252509  
  6060.000000   2252307   2252129   2251994   2251915   2251935  
  6050.000000   2252081   2252389   2252857   2253481   2254230  
  6040.000000   2255084   2256015   2257022   2258100   2259263  
  6030.000000   2260504   2261828   2263222   2264685   2266208  
  6020.000000   2267796   2269446   2271158   2272918   2274708  
  6010.000000   2276499   2278270   2279997   2281671   2283285  
  6000.000000   2284844   2286355   2287835   2289298   2290771  
  5990.000000   2292270   2293811   2295393   2297006   2298632  
  5980.000000   2300260   2301887   2303532   2305220   2306983  
  5970.000000   2308834   2310770   2312758   2314762   2316743  
  5960.000000   2318689   2320608   2322532   2324495   2326525  
  5950.000000   2328625   2330781   2332963   2335147   2337314  
  5940.000000   2339467   2341614   2343772   2345949   2348150  
  5930.000000   2350370   2352611   2354875   2357169   2359498  
  5920.000000   2361860   2364238   2366613   2368961   2371269  
  5910.000000   2373533   2375763   2377967   2380154   2382316  
  5900.000000   2384446   2386535   2388585   2390618   2392662  
  5890.000000   2394748   2396895   2399102   2401348   2403604  
  5880.000000   2405841   2408039   2410192   2412298   2414354  
  5870.000000   2416344   2418252   2420054   2421753   2423369  
  5860.000000   2424958   2426583   2428319   2430213   2432297  
  5850.000000   2434565   2437001   2439571   2442251   2445015  
  5840.000000   2447852   2450752   2453711   2456730   2459815  
  5830.000000   2462973   2466209   2469517   2472872   2476229  
  5820.000000   2479527   2482704   2485703   2488494   2491057  
  5810.000000   2493403   2495534   2497469   2499201   2500749  
  5800.000000   2502107   2503312   2504374   2505339   2506208  
  5790.000000   2506996   2507668   2508205   2508559   2508713  
  5780.000000   2508636   2508332   2507789   2507016   2506015  
  5770.000000   2504811   2503437   2501955   2500434   2498951  
  5760.000000   2497564   2496314   2495210   2494247   2493409  
  5750.000000   2492685   2492073   2491571   2491181   2490890  
  5740.000000   2490680   2490521   2490396   2490286   2490197  
  5730.000000   2490130   2490106   2490121   2490181   2490267  
  5720.000000   2490377   2490500   2490646   2490825   2491060  
  5710.000000   2491365   2491758   2492248   2492842   2493541  
  5700.000000   2494340   2495225   2496174   2497156   2498138  
  5690.000000   2499098   2500022   2500913   2501780   2502634  
  5680.000000   2503471   2504278   2505030   2505706   2506288  
  5670.000000   2506778   2507176   2507492   2507716   2507834  
  5660.000000   2507815   2507645   2507321   2506878   2506363  
  5650.000000   2505846   2505374   2504979   2504655   2504381  
  5640.000000   2504117   2503838   2503525   2503177   2502799  
  5630.000000   2502398   2501978   2501544   2501104   2500678  
  5620.000000   2500289   2499961   2499705   2499517   2499371  
  5610.000000   2499232   2499061   2498837   2498547   2498196  
  5600.000000   2497791   2497339   2496836   2496278   2495659  
  5590.000000   2494986   2494268   2493523   2492758   2491976  
  5580.000000   2491163   2490305   2489384   2488400   2487356  
  5570.000000   2486272   2485162   2484035   2482886   2481709  
  5560.000000   2480489   2479226   2477925   2476603   2475282  
  5550.000000   2473980   2472715   2471496   2470329   2469216  
  5540.000000   2468155   2467136   2466143   2465155   2464153  
  5530.000000   2463129   2462088   2461049   2460042   2459089  
  5520.000000   2458201   2457372   2456578   2455794   2454994  
  5510.000000   2454166   2453307   2452419   2451501   2450548  
  5500.000000   2449548   2448501   2447407   2446289   2445167  
  5490.000000   2444062   2442971   2441879   2440745   2439539  
  5480.000000   2438228   2436814   2435304   2433728   2432100  
  5470.000000   2430432   2428717   2426949   2425122   2423248  
  5460.000000   2421340   2419415   2417474   2415504   2413474  
  5450.000000   2411360   2409149   2406862   2404543   2402252  
  5440.000000   2400046   2397958   2395997   2394147   2392388  
  5430.000000   2390693   2389051   2387445   2385872   2384311  
  5420.000000   2382760   2381209   2379685   2378213   2376852  
  5410.000000   2375634   2374594   2373717   2372993   2372383  
  5400.000000   2371883   2371486   2371232   2371138   2371241  
  5390.000000   2371528   2371997   2372604   2373347   2374203  
  5380.000000   2375206   2376361   2377708   2379231   2380943  
  5370.000000   2382800   2384809   2386937   2389223   2391658  
  5360.000000   2394305   2397158   2400283   2403671   2407400  
  5350.000000   2411468   2415963   2420875   2426271   2432105  
  5340.000000   2438425   2445169   2452404   2460088   2468308  
  5330.000000   2477021   2486298   2496065   2506376   2517157  
  5320.000000   2528501   2540384   2552952   2566207   2580294  
  5310.000000   2595176   2610948   2627519   2644956   2663174  
  5300.000000   2682268   2702198   2723102   2744967   2767927  
  5290.000000   2791933   2817035   2843086   2870024   2897642  
  5280.000000   2925872   2954596   2983867   3013716   3044278  
  5270.000000   3075587   3107641   3140285   3173287   3206374  
  5260.000000   3239300   3271946   3304264   3336329   3368158  
  5250.000000   3399775   3431021   3461748   3491657   3520621  
  5240.000000   3548458   3575254   3601013   3625957   3650114  
  5230.000000   3673646   3696454   3718564   3739768   3760045  
  5220.000000   3779215   3797347   3814377   3830487   3845686  
  5210.000000   3860164   3873876   3886905   3899089   3910434  
  5200.000000   3920773   3930178   3938596   3946198   3952988  
  5190.000000   3959120   3964537   3969304   3973310   3976609  
  5180.000000   3979128   3980982   3982154   3982767   3982789  
  5170.000000   3982294   3981220   3979631   3977491   3974893  
  5160.000000   3971827   3968380   3964518   3960289   3955644  
  5150.000000   3950635   3945251   3939579   3933636   3927494  
  5140.000000   3921140   3914598   3907832   3900864   3893687  
  5130.000000   3886359   3878908   3871392   3863821   3856221  
  5120.000000   3848577   3840910   3833219   3825542   3817894  
  5110.000000   3810303   3802759   3795252   3787750   3780237  
  5100.000000   3772697   3765141   3757573   3750007   3742437  
  5090.000000   3734859   3727254   3719621   3711957   3704285  
  5080.000000   3696619   3688977   3681350   3673726   3666067  
  5070.000000   3658349   3650541   3642640   3634639   3626556  
  5060.000000   3618392   3610165   3601880   3593556   3585204  
  5050.000000   3576848   3568498   3560165   3551839   3543511  
  5040.000000   3535161   3526780   3518369   3509940   3501514  
  5030.000000   3493108   3484740   3476410   3468125   3459881  
  5020.000000   3451692   3443568   3435540   3427620   3419837  
  5010.000000   3412191   3404695   3397335   3390127   3383062  
  5000.000000   3376172   3369457   3362959   3356677   3350652  
  4990.000000   3344877   3339392   3334186   3329298   3324709  
  4980.000000   3320452   3316499   3312881   3309570   3306614  
  4970.000000   3303995   3301772   3299926   3298504   3297462  
  4960.000000   3296819   3296514   3296561   3296911   3297600  
  4950.000000   3298601   3299968   3301677   3303774   3306220  
  4940.000000   3309045   3312200   3315710   3319526   3323675  
  4930.000000   3328114   3332872   3337909   3343256   3348876  
  4920.000000   3354796   3360980   3367447   3374158   3381131  
  4910.000000   3388338   3395806   3403519   3411502   3419729  
  4900.000000   3428198   3436857   3445681   3454616   3463648  
  4890.000000   3472755   3481942   3491204   3500541   3509928  
  4880.000000   3519333   3528716   3538037   3547269   3556392  
  4870.000000   3565400   3574277   3583018   3591594   3599993  
  4860.000000   3608184   3616169   3623937   3631508   3638884  
  4850.000000   3646094   3653138   3660050   3666831   3673520  
  4840.000000   3680120   3686663   3693131   3699531   3705822  
  4830.000000   3711993   3718001   3723843   3729490   3734947  
  4820.000000   3740188   3745218   3750008   3754571   3758897  
  4810.000000   3763021   3766956   3770746   3774399   3777939  
  4800.000000   3781350   3784639   3787784   3790801   3793686  
  4790.000000   3796468   3799150   3801760   3804288   3806752  
  4780.000000   3809140   3811470   3813737   3815965   3818143  
  4770.000000   3820282   3822354   3824352   3826236   3827998  
  4760.000000   3829602   3831045   3832296   3833359   3834205  
  4750.000000   3834844   3835260   3835475   3835482   3835308  
  4740.000000   3834940   3834398   3833660   3832740   3831624  
  4730.000000   3830337   3828878   3827278   3825536   3823672  
  4720.000000   3821675   3819556   3817310   3814961   3812522  
  4710.000000   3810032   3807511   3804987   3802463   3799948  
  4700.000000   3797429   3794904   3792364   3789813   3787246  
  4690.000000   3784669   3782078   3779473   3776848   3774205  
  4680.000000   3771540   3768853   3766141   3763396   3760609  
  4670.000000   3757765   3754859   3751886   3748863   3745810  
  4660.000000   3742766   3739761   3736839   3734029   3731364  
  4650.000000   3728864   3726553   3724436   3722524   3720804  
  4640.000000   3719265   3717875   3716614   3715448   3714362  
  4630.000000   3713336   3712369   3711449   3710580   3709747  
  4620.000000   3708950   3708172   3707409   3706642   3705866  
  4610.000000   3705066   3704238   3703379   3702501   3701621  
  4600.000000   3700769   3699976   3699270   3698662   3698154  
  4590.000000   3697729   3697361   3697025   3696698   3696368  
  4580.000000   3696028   3695676   3695314   3694938   3694549  
  4570.000000   3694144   3693724   3693288   3692836   3692361  
  4560.000000   3691854   3691299   3690685   3690005   3689265  
  4550.000000   3688477   3687665   3686845   3686036   3685239  
  4540.000000   3684462   3683700   3682969   3682273   3681647  
  4530.000000   3681101   3680673   3680362   3680206   3680195  
  4520.000000   3680379   3680753   3681386   3682276   3683500  
  4510.000000   3685047   3686992   3689320   3692119   3695386  
  4500.000000   3699226   3703645   3708752   3714549   3721126  
  4490.000000   3728467   3736641   3745603   3755383   3765890  
  4480.000000   3777096   3788862   3801122   3813726   3826613  
  4470.000000   3839673   3852883   3866180   3879570   3893019  
  4460.000000   3906538   3920100   3933705   3947325   3960939  
  4450.000000   3974511   3987999   4001366   4014574   4027618  
  4440.000000   4040486   4053217   4065821   4078354   4090811  
  4430.000000   4103230   4115562   4127822   4139926   4151875  
  4420.000000   4163561   4174976   4185990   4196577   4206585  
  4410.000000   4215972   4224577   4232359   4239180   4245030  
  4400.000000   4249825   4253614   4256386   4258253   4259264  
  4390.000000   4259565   4259236   4258421   4257201   4255706  
  4380.000000   4254018   4252261   4250531   4248959   4247659  
  4370.000000   4246753   4246346   4246517   4247324   4248770  
  4360.000000   4250850   4253499   4256659   4260230   4264139  
  4350.000000   4268288   4272628   4277103   4281710   4286452  
  4340.000000   4291360   4296450   4301727   4307139   4312583  
  4330.000000   4317896   4322874   4327310   4331028   4333937  
  4320.000000   4336037   4337452   4338367   4339040   4339688  
  4310.000000   4340515   4341609   4343015   4344667   4346497  
  4300.000000   4348376   4350226   4351939   4353468   4354747  
  4290.000000   4355756   4356462   4356874   4357000   4356889  
  4280.000000   4356585   4356166   4355681   4355199   4354736  
  4270.000000   4354321   4353926   4353534   4353079   4352508  
  4260.000000   4351736   4350704   4349346   4347638   4345577  
  4250.000000   4343213   4340613   4337881   4335115   4332413  
  4240.000000   4329838   4327436   4325207   4323140   4321197  
  4230.000000   4319342   4317531   4315727   4313894   4311998  
  4220.000000   4310011   4307910   4305690   4303357   4300948  
  4210.000000   4298508   4296105   4293795   4291634   4289644  
  4200.000000   4287835   4286174   4284631   4283146   4281689  
  4190.000000   4280212   4278727   4277221   4275755   4274350  
  4180.000000   4273099   4272033   4271253   4270783   4270721  
  4170.000000   4271083   4271963   4273371   4275393   4278016  
  4160.000000   4281302   4285200   4289740   4294843   4300528  
  4150.000000   4306717   4313447   4320660   4328415   4336670  
  4140.000000   4345491   4354836   4364763   4375217   4386235  
  4130.000000   4397742   4409757   4422196   4435076   4448334  
  4120.000000   4462004   4476055   4490537   4505429   4520772  
  4110.000000   4536532   4552723   4569292   4586229   4603468  
  4100.000000   4620987   4638725   4656665   4674769   4693040  
  4090.000000   4711469   4730073   4748851   4767801   4786913  
  4080.000000   4806154   4825505   4844921   4864383   4883839  
  4070.000000   4903267   4922593   4941798   4960798   4979596  
  4060.000000   4998122   5016403   5034364   5052025   5069276  
  4050.000000   5086120   5102432   5118232   5133406   5147995  
  4040.000000   5161872   5175060   5187400   5198908   5209441  
  4030.000000   5219061   5227672   5235362   5242036   5247738  
  4020.000000   5252308   5255779   5258077   5259304   5259425  
  4010.000000   5258658   5257128   5254942   5251918   5248182  
  4000.000000   5244081  
##END= 
