##TITLE= Sample 034 By ssteindl date Dienstag, November 20 2018
##JCAMP-DX= 4.24
##DATA TYPE= INFRARED SPECTRUM
##ORIGIN= Exported PE Spectrum Data File
##OWNER= Sandra Steindl
##DATE= 18/11/20
##TIME= 11:53:39.00
##SPECTROMETER/DATA SYSTEM= PERKIN-ELMER Frontier FT-IR/NIR IR
##INSTRUMENT PARAMETERS=
  APODIZATION=stark
  DETECTOR=INGAAS
##RESOLUTION= 16.000000
##DELTAX= -2.000000
##XUNITS= 1/CM
##YUNITS= A
##XFACTOR= 1.00
##YFACTOR= 0.00000011920928955078
##FIRSTX= 10000.00
##LASTX= 4000.00
##NPOINTS= 3001
##FIRSTY= 0.200319
##MAXY= 0.650491
##MINY= 0.171081
##XYDATA= (X++(Y..Y))
 10000.000000   1680395   1684216   1687425   1689104   1688900  
  9990.000000   1686843   1682938   1677201   1670037   1662270  
  9980.000000   1654819   1648616   1644353   1642520   1643085  
  9970.000000   1645779   1650004   1655162   1660572   1665668  
  9960.000000   1669934   1672919   1674283   1673712   1671087  
  9950.000000   1666337   1659640   1651251   1641680   1631557  
  9940.000000   1621688   1612922   1606016   1601524   1599613  
  9930.000000   1600117   1602496   1606085   1610174   1614241  
  9920.000000   1617992   1621370   1624516   1627568   1630654  
  9910.000000   1633687   1636487   1638696   1639955   1639916  
  9900.000000   1638406   1635473   1631466   1627008   1622866  
  9890.000000   1619793   1618218   1618154   1619039   1620024  
  9880.000000   1620175   1618966   1616410   1613184   1610279  
  9870.000000   1608682   1608900   1610760   1613433   1615681  
  9860.000000   1616335   1614599   1610378   1604155   1596859  
  9850.000000   1589441   1582662   1576914   1572304   1568785  
  9840.000000   1566304   1564876   1564529   1565282   1567042  
  9830.000000   1569671   1572969   1576748   1580814   1584897  
  9820.000000   1588685   1591736   1593668   1594155   1593158  
  9810.000000   1590880   1587807   1584515   1581552   1579270  
  9800.000000   1577803   1577123   1577091   1577604   1578513  
  9790.000000   1579714   1580998   1582165   1583011   1583487  
  9780.000000   1583731   1584065   1584840   1586224   1588042  
  9770.000000   1589718   1590474   1589590   1586763   1582261  
  9760.000000   1576889   1571703   1567614   1565067   1563927  
  9750.000000   1563612   1563426   1562864   1561832   1560598  
  9740.000000   1559606   1559215   1559518   1560343   1561386  
  9730.000000   1562415   1563431   1564646   1566378   1568823  
  9720.000000   1571915   1575299   1578429   1580781   1582010  
  9710.000000   1582045   1581090   1579469   1577554   1575595  
  9700.000000   1573741   1571999   1570314   1568586   1566718  
  9690.000000   1564654   1562416   1560198   1558337   1557348  
  9680.000000   1557718   1559794   1563546   1568544   1574017  
  9670.000000   1579086   1583022   1585440   1586343   1586014  
  9660.000000   1584831   1583089   1580930   1578388   1575514  
  9650.000000   1572489   1569626   1567285   1565661   1564676  
  9640.000000   1563928   1562884   1561094   1558440   1555181  
  9630.000000   1551853   1549010   1546999   1545851   1545328  
  9620.000000   1545142   1545126   1545360   1546078   1547481  
  9610.000000   1549520   1551798   1553674   1554525   1554046  
  9600.000000   1552434   1550347   1548640   1547987   1548559  
  9590.000000   1549955   1551364   1551936   1551152   1548999  
  9580.000000   1545957   1542696   1539801   1537494   1535637  
  9570.000000   1533849   1531803   1529425   1526999   1525071  
  9560.000000   1524221   1524857   1527032   1530490   1534722  
  9550.000000   1539194   1543452   1547196   1550272   1552585  
  9540.000000   1554083   1554716   1554493   1553493   1551879  
  9530.000000   1549865   1547630   1545308   1542919   1540477  
  9520.000000   1537985   1535562   1533381   1531652   1530472  
  9510.000000   1529767   1529242   1528463   1527001   1524571  
  9500.000000   1521193   1517184   1513140   1509730   1507535  
  9490.000000   1506852   1507606   1509392   1511598   1513633  
  9480.000000   1515090   1515860   1516118   1516201   1516465  
  9470.000000   1517081   1518003   1518891   1519343   1518943  
  9460.000000   1517520   1515135   1512097   1508859   1505860  
  9450.000000   1503501   1502035   1501675   1502549   1504782  
  9440.000000   1508368   1513136   1518594   1523998   1528426  
  9430.000000   1531052   1531381   1529392   1525589   1520788  
  9420.000000   1515935   1511742   1508552   1506232   1504326  
  9410.000000   1502273   1499635   1496302   1492476   1488659  
  9400.000000   1485435   1483366   1482807   1483841   1486275  
  9390.000000   1489645   1493377   1496830   1499497   1501032  
  9380.000000   1501371   1500679   1499351   1497873   1496737  
  9370.000000   1496294   1496694   1497883   1499617   1501607  
  9360.000000   1503506   1505074   1506109   1506576   1506520  
  9350.000000   1506092   1505457   1504703   1503808   1502576  
  9340.000000   1500731   1497949   1494014   1488926   1482983  
  9330.000000   1476809   1471181   1466881   1464425   1463987  
  9320.000000   1465361   1468064   1471463   1474894   1477789  
  9310.000000   1479715   1480432   1479856   1478131   1475568  
  9300.000000   1472733   1470274   1468858   1468867   1470304  
  9290.000000   1472722   1475373   1477466   1478416   1478095  
  9280.000000   1476848   1475415   1474596   1474954   1476577  
  9270.000000   1479096   1481880   1484287   1485903   1486631  
  9260.000000   1486649   1486268   1485702   1485004   1484044  
  9250.000000   1482667   1480858   1478815   1476947   1475665  
  9240.000000   1475207   1475493   1476101   1476427   1475881  
  9230.000000   1474209   1471619   1468760   1466480   1465538  
  9220.000000   1466338   1468773   1472237   1475812   1478574  
  9210.000000   1479869   1479511   1477751   1475161   1472429  
  9200.000000   1470160   1468710   1468132   1468217   1468654  
  9190.000000   1469137   1469452   1469514   1469327   1468980  
  9180.000000   1468547   1468103   1467677   1467318   1467082  
  9170.000000   1467041   1467233   1467643   1468173   1468672  
  9160.000000   1468941   1468809   1468153   1466941   1465221  
  9150.000000   1463079   1460618   1457908   1455009   1451972  
  9140.000000   1448874   1445828   1442994   1440547   1438639  
  9130.000000   1437366   1436737   1436687   1437085   1437772  
  9120.000000   1438590   1439398   1440122   1440719   1441237  
  9110.000000   1441721   1442257   1442864   1443526   1444140  
  9100.000000   1444581   1444729   1444541   1444105   1443632  
  9090.000000   1443412   1443711   1444682   1446307   1448365  
  9080.000000   1450476   1452206   1453183   1453194   1452203  
  9070.000000   1450412   1448195   1446047   1444440   1443770  
  9060.000000   1444253   1445854   1448249   1450882   1453102  
  9050.000000   1454297   1454041   1452228   1449126   1445291  
  9040.000000   1441413   1438148   1435983   1435131   1435513  
  9030.000000   1436837   1438704   1440727   1442562   1443985  
  9020.000000   1444890   1445292   1445296   1445054   1444748  
  9010.000000   1444500   1444369   1444287   1444132   1443756  
  9000.000000   1443084   1442155   1441128   1440222   1439628  
  8990.000000   1439434   1439583   1439906   1440193   1440304  
  8980.000000   1440214   1440043   1439969   1440184   1440806  
  8970.000000   1441851   1443250   1444875   1446587   1448209  
  8960.000000   1449524   1450271   1450202   1449157   1447162  
  8950.000000   1444502   1441709   1439425   1438175   1438199  
  8940.000000   1439338   1441090   1442764   1443760   1443777  
  8930.000000   1442909   1441564   1440259   1439424   1439209  
  8920.000000   1439508   1440005   1440405   1440517   1440358  
  8910.000000   1440077   1439868   1439879   1440151   1440678  
  8900.000000   1441452   1442527   1444003   1445949   1448328  
  8890.000000   1450921   1453374   1455271   1456320   1456424  
  8880.000000   1455773   1454699   1453601   1452768   1452335  
  8870.000000   1452286   1452509   1452967   1453702   1454910  
  8860.000000   1456774   1459442   1462894   1466937   1471203  
  8850.000000   1475224   1478526   1480678   1481386   1480503  
  8840.000000   1478114   1474535   1470310   1466137   1462726  
  8830.000000   1460645   1460141   1461080   1462959   1465100  
  8820.000000   1466839   1467745   1467690   1466861   1465644  
  8810.000000   1464463   1463668   1463427   1463792   1464686  
  8800.000000   1466019   1467655   1469459   1471247   1472830  
  8790.000000   1474038   1474810   1475229   1475530   1476018  
  8780.000000   1476970   1478524   1480639   1483118   1485703  
  8770.000000   1488191   1490500   1492686   1494859   1497096  
  8760.000000   1499360   1501491   1503273   1504518   1505153  
  8750.000000   1505252   1505007   1504664   1504445   1504500  
  8740.000000   1504900   1505665   1506779   1508193   1509795  
  8730.000000   1511402   1512772   1513668   1513964   1513716  
  8720.000000   1513204   1512856   1513130   1514334   1516513  
  8710.000000   1519407   1522548   1525418   1527644   1529108  
  8700.000000   1529968   1530561   1531258   1532323   1533836  
  8690.000000   1535692   1537689   1539606   1541308   1542760  
  8680.000000   1544019   1545181   1546330   1547520   1548771  
  8670.000000   1550094   1551501   1553000   1554602   1556286  
  8660.000000   1558013   1559722   1561353   1562868   1564260  
  8650.000000   1565567   1566852   1568202   1569704   1571439  
  8640.000000   1573457   1575766   1578312   1580966   1583544  
  8630.000000   1585832   1587649   1588875   1589490   1589585  
  8620.000000   1589341   1588997   1588801   1588979   1589698  
  8610.000000   1591056   1593040   1595535   1598305   1601054  
  8600.000000   1603468   1605312   1606512   1607175   1607583  
  8590.000000   1608073   1608931   1610259   1611957   1613758  
  8580.000000   1615364   1616579   1617417   1618104   1618986  
  8570.000000   1620379   1622411   1624973   1627741   1630326  
  8560.000000   1632418   1633928   1634998   1635942   1637081  
  8550.000000   1638634   1640618   1642872   1645127   1647118  
  8540.000000   1648689   1649781   1650423   1650653   1650494  
  8530.000000   1649951   1649041   1647890   1646752   1646005  
  8520.000000   1646027   1647111   1649330   1652509   1656219  
  8510.000000   1659918   1663086   1665362   1666624   1666973  
  8500.000000   1666715   1666202   1665772   1665635   1665887  
  8490.000000   1666492   1667338   1668293   1669263   1670235  
  8480.000000   1671266   1672474   1673962   1675790   1677908  
  8470.000000   1680172   1682367   1684278   1685776   1686858  
  8460.000000   1687659   1688404   1689321   1690551   1692081  
  8450.000000   1693751   1695295   1696456   1697065   1697117  
  8440.000000   1696758   1696249   1695859   1695781   1696068  
  8430.000000   1696627   1697274   1697792   1698025   1697915  
  8420.000000   1697536   1697059   1696699   1696657   1697072  
  8410.000000   1698003   1699417   1701218   1703270   1705439  
  8400.000000   1707614   1709712   1711673   1713440   1714959  
  8390.000000   1716157   1716970   1717344   1717286   1716868  
  8380.000000   1716232   1715568   1715055   1714849   1715012  
  8370.000000   1715545   1716352   1717317   1718312   1719242  
  8360.000000   1720037   1720647   1721017   1721103   1720861  
  8350.000000   1720289   1719434   1718426   1717455   1716743  
  8340.000000   1716472   1716723   1717434   1718413   1719378  
  8330.000000   1720021   1720094   1719477   1718224   1716530  
  8320.000000   1714697   1713037   1711820   1711211   1711245  
  8310.000000   1711840   1712827   1714022   1715248   1716391  
  8300.000000   1717384   1718216   1718894   1719428   1719803  
  8290.000000   1719972   1719886   1719493   1718789   1717803  
  8280.000000   1716623   1715368   1714161   1713118   1712295  
  8270.000000   1711720   1711351   1711149   1711060   1711064  
  8260.000000   1711146   1711306   1711522   1711737   1711854  
  8250.000000   1711741   1711274   1710363   1709013   1707312  
  8240.000000   1705440   1703611   1702024   1700811   1699996  
  8230.000000   1699518   1699236   1699022   1698783   1698518  
  8220.000000   1698284   1698182   1698278   1698574   1698966  
  8210.000000   1699269   1699249   1698705   1697535   1695758  
  8200.000000   1693520   1691034   1688528   1686173   1684046  
  8190.000000   1682126   1680319   1678523   1676662   1674742  
  8180.000000   1672830   1671049   1669523   1668349   1667568  
  8170.000000   1667153   1667020   1667043   1667082   1667003  
  8160.000000   1666709   1666145   1665320   1664297   1663188  
  8150.000000   1662120   1661211   1660511   1659988   1659506  
  8140.000000   1658870   1657877   1656391   1654409   1652067  
  8130.000000   1649633   1647418   1645710   1644663   1644286  
  8120.000000   1644422   1644818   1645193   1645310   1645033  
  8110.000000   1644323   1643227   1641821   1640194   1638415  
  8100.000000   1636548   1634656   1632821   1631136   1629699  
  8090.000000   1628584   1627827   1627409   1627262   1627277  
  8080.000000   1627328   1627289   1627049   1626538   1625745  
  8070.000000   1624731   1623634   1622645   1621969   1621754  
  8060.000000   1622038   1622698   1623470   1624006   1623980  
  8050.000000   1623193   1621648   1619553   1617256   1615132  
  8040.000000   1613466   1612384   1611830   1611625   1611542  
  8030.000000   1611402   1611112   1610670   1610123   1609521  
  8020.000000   1608882   1608193   1607438   1606620   1605785  
  8010.000000   1604993   1604291   1603680   1603102   1602476  
  8000.000000   1601733   1600883   1600009   1599262   1598778  
  7990.000000   1598617   1598716   1598882   1598868   1598435  
  7980.000000   1597463   1595968   1594108   1592113   1590213  
  7970.000000   1588574   1587275   1586334   1585736   1585479  
  7960.000000   1585569   1586010   1586756   1587693   1588644  
  7950.000000   1589393   1589768   1589666   1589111   1588215  
  7940.000000   1587165   1586143   1585298   1584711   1584405  
  7930.000000   1584363   1584547   1584911   1585397   1585935  
  7920.000000   1586432   1586793   1586938   1586834   1586502  
  7910.000000   1586023   1585518   1585109   1584895   1584924  
  7900.000000   1585189   1585622   1586122   1586562   1586822  
  7890.000000   1586799   1586440   1585759   1584837   1583826  
  7880.000000   1582910   1582271   1582037   1582260   1582885  
  7870.000000   1583784   1584775   1585680   1586355   1586717  
  7860.000000   1586742   1586451   1585892   1585125   1584217  
  7850.000000   1583242   1582291   1581452   1580812   1580420  
  7840.000000   1580272   1580300   1580383   1580381   1580170  
  7830.000000   1579693   1578978   1578141   1577360   1576822  
  7820.000000   1576667   1576945   1577588   1578437   1579277  
  7810.000000   1579904   1580178   1580052   1579576   1578852  
  7800.000000   1577994   1577070   1576097   1575044   1573882  
  7790.000000   1572623   1571341   1570174   1569262   1568719  
  7780.000000   1568552   1568693   1568987   1569282   1569459  
  7770.000000   1569478   1569365   1569170   1568925   1568601  
  7760.000000   1568118   1567368   1566286   1564876   1563242  
  7750.000000   1561547   1559967   1558632   1557580   1556777  
  7740.000000   1556132   1555567   1555048   1554605   1554303  
  7730.000000   1554207   1554338   1554647   1555031   1555351  
  7720.000000   1555490   1555368   1554974   1554337   1553528  
  7710.000000   1552612   1551657   1550703   1549788   1548934  
  7700.000000   1548160   1547482   1546905   1546441   1546096  
  7690.000000   1545897   1545873   1546062   1546485   1547128  
  7680.000000   1547931   1548779   1549528   1550028   1550173  
  7670.000000   1549912   1549282   1548387   1547383   1546433  
  7660.000000   1545677   1545198   1545006   1545049   1545224  
  7650.000000   1545423   1545548   1545555   1545443   1545259  
  7640.000000   1545068   1544934   1544896   1544956   1545090  
  7630.000000   1545250   1545395   1545481   1545490   1545403  
  7620.000000   1545216   1544918   1544516   1544024   1543483  
  7610.000000   1542953   1542511   1542224   1542149   1542309  
  7600.000000   1542705   1543317   1544116   1545069   1546139  
  7590.000000   1547276   1548430   1549536   1550546   1551424  
  7580.000000   1552174   1552813   1553384   1553912   1554413  
  7570.000000   1554873   1555286   1555658   1556035   1556496  
  7560.000000   1557130   1558002   1559120   1560421   1561791  
  7550.000000   1563098   1564248   1565216   1566062   1566897  
  7540.000000   1567855   1569029   1570463   1572129   1573956  
  7530.000000   1575844   1577702   1579455   1581066   1582516  
  7520.000000   1583820   1585009   1586143   1587284   1588496  
  7510.000000   1589814   1591242   1592742   1594268   1595779  
  7500.000000   1597271   1598778   1600367   1602091   1603971  
  7490.000000   1605962   1607985   1609937   1611758   1613438  
  7480.000000   1615042   1616666   1618410   1620321   1622398  
  7470.000000   1624584   1626818   1629046   1631261   1633472  
  7460.000000   1635703   1637943   1640165   1642322   1644398  
  7450.000000   1646418   1648470   1650667   1653120   1655884  
  7440.000000   1658934   1662179   1665500   1668795   1672012  
  7430.000000   1675140   1678194   1681167   1684016   1686660  
  7420.000000   1689025   1691076   1692862   1694505   1696170  
  7410.000000   1698007   1700091   1702413   1704878   1707372  
  7400.000000   1709794   1712112   1714348   1716563   1718812  
  7390.000000   1721111   1723432   1725716   1727908   1729987  
  7380.000000   1731977   1733943   1735966   1738122   1740460  
  7370.000000   1743003   1745743   1748650   1751670   1754720  
  7360.000000   1757697   1760493   1763020   1765238   1767180  
  7350.000000   1768946   1770691   1772571   1774699   1777116  
  7340.000000   1779780   1782594   1785432   1788192   1790796  
  7330.000000   1793216   1795447   1797516   1799463   1801347  
  7320.000000   1803230   1805178   1807229   1809391   1811613  
  7310.000000   1813812   1815882   1817755   1819406   1820896  
  7300.000000   1822320   1823794   1825383   1827087   1828818  
  7290.000000   1830447   1831837   1832911   1833669   1834196  
  7280.000000   1834621   1835086   1835691   1836480   1837430  
  7270.000000   1838469   1839520   1840517   1841442   1842314  
  7260.000000   1843195   1844159   1845285   1846623   1848199  
  7250.000000   1849990   1851960   1854041   1856182   1858329  
  7240.000000   1860472   1862603   1864753   1866933   1869170  
  7230.000000   1871453   1873786   1876151   1878555   1881003  
  7220.000000   1883523   1886135   1888871   1891739   1894755  
  7210.000000   1897907   1901193   1904581   1908053   1911560  
  7200.000000   1915073   1918556   1922015   1925472   1929005  
  7190.000000   1932690   1936628   1940868   1945435   1950276  
  7180.000000   1955311   1960420   1965511   1970504   1975383  
  7170.000000   1980157   1984896   1989666   1994566   1999654  
  7160.000000   2004981   2010534   2016283   2022146   2028058  
  7150.000000   2033947   2039806   2045658   2051587   2057676  
  7140.000000   2064003   2070568   2077328   2084168   2090993  
  7130.000000   2097714   2104335   2110897   2117511   2124261  
  7120.000000   2131220   2138377   2145696   2153095   2160525  
  7110.000000   2167957   2175423   2182971   2190670   2198559  
  7100.000000   2206663   2214968   2223457   2232085   2240816  
  7090.000000   2249590   2258354   2267036   2275591   2283988  
  7080.000000   2292243   2300396   2308518   2316661   2324864  
  7070.000000   2333124   2341422   2349731   2358039   2366354  
  7060.000000   2374692   2383065   2391458   2399832   2408132  
  7050.000000   2416311   2424351   2432269   2440104   2447901  
  7040.000000   2455679   2463435   2471141   2478774   2486327  
  7030.000000   2493825   2501299   2508784   2516272   2523739  
  7020.000000   2531122   2538386   2545508   2552526   2559485  
  7010.000000   2566446   2573419   2580377   2587240   2593930  
  7000.000000   2600375   2606564   2612513   2618279   2623890  
  6990.000000   2629380   2634736   2639971   2645089   2650149  
  6980.000000   2655205   2660317   2665474   2670625   2675643  
  6970.000000   2680410   2684818   2688850   2692553   2696052  
  6960.000000   2699474   2702936   2706483   2710128   2713825  
  6950.000000   2717541   2721233   2724892   2728497   2732041  
  6940.000000   2735482   2738787   2741907   2744826   2747531  
  6930.000000   2750042   2752374   2754554   2756594   2758525  
  6920.000000   2760376   2762206   2764067   2766017   2768068  
  6910.000000   2770205   2772367   2774486   2776495   2778363  
  6900.000000   2780089   2781709   2783261   2784785   2786298  
  6890.000000   2787809   2789318   2790833   2792363   2793918  
  6880.000000   2795496   2797079   2798633   2800126   2801533  
  6870.000000   2802855   2804108   2805321   2806515   2807695  
  6860.000000   2808850   2809965   2811032   2812063   2813084  
  6850.000000   2814135   2815242   2816418   2817649   2818913  
  6840.000000   2820180   2821435   2822670   2823886   2825078  
  6830.000000   2826235   2827331   2828340   2829241   2830026  
  6820.000000   2830698   2831274   2831764   2832184   2832542  
  6810.000000   2832857   2833144   2833437   2833752   2834111  
  6800.000000   2834501   2834908   2835299   2835654   2835957  
  6790.000000   2836204   2836388   2836490   2836472   2836292  
  6780.000000   2835915   2835348   2834644   2833906   2833250  
  6770.000000   2832778   2832531   2832485   2832556   2832635  
  6760.000000   2832621   2832460   2832147   2831721   2831235  
  6750.000000   2830742   2830271   2829834   2829425   2829040  
  6740.000000   2828671   2828311   2827943   2827548   2827094  
  6730.000000   2826563   2825941   2825238   2824468   2823654  
  6720.000000   2822802   2821915   2820983   2820014   2819022  
  6710.000000   2818046   2817123   2816290   2815545   2814866  
  6700.000000   2814199   2813490   2812691   2811780   2810756  
  6690.000000   2809629   2808411   2807109   2805730   2804294  
  6680.000000   2802836   2801414   2800086   2798909   2797896  
  6670.000000   2797034   2796268   2795533   2794763   2793915  
  6660.000000   2792957   2791878   2790663   2789299   2787775  
  6650.000000   2786099   2784296   2782424   2780544   2778718  
  6640.000000   2776971   2775299   2773656   2771998   2770277  
  6630.000000   2768487   2766645   2764800   2762995   2761264  
  6620.000000   2759608   2758006   2756411   2754774   2753050  
  6610.000000   2751208   2749236   2747145   2744962   2742735  
  6600.000000   2740514   2738350   2736271   2734288   2732385  
  6590.000000   2730536   2728722   2726940   2725206   2723545  
  6580.000000   2721974   2720480   2719021   2717529   2715944  
  6570.000000   2714231   2712403   2710514   2708644   2706863  
  6560.000000   2705212   2703686   2702251   2700856   2699461  
  6550.000000   2698052   2696635   2695227   2693840   2692469  
  6540.000000   2691104   2689726   2688331   2686924   2685525  
  6530.000000   2684149   2682809   2681502   2680229   2678990  
  6520.000000   2677802   2676689   2675670   2674746   2673890  
  6510.000000   2673055   2672187   2671247   2670231   2669162  
  6500.000000   2668083   2667027   2666003   2664989   2663948  
  6490.000000   2662850   2661694   2660517   2659379   2658339  
  6480.000000   2657426   2656628   2655892   2655154   2654355  
  6470.000000   2653473   2652518   2651518   2650506   2649494  
  6460.000000   2648477   2647439   2646369   2645273   2644174  
  6450.000000   2643101   2642070   2641076   2640095   2639095  
  6440.000000   2638051   2636964   2635857   2634767   2633725  
  6430.000000   2632742   2631807   2630888   2629956   2628990  
  6420.000000   2627993   2626979   2625975   2624997   2624060  
  6410.000000   2623163   2622309   2621497   2620736   2620025  
  6400.000000   2619362   2618733   2618126   2617535   2616969  
  6390.000000   2616454   2616025   2615708   2615509   2615400  
  6380.000000   2615332   2615244   2615087   2614840   2614508  
  6370.000000   2614119   2613702   2613272   2612822   2612329  
  6360.000000   2611767   2611126   2610416   2609671   2608932  
  6350.000000   2608234   2607590   2606991   2606402   2605787  
  6340.000000   2605108   2604348   2603511   2602623   2601720  
  6330.000000   2600842   2600014   2599244   2598514   2597792  
  6320.000000   2597028   2596188   2595250   2594225   2593142  
  6310.000000   2592047   2590969   2589928   2588902   2587861  
  6300.000000   2586756   2585561   2584258   2582864   2581396  
  6290.000000   2579877   2578311   2576694   2575007   2573241  
  6280.000000   2571391   2569474   2567501   2565490   2563439  
  6270.000000   2561345   2559193   2556991   2554754   2552523  
  6260.000000   2550335   2548224   2546189   2544211   2542243  
  6250.000000   2540245   2538185   2536058   2533877   2531665  
  6240.000000   2529435   2527189   2524915   2522597   2520224  
  6230.000000   2517802   2515350   2512894   2510456   2508054  
  6220.000000   2505691   2503373   2501099   2498879   2496721  
  6210.000000   2494628   2492593   2490597   2488613   2486610  
  6200.000000   2484570   2482482   2480350   2478181   2475986  
  6190.000000   2473768   2471535   2469294   2467062   2464858  
  6180.000000   2462705   2460615   2458588   2456615   2454672  
  6170.000000   2452740   2450804   2448860   2446912   2444963  
  6160.000000   2443017   2441070   2439119   2437160   2435197  
  6150.000000   2433238   2431294   2429373   2427480   2425612  
  6140.000000   2423770   2421952   2420166   2418417   2416712  
  6130.000000   2415044   2413407   2411789   2410192   2408626  
  6120.000000   2407121   2405704   2404400   2403205   2402095  
  6110.000000   2401021   2399933   2398788   2397577   2396310  
  6100.000000   2395029   2393775   2392594   2391507   2390532  
  6090.000000   2389664   2388898   2388213   2387592   2387006  
  6080.000000   2386431   2385844   2385247   2384651   2384098  
  6070.000000   2383623   2383267   2383035   2382919   2382881  
  6060.000000   2382891   2382916   2382960   2383033   2383167  
  6050.000000   2383376   2383675   2384048   2384490   2384986  
  6040.000000   2385552   2386204   2386980   2387891   2388950  
  6030.000000   2390135   2391426   2392795   2394237   2395755  
  6020.000000   2397367   2399078   2400888   2402762   2404668  
  6010.000000   2406556   2408402   2410186   2411918   2413601  
  6000.000000   2415249   2416861   2418440   2419984   2421509  
  5990.000000   2423035   2424599   2426222   2427927   2429712  
  5980.000000   2431574   2433501   2435494   2437558   2439716  
  5970.000000   2441976   2444351   2446827   2449392   2452022  
  5960.000000   2454709   2457446   2460239   2463086   2465982  
  5950.000000   2468904   2471832   2474739   2477618   2480469  
  5940.000000   2483312   2486163   2489038   2491935   2494843  
  5930.000000   2497745   2500629   2503490   2506334   2509172  
  5920.000000   2512009   2514848   2517678   2520486   2523251  
  5910.000000   2525955   2528573   2531081   2533453   2535674  
  5900.000000   2537741   2539681   2541542   2543391   2545293  
  5890.000000   2547303   2549439   2551691   2554022   2556389  
  5880.000000   2558749   2561073   2563343   2565547   2567680  
  5870.000000   2569729   2571702   2573612   2575505   2577430  
  5860.000000   2579451   2581606   2583913   2586353   2588900  
  5850.000000   2591518   2594199   2596956   2599823   2602835  
  5840.000000   2606010   2609334   2612767   2616246   2619715  
  5830.000000   2623130   2626468   2629726   2632904   2636009  
  5820.000000   2639033   2641977   2644835   2647614   2650305  
  5810.000000   2652908   2655387   2657715   2659834   2661730  
  5800.000000   2663382   2664837   2666128   2667327   2668449  
  5790.000000   2669510   2670459   2671253   2671815   2672115  
  5780.000000   2672119   2671838   2671275   2670457   2669395  
  5770.000000   2668120   2666665   2665090   2663458   2661845  
  5760.000000   2660302   2658874   2657571   2656398   2655349  
  5750.000000   2654428   2653640   2652990   2652473   2652065  
  5740.000000   2651734   2651440   2651161   2650886   2650635  
  5730.000000   2650425   2650285   2650217   2650215   2650250  
  5720.000000   2650298   2650336   2650361   2650378   2650407  
  5710.000000   2650464   2650568   2650735   2650980   2651315  
  5700.000000   2651751   2652282   2652894   2653556   2654228  
  5690.000000   2654882   2655497   2656077   2656635   2657194  
  5680.000000   2657762   2658334   2658883   2659376   2659775  
  5670.000000   2660053   2660188   2660173   2659999   2659667  
  5660.000000   2659178   2658554   2657827   2657051   2656275  
  5650.000000   2655547   2654884   2654282   2653712   2653146  
  5640.000000   2652562   2651962   2651364   2650794   2650266  
  5630.000000   2649780   2649315   2648841   2648335   2647787  
  5620.000000   2647205   2646612   2646026   2645462   2644921  
  5610.000000   2644402   2643897   2643409   2642941   2642495  
  5600.000000   2642060   2641616   2641130   2640575   2639929  
  5590.000000   2639195   2638387   2637529   2636636   2635715  
  5580.000000   2634760   2633761   2632714   2631629   2630521  
  5570.000000   2629414   2628312   2627216   2626104   2624959  
  5560.000000   2623768   2622536   2621278   2620016   2618764  
  5550.000000   2617523   2616281   2615023   2613740   2612439  
  5540.000000   2611141   2609873   2608652   2607484   2606356  
  5530.000000   2605248   2604145   2603040   2601944   2600872  
  5520.000000   2599835   2598836   2597866   2596908   2595943  
  5510.000000   2594965   2593971   2592966   2591951   2590927  
  5500.000000   2589887   2588832   2587759   2586679   2585593  
  5490.000000   2584500   2583377   2582190   2580896   2579468  
  5480.000000   2577896   2576204   2574431   2572632   2570841  
  5470.000000   2569079   2567340   2565612   2563876   2562126  
  5460.000000   2560359   2558578   2556773   2554926   2553015  
  5450.000000   2551025   2548958   2546838   2544705   2542598  
  5440.000000   2540544   2538542   2536582   2534646   2532731  
  5430.000000   2530848   2529023   2527274   2525609   2524009  
  5420.000000   2522456   2520924   2519429   2517996   2516691  
  5410.000000   2515555   2514629   2513895   2513332   2512886  
  5400.000000   2512544   2512287   2512151   2512152   2512326  
  5390.000000   2512662   2513163   2513794   2514566   2515473  
  5380.000000   2516563   2517846   2519356   2521059   2522945  
  5370.000000   2524953   2527085   2529320   2531717   2534294  
  5360.000000   2537130   2540224   2543631   2547323   2551353  
  5350.000000   2555701   2560446   2565574   2571158   2577153  
  5340.000000   2583609   2590467   2597795   2605563   2613872  
  5330.000000   2622695   2632113   2642054   2652563   2663555  
  5320.000000   2675107   2687189   2699947   2713388   2727669  
  5310.000000   2742755   2758743   2775535   2793191   2811621  
  5300.000000   2830925   2851074   2872219   2894361   2917640  
  5290.000000   2942001   2967482   2993917   3021225   3049185  
  5280.000000   3077719   3106704   3136199   3166240   3196980  
  5270.000000   3228470   3260738   3293645   3326980   3360467  
  5260.000000   3393856   3427003   3459844   3492437   3524803  
  5250.000000   3556984   3588851   3620289   3651029   3680954  
  5240.000000   3709882   3737877   3764919   3791189   3816684  
  5230.000000   3841535   3865625   3888970   3911367   3932811  
  5220.000000   3953145   3972460   3990715   4008099   4024626  
  5210.000000   4040482   4055616   4070105   4083789   4096675  
  5200.000000   4108599   4119632   4129710   4138992   4147461  
  5190.000000   4155258   4162315   4168702   4174319   4179235  
  5180.000000   4183392   4186909   4189764   4192064   4193751  
  5170.000000   4194882   4195374   4195286   4194582   4193372  
  5160.000000   4191663   4189566   4187066   4184227   4181004  
  5150.000000   4177446   4173522   4169300   4164768   4159982  
  5140.000000   4154917   4149606   4144023   4138214   4132189  
  5130.000000   4126017   4119716   4113335   4106860   4100304  
  5120.000000   4093645   4086904   4080094   4073266   4066444  
  5110.000000   4059657   4052893   4046139   4039365   4032572  
  5100.000000   4025768   4018998   4012295   4005695   3999190  
  5090.000000   3992759   3986345   3979904   3973390   3966792  
  5080.000000   3960100   3953330   3946476   3939542   3932505  
  5070.000000   3925358   3918079   3910671   3903124   3895451  
  5060.000000   3887647   3879728   3871692   3863569   3855375  
  5050.000000   3847149   3838908   3830678   3822450   3814224  
  5040.000000   3805978   3797713   3789424   3781130   3772843  
  5030.000000   3764576   3756322   3748066   3739781   3731445  
  5020.000000   3723052   3714608   3706147   3697704   3689328  
  5010.000000   3681047   3672897   3664883   3657030   3649337  
  5000.000000   3641833   3634519   3627429   3620560   3613944  
  4990.000000   3607569   3601467   3595625   3590079   3584811  
  4980.000000   3579856   3575192   3570852   3566814   3563120  
  4970.000000   3559757   3556778   3554163   3551953   3550098  
  4960.000000   3548606   3547403   3546487   3545795   3545358  
  4950.000000   3545153   3545250   3545650   3546429   3547579  
  4940.000000   3549149   3551104   3553468   3556186   3559277  
  4930.000000   3562686   3566435   3570482   3574861   3579540  
  4920.000000   3584559   3589889   3595564   3601545   3607856  
  4910.000000   3614453   3621350   3628507   3635939   3643612  
  4900.000000   3651534   3659673   3668033   3676583   3685322  
  4890.000000   3694226   3703281   3712454   3721707   3730988  
  4880.000000   3740238   3749405   3758440   3767314   3776002  
  4870.000000   3784500   3792791   3800873   3808722   3816336  
  4860.000000   3823696   3830816   3837695   3844371   3850851  
  4850.000000   3857177   3863353   3869411   3875350   3881199  
  4840.000000   3886954   3892643   3898256   3903817   3909309  
  4830.000000   3914747   3920110   3925408   3930614   3935723  
  4820.000000   3940698   3945519   3950142   3954555   3958729  
  4810.000000   3962676   3966400   3969936   3973302   3976541  
  4800.000000   3979669   3982720   3985700   3988634   3991512  
  4790.000000   3994346   3997117   3999827   4002457   4005015  
  4780.000000   4007490   4009899   4012235   4014507   4016696  
  4770.000000   4018799   4020792   4022681   4024458   4026150  
  4760.000000   4027763   4029324   4030823   4032260   4033595  
  4750.000000   4034805   4035842   4036692   4037326   4037753  
  4740.000000   4037962   4037974   4037785   4037419   4036873  
  4730.000000   4036176   4035330   4034363   4033279   4032097  
  4720.000000   4030812   4029438   4027966   4026412   4024776  
  4710.000000   4023082   4021345   4019597   4017857   4016155  
  4700.000000   4014503   4012921   4011404   4009947   4008524  
  4690.000000   4007112   4005675   4004182   4002607   4000933  
  4680.000000   3999149   3997251   3995245   3993134   3990936  
  4670.000000   3988666   3986356   3984037   3981754   3979544  
  4660.000000   3977450   3975495   3973702   3972075   3970621  
  4650.000000   3969331   3968212   3967255   3966469   3965844  
  4640.000000   3965385   3965073   3964903   3964850   3964902  
  4630.000000   3965026   3965206   3965405   3965604   3965769  
  4620.000000   3965887   3965940   3965932   3965864   3965751  
  4610.000000   3965603   3965433   3965246   3965047   3964838  
  4600.000000   3964625   3964421   3964238   3964095   3964008  
  4590.000000   3963988   3964038   3964154   3964323   3964525  
  4580.000000   3964736   3964935   3965097   3965208   3965255  
  4570.000000   3965238   3965155   3965012   3964810   3964554  
  4560.000000   3964240   3963867   3963433   3962943   3962401  
  4550.000000   3961819   3961208   3960578   3959932   3959268  
  4540.000000   3958587   3957883   3957168   3956449   3955760  
  4530.000000   3955119   3954572   3954132   3953839   3953686  
  4520.000000   3953707   3953883   3954255   3954806   3955602  
  4510.000000   3956639   3958007   3959717   3961870   3964474  
  4500.000000   3967631   3971346   3975717   3980756   3986566  
  4490.000000   3993162   4000634   4008963   4018174   4028164  
  4480.000000   4038861   4050083   4061705   4073534   4085476  
  4470.000000   4097403   4109294   4121107   4132877   4144609  
  4460.000000   4156353   4168119   4179933   4191782   4203651  
  4450.000000   4215500   4227282   4238957   4250488   4261875  
  4440.000000   4273124   4284280   4295374   4306464   4317557  
  4430.000000   4328690   4339829   4350985   4362097   4373164  
  4420.000000   4384105   4394904   4405455   4415716   4425551  
  4410.000000   4434901   4443618   4451651   4458879   4465287  
  4400.000000   4470810   4475490   4479326   4482408   4484780  
  4390.000000   4486556   4487793   4488608   4489065   4489280  
  4380.000000   4489330   4489342   4489412   4489668   4490209  
  4370.000000   4491139   4492527   4494421   4496836   4499754  
  4360.000000   4503143   4506939   4511078   4515477   4520067  
  4350.000000   4524772   4529537   4534326   4539124   4543947  
  4340.000000   4548819   4553771   4558799   4563861   4568834  
  4330.000000   4573546   4577762   4581264   4583858   4585470  
  4320.000000   4586121   4585983   4585292   4584360   4583445  
  4310.000000   4582780   4582467   4582558   4582988   4583687  
  4300.000000   4584533   4585442   4586314   4587092   4587715  
  4290.000000   4588159   4588408   4588480   4588413   4588274  
  4280.000000   4588130   4588056   4588095   4588282   4588598  
  4270.000000   4589024   4589486   4589915   4590201   4590243  
  4260.000000   4589914   4589116   4587764   4585829   4583328  
  4250.000000   4580352   4577024   4573518   4569990   4566597  
  4240.000000   4563432   4560560   4557972   4555638   4553480  
  4230.000000   4551428   4549400   4547333   4545183   4542921  
  4220.000000   4540549   4538081   4535559   4533031   4530565  
  4210.000000   4528216   4526047   4524085   4522349   4520816  
  4200.000000   4519452   4518193   4516988   4515770   4514516  
  4190.000000   4513193   4511831   4510435   4509076   4507781  
  4180.000000   4506639   4505682   4505003   4504632   4504662  
  4170.000000   4505119   4506090   4507581   4509660   4512294  
  4160.000000   4515520   4519270   4523566   4528335   4533611  
  4150.000000   4539342   4545586   4552302   4559553   4567292  
  4140.000000   4575575   4584348   4593667   4603485   4613857  
  4130.000000   4624732   4636150   4648042   4660423   4673219  
  4120.000000   4686447   4700053   4714081   4728510   4743398  
  4110.000000   4758729   4774540   4790789   4807468   4824502  
  4100.000000   4841856   4859454   4877269   4895257   4913419  
  4090.000000   4931738   4950217   4968834   4987564   5006372  
  4080.000000   5025216   5044078   5062932   5081787   5100617  
  4070.000000   5119425   5138145   5156754   5175155   5193333  
  4060.000000   5211206   5228794   5246029   5262940   5279428  
  4050.000000   5295503   5311037   5326042   5340393   5354121  
  4040.000000   5367101   5379365   5390776   5401376   5411048  
  4030.000000   5419877   5427778   5434844   5440980   5446224  
  4020.000000   5450414   5453580   5455649   5456711   5456714  
  4010.000000   5455850   5454225   5451912   5448698   5444703  
  4000.000000   5440313  
##END= 
