##TITLE= Sample 036 By ssteindl date Dienstag, November 20 2018
##JCAMP-DX= 4.24
##DATA TYPE= INFRARED SPECTRUM
##ORIGIN= Exported PE Spectrum Data File
##OWNER= Sandra Steindl
##DATE= 18/11/20
##TIME= 11:55:59.00
##SPECTROMETER/DATA SYSTEM= PERKIN-ELMER Frontier FT-IR/NIR IR
##INSTRUMENT PARAMETERS=
  APODIZATION=stark
  DETECTOR=INGAAS
##RESOLUTION= 16.000000
##DELTAX= -2.000000
##XUNITS= 1/CM
##YUNITS= A
##XFACTOR= 1.00
##YFACTOR= 0.00000011920928955078
##FIRSTX= 10000.00
##LASTX= 4000.00
##NPOINTS= 3001
##FIRSTY= 0.199028
##MAXY= 0.669943
##MINY= 0.169081
##XYDATA= (X++(Y..Y))
 10000.000000   1669568   1665648   1661816   1658308   1655517  
  9990.000000   1653534   1652123   1650689   1648650   1645489  
  9980.000000   1640900   1634905   1628052   1621447   1616533  
  9970.000000   1614758   1617037   1623381   1632704   1643056  
  9960.000000   1652244   1658399   1660640   1659087   1654791  
  9950.000000   1649084   1643160   1637648   1632670   1628097  
  9940.000000   1623944   1620625   1618885   1619517   1622892  
  9930.000000   1628716   1635937   1643104   1648736   1651829  
  9920.000000   1652073   1649869   1646148   1642035   1638649  
  9910.000000   1636873   1637282   1640029   1644731   1650468  
  9900.000000   1655804   1659190   1659320   1655732   1648987  
  9890.000000   1640672   1632871   1627465   1625471   1626640  
  9880.000000   1629615   1632430   1633240   1631006   1625727  
  9870.000000   1618454   1610718   1604100   1599701   1598005  
  9860.000000   1598920   1601869   1606029   1610300   1613546  
  9850.000000   1614612   1612691   1607509   1599582   1590179  
  9840.000000   1581056   1573974   1570192   1570116   1573300  
  9830.000000   1578693   1585099   1591508   1597307   1602172  
  9820.000000   1605912   1608257   1608904   1607634   1604599  
  9810.000000   1600445   1596275   1593353   1592695   1594748  
  9800.000000   1599218   1605250   1611674   1617397   1621546  
  9790.000000   1623600   1623273   1620502   1615442   1608574  
  9780.000000   1600793   1593359   1587641   1584721   1584959  
  9770.000000   1587819   1591961   1595732   1597715   1597244  
  9760.000000   1594534   1590493   1586252   1582661   1580049  
  9750.000000   1578199   1576714   1575307   1574082   1573459  
  9740.000000   1573899   1575614   1578279   1581191   1583457  
  9730.000000   1584467   1584117   1582848   1581434   1580522  
  9720.000000   1580377   1580657   1580657   1579554   1576848  
  9710.000000   1572500   1567006   1561154   1555786   1551581  
  9700.000000   1548912   1547925   1548536   1550598   1553854  
  9690.000000   1558005   1562648   1567351   1571678   1575295  
  9680.000000   1577997   1579696   1580390   1580051   1578672  
  9670.000000   1576227   1572807   1568632   1564065   1559542  
  9660.000000   1555431   1551959   1549135   1546830   1544841  
  9650.000000   1543048   1541422   1540045   1538992   1538275  
  9640.000000   1537815   1537502   1537313   1537358   1537886  
  9630.000000   1539119   1541120   1543632   1546148   1548035  
  9620.000000   1548811   1548305   1546754   1544676   1542689  
  9610.000000   1541257   1540567   1540500   1540769   1541077  
  9600.000000   1541264   1541339   1541393   1541506   1541634  
  9590.000000   1541657   1541452   1541038   1540623   1540545  
  9580.000000   1541127   1542495   1544479   1546650   1548452  
  9570.000000   1549426   1549344   1548315   1546691   1544957  
  9560.000000   1543512   1542589   1542166   1542069   1542023  
  9550.000000   1541789   1541182   1540098   1538483   1536319  
  9540.000000   1533628   1530466   1526950   1523224   1519451  
  9530.000000   1515772   1512301   1509153   1506445   1504346  
  9520.000000   1503025   1502639   1503241   1504735   1506863  
  9510.000000   1509219   1511353   1512827   1513350   1512780  
  9500.000000   1511205   1508848   1506099   1503369   1501075  
  9490.000000   1499504   1498762   1498743   1499146   1499619  
  9480.000000   1499853   1499746   1499387   1499065   1499071  
  9470.000000   1499598   1500583   1501720   1502576   1502739  
  9460.000000   1502028   1500492   1498413   1496096   1493773  
  9450.000000   1491486   1489149   1486643   1483973   1481340  
  9440.000000   1479137   1477819   1477715   1478908   1481165  
  9430.000000   1484059   1487094   1489881   1492209   1494049  
  9420.000000   1495490   1496638   1497550   1498212   1498564  
  9410.000000   1498555   1498169   1497430   1496377   1495041  
  9400.000000   1493441   1491616   1489598   1487457   1485209  
  9390.000000   1482869   1480394   1477775   1475067   1472424  
  9380.000000   1470117   1468421   1467543   1467429   1467767  
  9370.000000   1467982   1467501   1465938   1463335   1460165  
  9360.000000   1457210   1455317   1455127   1456886   1460397  
  9350.000000   1465113   1470352   1475455   1479924   1483417  
  9340.000000   1485711   1486653   1486171   1484357   1481539  
  9330.000000   1478308   1475413   1473545   1473107   1474083  
  9320.000000   1475996   1478089   1479496   1479584   1478102  
  9310.000000   1475274   1471658   1467955   1464791   1462573  
  9300.000000   1461419   1461193   1461577   1462191   1462709  
  9290.000000   1462922   1462786   1462386   1461900   1461497  
  9280.000000   1461248   1461072   1460768   1460115   1459019  
  9270.000000   1457606   1456231   1455413   1455626   1457093  
  9260.000000   1459600   1462525   1465017   1466277   1465829  
  9250.000000   1463654   1460194   1456162   1452302   1449147  
  9240.000000   1446919   1445556   1444850   1444574   1444555  
  9230.000000   1444694   1444909   1445122   1445212   1445089  
  9220.000000   1444727   1444243   1443863   1443821   1444251  
  9210.000000   1445080   1446069   1446875   1447206   1446909  
  9200.000000   1446027   1444727   1443230   1441674   1440124  
  9190.000000   1438538   1436891   1435187   1433524   1432040  
  9180.000000   1430869   1430089   1429705   1429721   1430178  
  9170.000000   1431192   1432895   1435361   1438522   1442097  
  9160.000000   1445642   1448639   1450661   1451498   1451211  
  9150.000000   1450088   1448556   1447047   1445933   1445425  
  9140.000000   1445572   1446264   1447241   1448121   1448419  
  9130.000000   1447727   1445846   1442935   1439495   1436322  
  9120.000000   1434257   1433925   1435425   1438306   1441672  
  9110.000000   1444527   1446113   1446182   1445050   1443394  
  9100.000000   1441939   1441110   1440897   1440856   1440385  
  9090.000000   1438982   1436544   1433380   1430120   1427452  
  9080.000000   1425873   1425556   1426309   1427739   1429398  
  9070.000000   1430974   1432330   1433505   1434601   1435735  
  9060.000000   1436965   1438294   1439676   1441028   1442257  
  9050.000000   1443197   1443638   1443331   1442078   1439816  
  9040.000000   1436655   1432923   1429091   1425684   1423134  
  9030.000000   1421688   1421357   1421917   1422973   1424057  
  9020.000000   1424752   1424765   1424004   1422592   1420875  
  9010.000000   1419308   1418356   1418354   1419429   1421457  
  9000.000000   1424096   1426916   1429527   1431680   1433298  
  8990.000000   1434438   1435218   1435707   1435895   1435664  
  8980.000000   1434892   1433499   1431536   1429186   1426736  
  8970.000000   1424525   1422851   1421945   1421913   1422752  
  8960.000000   1424339   1426440   1428737   1430855   1432453  
  8950.000000   1433291   1433331   1432736   1431868   1431181  
  8940.000000   1431116   1431963   1433774   1436393   1439483  
  8930.000000   1442645   1445471   1447652   1449020   1449543  
  8920.000000   1449315   1448490   1447289   1445890   1444418  
  8910.000000   1442905   1441332   1439678   1437984   1436446  
  8900.000000   1435390   1435233   1436277   1438634   1442082  
  8890.000000   1446118   1450041   1453188   1455148   1455876  
  8880.000000   1455687   1455085   1454580   1454468   1454774  
  8870.000000   1455256   1455586   1455474   1454820   1453703  
  8860.000000   1452330   1450916   1449589   1448398   1447341  
  8850.000000   1446474   1445938   1445971   1446816   1448604  
  8840.000000   1451272   1454534   1457979   1461161   1463767  
  8830.000000   1465632   1466793   1467379   1467584   1467574  
  8820.000000   1467494   1467492   1467749   1468493   1469930  
  8810.000000   1472175   1475141   1478542   1481902   1484711  
  8800.000000   1486558   1487248   1486875   1485756   1484374  
  8790.000000   1483180   1482507   1482467   1482985   1483862  
  8780.000000   1484876   1485882   1486853   1487899   1489187  
  8770.000000   1490893   1493097   1495748   1498669   1501586  
  8760.000000   1504232   1506399   1508021   1509145   1509938  
  8750.000000   1510587   1511271   1512093   1513094   1514247  
  8740.000000   1515506   1516826   1518163   1519504   1520824  
  8730.000000   1522134   1523455   1524873   1526498   1528457  
  8720.000000   1530812   1533506   1536330   1538945   1540981  
  8710.000000   1542155   1542395   1541871   1540969   1540157  
  8700.000000   1539844   1540237   1541304   1542806   1544429  
  8690.000000   1545908   1547120   1548112   1549038   1550091  
  8680.000000   1551415   1553071   1555057   1557319   1559816  
  8670.000000   1562488   1565276   1568045   1570621   1572792  
  8660.000000   1574407   1575434   1576013   1576424   1577015  
  8650.000000   1578085   1579789   1582105   1584859   1587809  
  8640.000000   1590737   1593501   1596056   1598402   1600540  
  8630.000000   1602434   1604024   1605273   1606218   1607003  
  8620.000000   1607858   1609051   1610789   1613159   1616087  
  8610.000000   1619367   1622716   1625848   1628526   1630595  
  8600.000000   1632000   1632756   1632964   1632791   1632481  
  8590.000000   1632321   1632600   1633542   1635245   1637654  
  8580.000000   1640556   1643654   1646635   1649281   1651493  
  8570.000000   1653320   1654885   1656345   1657814   1659348  
  8560.000000   1660943   1662575   1664225   1665898   1667603  
  8550.000000   1669333   1671016   1672531   1673705   1674393  
  8540.000000   1674522   1674152   1673478   1672784   1672371  
  8530.000000   1672463   1673145   1674333   1675810   1677299  
  8520.000000   1678553   1679445   1680000   1680391   1680882  
  8510.000000   1681734   1683133   1685115   1687569   1690252  
  8500.000000   1692872   1695152   1696916   1698120   1698861  
  8490.000000   1699341   1699814   1700520   1701629   1703193  
  8480.000000   1705145   1707312   1709474   1711410   1712939  
  8470.000000   1713983   1714560   1714807   1714899   1715062  
  8460.000000   1715496   1716365   1717749   1719636   1721922  
  8450.000000   1724397   1726780   1728742   1729991   1730336  
  8440.000000   1729761   1728453   1726794   1725285   1724431  
  8430.000000   1724615   1725983   1728433   1731619   1735086  
  8420.000000   1738350   1741070   1743081   1744430   1745305  
  8410.000000   1745949   1746580   1747306   1748117   1748894  
  8400.000000   1749474   1749706   1749496   1748861   1747904  
  8390.000000   1746832   1745865   1745218   1745019   1745280  
  8380.000000   1745877   1746582   1747123   1747253   1746824  
  8370.000000   1745834   1744435   1742898   1741531   1740604  
  8360.000000   1740286   1740618   1741520   1742824   1744321  
  8350.000000   1745809   1747124   1748139   1748775   1748983  
  8340.000000   1748771   1748186   1747333   1746343   1745376  
  8330.000000   1744584   1744085   1743953   1744181   1744723  
  8320.000000   1745471   1746317   1747132   1747812   1748268  
  8310.000000   1748441   1748304   1747850   1747104   1746109  
  8300.000000   1744930   1743648   1742366   1741192   1740229  
  8290.000000   1739557   1739208   1739160   1739320   1739561  
  8280.000000   1739738   1739744   1739540   1739162   1738710  
  8270.000000   1738301   1738028   1737917   1737917   1737936  
  8260.000000   1737875   1737695   1737423   1737158   1737014  
  8250.000000   1737081   1737361   1737758   1738090   1738141  
  8240.000000   1737736   1736786   1735318   1733460   1731404  
  8230.000000   1729366   1727526   1726027   1724929   1724257  
  8220.000000   1723967   1723995   1724236   1724576   1724877  
  8210.000000   1725007   1724846   1724293   1723295   1721832  
  8200.000000   1719946   1717714   1715268   1712757   1710347  
  8190.000000   1708191   1706392   1705005   1703999   1703302  
  8180.000000   1702789   1702346   1701875   1701328   1700696  
  8170.000000   1699994   1699240   1698420   1697500   1696408  
  8160.000000   1695083   1693483   1691621   1689572   1687463  
  8150.000000   1685457   1683711   1682356   1681448   1680968  
  8140.000000   1680806   1680793   1680726   1680420   1679750  
  8130.000000   1678678   1677263   1675635   1673961   1672389  
  8120.000000   1671022   1669881   1668929   1668082   1667258  
  8110.000000   1666389   1665443   1664415   1663310   1662141  
  8100.000000   1660918   1659668   1658444   1657332   1656439  
  8090.000000   1655862   1655639   1655724   1655969   1656164  
  8080.000000   1656090   1655584   1654596   1653192   1651535  
  8070.000000   1649807   1648159   1646656   1645274   1643937  
  8060.000000   1642570   1641159   1639770   1638538   1637613  
  8050.000000   1637101   1636996   1637177   1637425   1637498  
  8040.000000   1637203   1636462   1635337   1634008   1632712  
  8030.000000   1631669   1631011   1630748   1630771   1630891  
  8020.000000   1630906   1630643   1630010   1628984   1627612  
  8010.000000   1625970   1624142   1622207   1620244   1618343  
  8000.000000   1616615   1615189   1614185   1613692   1613718  
  7990.000000   1614191   1614941   1615757   1616418   1616755  
  7980.000000   1616690   1616231   1615473   1614532   1613530  
  7970.000000   1612530   1611559   1610597   1609621   1608621  
  7960.000000   1607623   1606680   1605862   1605228   1604804  
  7950.000000   1604573   1604481   1604452   1604414   1604315  
  7940.000000   1604146   1603931   1603733   1603626   1603676  
  7930.000000   1603919   1604344   1604889   1605454   1605920  
  7920.000000   1606180   1606163   1605855   1605288   1604539  
  7910.000000   1603690   1602817   1601968   1601169   1600433  
  7900.000000   1599774   1599215   1598785   1598508   1598375  
  7890.000000   1598353   1598374   1598373   1598312   1598190  
  7880.000000   1598062   1597994   1598049   1598232   1598487  
  7870.000000   1598697   1598734   1598498   1597975   1597241  
  7860.000000   1596455   1595806   1595453   1595473   1595843  
  7850.000000   1596457   1597162   1597822   1598348   1598725  
  7840.000000   1598989   1599199   1599400   1599595   1599749  
  7830.000000   1599796   1599673   1599341   1598794   1598071  
  7820.000000   1597228   1596339   1595467   1594674   1593998  
  7810.000000   1593466   1593073   1592787   1592531   1592200  
  7800.000000   1591674   1590854   1589699   1588249   1586635  
  7790.000000   1585044   1583674   1582670   1582083   1581851  
  7780.000000   1581821   1581807   1581649   1581270   1580687  
  7770.000000   1580002   1579351   1578846   1578538   1578393  
  7760.000000   1578322   1578202   1577938   1577477   1576833  
  7750.000000   1576063   1575249   1574475   1573805   1573280  
  7740.000000   1572922   1572731   1572687   1572752   1572864  
  7730.000000   1572950   1572940   1572797   1572521   1572167  
  7720.000000   1571812   1571534   1571373   1571305   1571256  
  7710.000000   1571110   1570764   1570150   1569270   1568179  
  7700.000000   1566977   1565768   1564642   1563657   1562848  
  7690.000000   1562236   1561835   1561661   1561711   1561962  
  7680.000000   1562350   1562789   1563180   1563447   1563559  
  7670.000000   1563532   1563429   1563314   1563238   1563192  
  7660.000000   1563121   1562924   1562509   1561813   1560849  
  7650.000000   1559701   1558515   1557458   1556676   1556261  
  7640.000000   1556228   1556524   1557047   1557674   1558303  
  7630.000000   1558863   1559335   1559729   1560081   1560419  
  7620.000000   1560763   1561114   1561477   1561851   1562261  
  7610.000000   1562730   1563287   1563930   1564631   1565321  
  7600.000000   1565922   1566360   1566607   1566683   1566671  
  7590.000000   1566680   1566826   1567184   1567779   1568572  
  7580.000000   1569489   1570444   1571374   1572255   1573101  
  7570.000000   1573955   1574867   1575866   1576959   1578111  
  7560.000000   1579279   1580396   1581417   1582302   1583049  
  7550.000000   1583672   1584223   1584766   1585385   1586154  
  7540.000000   1587136   1588364   1589839   1591529   1593380  
  7530.000000   1595323   1597297   1599255   1601174   1603048  
  7520.000000   1604894   1606717   1608527   1610297   1612000  
  7510.000000   1613583   1615010   1616259   1617349   1618339  
  7500.000000   1619327   1620437   1621786   1623462   1625501  
  7490.000000   1627879   1630524   1633316   1636124   1638816  
  7480.000000   1641294   1643500   1645432   1647134   1648709  
  7470.000000   1650283   1652007   1654000   1656342   1659032  
  7460.000000   1662004   1665120   1668216   1671136   1673779  
  7450.000000   1676124   1678225   1680196   1682183   1684322  
  7440.000000   1686720   1689419   1692415   1695646   1699017  
  7430.000000   1702409   1705699   1708780   1711586   1714110  
  7420.000000   1716399   1718557   1720710   1722981   1725449  
  7410.000000   1728136   1731005   1733977   1736957   1739863  
  7400.000000   1742640   1745266   1747738   1750064   1752257  
  7390.000000   1754333   1756322   1758273   1760249   1762328  
  7380.000000   1764572   1767025   1769680   1772499   1775417  
  7370.000000   1778363   1781274   1784103   1786828   1789434  
  7360.000000   1791923   1794297   1796575   1798776   1800931  
  7350.000000   1803070   1805221   1807404   1809627   1811900  
  7340.000000   1814230   1816644   1819164   1821816   1824599  
  7330.000000   1827483   1830398   1833255   1835958   1838437  
  7320.000000   1840660   1842643   1844435   1846112   1847746  
  7310.000000   1849405   1851129   1852940   1854830   1856777  
  7300.000000   1858736   1860660   1862487   1864175   1865689  
  7290.000000   1867026   1868202   1869250   1870211   1871121  
  7280.000000   1872013   1872911   1873840   1874828   1875899  
  7270.000000   1877076   1878368   1879768   1881259   1882818  
  7260.000000   1884437   1886110   1887850   1889657   1891524  
  7250.000000   1893407   1895261   1897023   1898676   1900234  
  7240.000000   1901784   1903424   1905273   1907389   1909779  
  7230.000000   1912368   1915057   1917730   1920333   1922861  
  7220.000000   1925394   1928029   1930884   1934013   1937433  
  7210.000000   1941080   1944867   1948678   1952443   1956123  
  7200.000000   1959762   1963429   1967243   1971291   1975646  
  7190.000000   1980300   1985205   1990238   1995282   2000213  
  7180.000000   2004981   2009590   2014134   2018731   2023525  
  7170.000000   2028598   2033993   2039655   2045499   2051393  
  7160.000000   2057247   2062991   2068631   2074196   2079765  
  7150.000000   2085408   2091212   2097228   2103509   2110058  
  7140.000000   2116870   2123887   2131054   2138285   2145530  
  7130.000000   2152745   2159947   2167161   2174456   2181873  
  7120.000000   2189462   2197217   2205127   2213143   2221232  
  7110.000000   2229357   2237509   2245682   2253894   2262150  
  7100.000000   2270467   2278844   2287279   2295746   2304215  
  7090.000000   2312638   2320975   2329194   2337301   2345329  
  7080.000000   2353347   2361425   2369617   2377934   2386344  
  7070.000000   2394778   2403167   2411467   2419688   2427877  
  7060.000000   2436107   2444438   2452892   2461445   2470040  
  7050.000000   2478612   2487115   2495538   2503895   2512220  
  7040.000000   2520524   2528802   2537015   2545125   2553087  
  7030.000000   2560887   2568518   2575992   2583304   2590453  
  7020.000000   2597418   2604208   2610837   2617367   2623860  
  7010.000000   2630394   2636999   2643686   2650402   2657090  
  7000.000000   2663666   2670086   2676304   2682319   2688121  
  6990.000000   2693724   2699121   2704329   2709350   2714212  
  6980.000000   2718926   2723520   2727994   2732362   2736615  
  6970.000000   2740781   2744878   2748961   2753056   2757191  
  6960.000000   2761341   2765470   2769500   2773377   2777049  
  6950.000000   2780512   2783771   2786859   2789790   2792581  
  6940.000000   2795229   2797746   2800143   2802464   2804742  
  6930.000000   2807023   2809321   2811644   2813969   2816280  
  6920.000000   2818549   2820772   2822929   2825014   2827007  
  6910.000000   2828901   2830693   2832413   2834106   2835832  
  6900.000000   2837626   2839491   2841373   2843192   2844856  
  6890.000000   2846311   2847555   2848651   2849692   2850773  
  6880.000000   2851947   2853219   2854545   2855870   2857149  
  6870.000000   2858377   2859578   2860795   2862058   2863370  
  6860.000000   2864705   2866022   2867285   2868483   2869629  
  6850.000000   2870756   2871894   2873065   2874263   2875479  
  6840.000000   2876688   2877878   2879030   2880140   2881190  
  6830.000000   2882171   2883064   2883868   2884581   2885216  
  6820.000000   2885773   2886242   2886598   2886813   2886875  
  6810.000000   2886811   2886682   2886588   2886618   2886837  
  6800.000000   2887242   2887789   2888387   2888962   2889463  
  6790.000000   2889893   2890278   2890650   2891003   2891291  
  6780.000000   2891429   2891331   2890948   2890293   2889443  
  6770.000000   2888515   2887624   2886858   2886246   2885782  
  6760.000000   2885425   2885149   2884926   2884758   2884636  
  6750.000000   2884551   2884464   2884328   2884087   2883700  
  6740.000000   2883146   2882430   2881577   2880622   2879604  
  6730.000000   2878567   2877544   2876574   2875673   2874853  
  6720.000000   2874099   2873390   2872697   2872000   2871288  
  6710.000000   2870567   2869838   2869101   2868337   2867521  
  6700.000000   2866629   2865659   2864633   2863599   2862607  
  6690.000000   2861692   2860844   2860024   2859160   2858193  
  6680.000000   2857088   2855863   2854567   2853274   2852039  
  6670.000000   2850890   2849809   2848755   2847674   2846531  
  6660.000000   2845307   2844011   2842657   2841266   2839846  
  6650.000000   2838403   2836936   2835450   2833949   2832438  
  6640.000000   2830907   2829345   2827728   2826042   2824278  
  6630.000000   2822458   2820607   2818769   2816974   2815245  
  6620.000000   2813584   2811984   2810421   2808872   2807302  
  6610.000000   2805680   2803965   2802128   2800149   2798036  
  6600.000000   2795821   2793566   2791337   2789197   2787179  
  6590.000000   2785291   2783505   2781784   2780079   2778354  
  6580.000000   2776582   2774749   2772854   2770904   2768917  
  6570.000000   2766917   2764934   2762996   2761117   2759297  
  6560.000000   2757520   2755764   2754009   2752248   2750491  
  6550.000000   2748755   2747056   2745391   2743746   2742090  
  6540.000000   2740406   2738688   2736961   2735261   2733635  
  6530.000000   2732105   2730681   2729345   2728080   2726872  
  6520.000000   2725725   2724651   2723659   2722736   2721849  
  6510.000000   2720945   2719982   2718938   2717833   2716712  
  6500.000000   2715629   2714616   2713668   2712739   2711761  
  6490.000000   2710676   2709459   2708130   2706742   2705359  
  6480.000000   2704030   2702776   2701586   2700440   2699318  
  6470.000000   2698218   2697147   2696122   2695143   2694200  
  6460.000000   2693265   2692310   2691319   2690290   2689235  
  6450.000000   2688166   2687084   2685978   2684826   2683614  
  6440.000000   2682342   2681031   2679716   2678429   2677186  
  6430.000000   2675984   2674805   2673626   2672437   2671240  
  6420.000000   2670052   2668889   2667761   2666663   2665594  
  6410.000000   2664558   2663580   2662695   2661946   2661347  
  6400.000000   2660883   2660498   2660116   2659663   2659101  
  6390.000000   2658431   2657696   2656956   2656269   2655663  
  6380.000000   2655139   2654676   2654244   2653820   2653393  
  6370.000000   2652958   2652504   2652010   2651442   2650773  
  6360.000000   2649989   2649110   2648180   2647264   2646420  
  6350.000000   2645690   2645083   2644586   2644162   2643773  
  6340.000000   2643379   2642944   2642435   2641822   2641081  
  6330.000000   2640205   2639202   2638106   2636960   2635817  
  6320.000000   2634711   2633663   2632660   2631682   2630691  
  6310.000000   2629661   2628566   2627398   2626144   2624806  
  6300.000000   2623381   2621885   2620338   2618784   2617257  
  6290.000000   2615792   2614393   2613044   2611690   2610274  
  6280.000000   2608729   2607019   2605124   2603069   2600887  
  6270.000000   2598636   2596361   2594106   2591887   2589713  
  6260.000000   2587566   2585428   2583270   2581076   2578834  
  6250.000000   2576554   2574247   2571940   2569645   2567371  
  6240.000000   2565112   2562858   2560598   2558326   2556046  
  6230.000000   2553762   2551477   2549187   2546879   2544539  
  6220.000000   2542159   2539745   2537318   2534902   2532520  
  6210.000000   2530178   2527868   2525570   2523261   2520934  
  6200.000000   2518596   2516268   2513976   2511737   2509556  
  6190.000000   2507420   2505314   2503223   2501143   2499077  
  6180.000000   2497032   2495008   2493003   2491010   2489027  
  6170.000000   2487064   2485138   2483272   2481478   2479750  
  6160.000000   2478065   2476386   2474681   2472932   2471147  
  6150.000000   2469346   2467557   2465792   2464049   2462309  
  6140.000000   2460555   2458779   2457001   2455245   2453546  
  6130.000000   2451912   2450332   2448770   2447185   2445549  
  6120.000000   2443867   2442173   2440528   2438990   2437607  
  6110.000000   2436390   2435334   2434408   2433585   2432830  
  6100.000000   2432124   2431434   2430742   2430016   2429247  
  6090.000000   2428432   2427601   2426791   2426057   2425432  
  6080.000000   2424939   2424567   2424298   2424102   2423968  
  6070.000000   2423885   2423861   2423888   2423962   2424057  
  6060.000000   2424158   2424245   2424338   2424459   2424664  
  6050.000000   2424989   2425473   2426117   2426921   2427855  
  6040.000000   2428913   2430080   2431368   2432774   2434308  
  6030.000000   2435957   2437715   2439566   2441510   2443541  
  6020.000000   2445669   2447878   2450155   2452456   2454743  
  6010.000000   2456970   2459115   2461169   2463146   2465059  
  6000.000000   2466926   2468749   2470538   2472294   2474039  
  5990.000000   2475799   2477615   2479516   2481525   2483639  
  5980.000000   2485852   2488142   2490510   2492960   2495523  
  5970.000000   2498221   2501081   2504101   2507274   2510567  
  5960.000000   2513952   2517390   2520858   2524323   2527766  
  5950.000000   2531155   2534477   2537719   2540895   2544025  
  5940.000000   2547150   2550302   2553509   2556782   2560117  
  5930.000000   2563507   2566939   2570412   2573918   2577454  
  5920.000000   2580995   2584513   2587967   2591320   2594543  
  5910.000000   2597625   2600565   2603368   2606037   2608575  
  5900.000000   2610987   2613296   2615541   2617783   2620086  
  5890.000000   2622505   2625059   2627735   2630480   2633232  
  5880.000000   2635931   2638540   2641053   2643483   2645857  
  5870.000000   2648193   2650507   2652795   2655066   2657325  
  5860.000000   2659596   2661902   2664270   2666713   2669241  
  5850.000000   2671849   2674543   2677326   2680212   2683212  
  5840.000000   2686335   2689572   2692909   2696323   2699796  
  5830.000000   2703317   2706882   2710488   2714117   2717745  
  5820.000000   2721323   2724806   2728142   2731305   2734272  
  5810.000000   2737044   2739606   2741964   2744089   2745988  
  5800.000000   2747643   2749086   2750328   2751422   2752375  
  5790.000000   2753217   2753917   2754466   2754811   2754937  
  5780.000000   2754802   2754403   2753719   2752761   2751530  
  5770.000000   2750062   2748395   2746600   2744743   2742895  
  5760.000000   2741103   2739404   2737809   2736331   2734981  
  5750.000000   2733783   2732762   2731935   2731304   2730837  
  5740.000000   2730490   2730200   2729923   2729623   2729300  
  5730.000000   2728958   2728624   2728306   2728023   2727769  
  5720.000000   2727553   2727376   2727253   2727189   2727196  
  5710.000000   2727268   2727401   2727586   2727824   2728117  
  5700.000000   2728477   2728908   2729409   2729961   2730538  
  5690.000000   2731117   2731678   2732222   2732752   2733275  
  5680.000000   2733783   2734256   2734651   2734930   2735055  
  5670.000000   2735011   2734795   2734423   2733908   2733269  
  5660.000000   2732512   2731653   2730708   2729711   2728692  
  5650.000000   2727685   2726705   2725756   2724825   2723901  
  5640.000000   2722979   2722075   2721212   2720419   2719713  
  5630.000000   2719091   2718532   2718002   2717471   2716916  
  5620.000000   2716330   2715713   2715073   2714414   2713740  
  5610.000000   2713056   2712375   2711720   2711112   2710568  
  5600.000000   2710082   2709633   2709178   2708676   2708095  
  5590.000000   2707425   2706677   2705874   2705037   2704181  
  5580.000000   2703304   2702400   2701461   2700491   2699496  
  5570.000000   2698490   2697475   2696446   2695387   2694282  
  5560.000000   2693121   2691909   2690662   2689397   2688124  
  5550.000000   2686841   2685533   2684186   2682794   2681371  
  5540.000000   2679946   2678557   2677235   2675992   2674823  
  5530.000000   2673707   2672620   2671542   2670465   2669390  
  5520.000000   2668319   2667256   2666199   2665150   2664109  
  5510.000000   2663083   2662073   2661081   2660093   2659087  
  5500.000000   2658035   2656921   2655737   2654503   2653239  
  5490.000000   2651973   2650707   2649430   2648106   2646704  
  5480.000000   2645199   2643596   2641915   2640195   2638462  
  5470.000000   2636736   2635006   2633260   2631472   2629632  
  5460.000000   2627734   2625781   2623773   2621709   2619581  
  5450.000000   2617391   2615154   2612898   2610666   2608496  
  5440.000000   2606414   2604421   2602506   2600646   2598830  
  5430.000000   2597050   2595317   2593627   2591987   2590377  
  5420.000000   2588800   2587251   2585771   2584406   2583230  
  5410.000000   2582280   2581580   2581089   2580763   2580529  
  5400.000000   2580360   2580233   2580189   2580258   2580497  
  5390.000000   2580918   2581544   2582348   2583341   2584503  
  5380.000000   2585861   2587403   2589148   2591057   2593129  
  5370.000000   2595311   2597624   2600049   2602655   2605451  
  5360.000000   2608516   2611843   2615495   2619449   2623772  
  5350.000000   2628455   2633590   2639167   2645264   2651836  
  5340.000000   2658931   2666481   2674549   2683087   2692182  
  5330.000000   2701788   2711980   2722680   2733946   2745704  
  5320.000000   2758053   2770974   2784627   2799020   2814311  
  5310.000000   2830461   2847560   2865502   2884336   2903957  
  5300.000000   2924449   2945762   2968042   2991287   3015646  
  5290.000000   3041086   3067663   3095228   3123706   3152875  
  5280.000000   3182649   3212908   3243714   3275117   3307283  
  5270.000000   3340265   3374074   3408540   3443398   3478332  
  5260.000000   3513054   3547420   3581383   3615043   3648458  
  5250.000000   3681703   3714654   3747189   3779006   3809962  
  5240.000000   3839844   3868708   3896522   3923483   3949587  
  5230.000000   3974976   3999530   4023269   4045987   4067685  
  5220.000000   4088215   4107693   4126098   4143649   4160373  
  5210.000000   4176466   4191857   4206596   4220479   4233483  
  5200.000000   4245424   4256385   4266333   4275473   4283834  
  5190.000000   4291588   4298676   4305154   4310885   4315903  
  5180.000000   4320115   4323618   4326383   4328524   4329998  
  5170.000000   4330876   4331096   4330733   4329767   4328315  
  5160.000000   4326384   4324073   4321344   4318238   4314687  
  5150.000000   4310734   4306361   4301664   4296670   4291470  
  5140.000000   4286060   4280478   4274682   4268694   4262498  
  5130.000000   4256145   4249654   4243076   4236415   4229691  
  5120.000000   4222890   4216035   4209134   4202233   4195355  
  5110.000000   4188532   4181752   4175003   4168252   4161489  
  5100.000000   4154709   4147943   4141214   4134554   4127958  
  5090.000000   4121418   4114895   4108366   4101802   4095201  
  5080.000000   4088555   4081865   4075107   4068259   4061274  
  5070.000000   4054130   4046798   4039284   4031590   4023744  
  5060.000000   4015752   4007640   3999413   3991102   3982729  
  5050.000000   3974339   3965958   3957623   3949331   3941085  
  5040.000000   3932858   3924639   3916408   3908169   3899923  
  5030.000000   3891677   3883431   3875181   3866921   3858649  
  5020.000000   3850374   3842113   3833893   3825731   3817649  
  5010.000000   3809642   3801719   3793868   3786109   3778447  
  5000.000000   3770927   3763563   3756401   3749439   3742711  
  4990.000000   3736205   3729956   3723959   3718266   3712875  
  4980.000000   3707837   3703135   3698804   3694811   3691188  
  4970.000000   3687905   3685003   3682457   3680306   3678507  
  4960.000000   3677084   3675977   3675204   3674712   3674534  
  4950.000000   3674634   3675056   3675772   3676825   3678183  
  4940.000000   3679893   3681927   3684336   3687092   3690241  
  4930.000000   3693744   3697628   3701847   3706425   3711323  
  4920.000000   3716575   3722154   3728096   3734367   3740988  
  4910.000000   3747914   3755156   3762671   3770467   3778507  
  4900.000000   3786792   3795278   3803955   3812779   3821735  
  4890.000000   3830794   3839945   3849166   3858435   3867719  
  4880.000000   3876974   3886161   3895230   3904151   3912881  
  4870.000000   3921401   3929664   3937648   3945305   3952627  
  4860.000000   3959591   3966231   3972561   3978647   3984510  
  4850.000000   3990203   3995719   4001078   4006250   4011248  
  4840.000000   4016054   4020703   4025200   4029598   4033909  
  4830.000000   4038173   4042383   4046549   4050636   4054626  
  4820.000000   4058468   4062142   4065611   4068879   4071945  
  4810.000000   4074842   4077590   4080229   4082777   4085261  
  4800.000000   4087686   4090074   4092429   4094771   4097100  
  4790.000000   4099425   4101730   4104007   4106233   4108403  
  4780.000000   4110509   4112568   4114585   4116579   4118546  
  4770.000000   4120486   4122374   4124200   4125940   4127591  
  4760.000000   4129136   4130578   4131893   4133077   4134103  
  4750.000000   4134972   4135678   4136247   4136694   4137059  
  4740.000000   4137349   4137584   4137745   4137828   4137802  
  4730.000000   4137663   4137389   4136985   4136440   4135761  
  4720.000000   4134944   4134003   4132946   4131804   4130602  
  4710.000000   4129376   4128146   4126937   4125751   4124598  
  4700.000000   4123470   4122374   4121303   4120254   4119209  
  4690.000000   4118148   4117042   4115866   4114604   4113248  
  4680.000000   4111806   4110290   4108716   4107093   4105434  
  4670.000000   4103742   4102040   4100350   4098712   4097160  
  4660.000000   4095736   4094455   4093332   4092358   4091533  
  4650.000000   4090849   4090319   4089949   4089759   4089746  
  4640.000000   4089910   4090224   4090666   4091202   4091814  
  4630.000000   4092478   4093185   4093914   4094646   4095348  
  4620.000000   4095995   4096558   4097024   4097391   4097669  
  4610.000000   4097875   4098024   4098128   4098192   4098224  
  4600.000000   4098226   4098210   4098188   4098180   4098200  
  4590.000000   4098264   4098375   4098535   4098732   4098951  
  4580.000000   4099167   4099355   4099489   4099550   4099526  
  4570.000000   4099423   4099251   4099034   4098790   4098536  
  4560.000000   4098280   4098021   4097755   4097481   4097198  
  4550.000000   4096912   4096627   4096346   4096068   4095786  
  4540.000000   4095498   4095201   4094914   4094646   4094430  
  4530.000000   4094276   4094212   4094226   4094342   4094535  
  4520.000000   4094842   4095250   4095819   4096553   4097534  
  4510.000000   4098775   4100379   4102367   4104857   4107875  
  4500.000000   4111534   4115845   4120898   4126680   4133262  
  4490.000000   4140626   4148839   4157875   4167772   4178448  
  4480.000000   4189862   4201849   4214293   4226995   4239838  
  4470.000000   4252674   4265460   4278139   4290741   4303274  
  4460.000000   4315791   4328313   4340865   4353438   4366006  
  4450.000000   4378524   4390926   4403163   4415181   4426976  
  4440.000000   4438547   4449949   4461214   4472413   4483550  
  4430.000000   4494658   4505684   4516618   4527375   4537942  
  4420.000000   4548235   4558258   4567933   4577266   4586165  
  4410.000000   4594614   4602500   4609789   4616369   4622220  
  4400.000000   4627273   4631561   4635084   4637935   4640171  
  4390.000000   4641917   4643250   4644289   4645106   4645800  
  4380.000000   4646438   4647114   4647902   4648898   4650181  
  4370.000000   4651829   4653897   4656414   4659389   4662797  
  4360.000000   4666603   4670751   4675188   4679850   4684686  
  4350.000000   4689644   4694682   4699776   4704907   4710080  
  4340.000000   4715288   4720531   4725761   4730901   4735801  
  4330.000000   4740286   4744136   4747173   4749254   4750360  
  4320.000000   4750559   4750049   4749069   4747910   4746794  
  4310.000000   4745914   4745340   4745106   4745152   4745430  
  4300.000000   4745854   4746377   4746942   4747519   4748067  
  4290.000000   4748566   4748994   4749355   4749665   4749966  
  4280.000000   4750299   4750716   4751231   4751861   4752563  
  4270.000000   4753299   4753974   4754506   4754773   4754674  
  4260.000000   4754095   4752963   4751227   4748903   4746044  
  4250.000000   4742772   4739219   4735550   4731895   4728378  
  4240.000000   4725060   4721989   4719156   4716551   4714124  
  4230.000000   4711833   4709615   4707408   4705151   4702790  
  4220.000000   4700298   4697662   4694920   4692114   4689326  
  4210.000000   4686620   4684072   4681716   4679584   4677664  
  4200.000000   4675952   4674408   4673016   4671733   4670553  
  4190.000000   4669439   4668406   4667432   4666565   4665806  
  4180.000000   4665234   4664873   4664818   4665096   4665801  
  4170.000000   4666948   4668616   4670796   4673545   4676820  
  4160.000000   4680649   4684960   4689768   4694999   4700687  
  4150.000000   4706785   4713361   4720387   4727938   4735978  
  4140.000000   4744564   4753638   4763240   4773306   4783872  
  4130.000000   4794883   4806378   4818308   4830718   4843565  
  4120.000000   4856893   4870662   4884906   4899579   4914696  
  4110.000000   4930204   4946110   4962363   4978971   4995891  
  4100.000000   5013123   5030625   5048383   5066352   5084513  
  4090.000000   5102829   5121281   5139844   5158495   5177219  
  4080.000000   5195986   5214793   5233613   5252454   5271275  
  4070.000000   5290071   5308767   5327334   5345667   5363743  
  4060.000000   5381460   5398822   5415738   5432227   5448195  
  4050.000000   5463666   5478546   5492880   5506579   5519699  
  4040.000000   5532132   5543912   5554902   5565135   5574489  
  4030.000000   5583040   5590705   5597576   5603566   5608720  
  4020.000000   5612891   5616114   5618321   5619597   5619886  
  4010.000000   5619361   5618112   5616201   5613433   5609927  
  4000.000000   5606051  
##END= 
