##TITLE= Sample 005 By ssteindl date Dienstag, November 20 2018
##JCAMP-DX= 4.24
##DATA TYPE= INFRARED SPECTRUM
##ORIGIN= Exported PE Spectrum Data File
##OWNER= Sandra Steindl
##DATE= 18/11/20
##TIME= 13:22:07.00
##SPECTROMETER/DATA SYSTEM= PERKIN-ELMER Frontier FT-IR/NIR IR
##INSTRUMENT PARAMETERS=
  APODIZATION=stark
  DETECTOR=INGAAS
##RESOLUTION= 16.000000
##DELTAX= -2.000000
##XUNITS= 1/CM
##YUNITS= A
##XFACTOR= 1.00
##YFACTOR= 0.00000011920928955078
##FIRSTX= 10000.00
##LASTX= 4000.00
##NPOINTS= 3001
##FIRSTY= 0.188005
##MAXY= 0.632212
##MINY= 0.159463
##XYDATA= (X++(Y..Y))
 10000.000000   1577098   1569951   1563167   1557489   1553687  
  9990.000000   1552173   1552946   1555613   1559602   1564216  
  9980.000000   1568781   1572646   1575348   1576596   1576379  
  9970.000000   1574889   1572537   1569796   1567126   1564813  
  9960.000000   1562979   1561529   1560280   1559005   1557515  
  9950.000000   1555676   1553363   1550484   1546952   1542828  
  9940.000000   1538362   1534087   1530716   1528984   1529370  
  9930.000000   1531893   1536024   1540777   1545027   1547765  
  9920.000000   1548479   1547151   1544292   1540618   1536839  
  9910.000000   1533437   1530598   1528362   1526707   1525793  
  9900.000000   1525898   1527416   1530571   1535286   1540991  
  9890.000000   1546688   1551117   1553039   1551625   1546630  
  9880.000000   1538599   1528663   1518361   1509215   1502404  
  9870.000000   1498519   1497453   1498567   1500874   1503436  
  9860.000000   1505533   1506875   1507499   1507663   1507657  
  9850.000000   1507635   1507658   1507607   1507392   1506870  
  9840.000000   1505980   1504653   1502879   1500704   1498291  
  9830.000000   1495959   1494158   1493363   1493899   1495752  
  9820.000000   1498497   1501351   1503442   1504112   1503210  
  9810.000000   1501169   1498863   1497297   1497205   1498836  
  9800.000000   1501872   1505629   1509339   1512431   1514686  
  9790.000000   1516174   1517109   1517597   1517576   1516791  
  9780.000000   1515023   1512204   1508591   1504691   1501132  
  9770.000000   1498497   1497118   1497137   1498453   1500953  
  9760.000000   1504483   1508934   1514105   1519638   1524968  
  9750.000000   1529396   1532240   1533037   1531667   1528410  
  9740.000000   1523877   1518882   1514258   1510713   1508652  
  9730.000000   1508146   1508828   1510042   1510864   1510416  
  9720.000000   1508002   1503407   1496990   1489668   1482721  
  9710.000000   1477337   1474280   1473521   1474320   1475425  
  9700.000000   1475597   1474026   1470658   1466215   1461932  
  9690.000000   1459128   1458754   1461085   1465693   1471593  
  9680.000000   1477623   1482732   1486255   1487963   1488015  
  9670.000000   1486837   1484962   1482929   1481192   1480062  
  9660.000000   1479666   1479916   1480505   1480979   1480806  
  9650.000000   1479571   1477073   1473455   1469178   1464886  
  9640.000000   1461221   1458590   1457061   1456342   1455924  
  9630.000000   1455300   1454197   1452731   1451390   1450880  
  9620.000000   1451812   1454470   1458604   1463503   1468155  
  9610.000000   1471605   1473246   1473006   1471348   1469053  
  9600.000000   1466920   1465441   1464640   1464063   1463020  
  9590.000000   1460838   1457168   1452090   1446103   1439945  
  9580.000000   1434375   1429988   1427092   1425732   1425726  
  9570.000000   1426786   1428590   1430845   1433319   1435855  
  9560.000000   1438375   1440869   1443364   1445844   1448238  
  9550.000000   1450338   1451916   1452712   1452612   1451642  
  9540.000000   1450004   1448007   1445953   1444068   1442435  
  9530.000000   1441050   1439887   1439000   1438517   1438595  
  9520.000000   1439268   1440386   1441582   1442431   1442609  
  9510.000000   1442105   1441231   1440569   1440687   1441934  
  9500.000000   1444226   1447075   1449756   1451578   1452143  
  9490.000000   1451423   1449695   1447320   1444525   1441338  
  9480.000000   1437633   1433343   1428631   1423961   1420023  
  9470.000000   1417479   1416704   1417576   1419454   1421377  
  9460.000000   1422384   1421854   1419734   1416524   1413129  
  9450.000000   1410519   1409457   1410292   1412876   1416683  
  9440.000000   1420930   1424851   1427847   1429646   1430296  
  9430.000000   1430091   1429416   1428565   1427648   1426461  
  9420.000000   1424622   1421629   1417186   1411320   1404518  
  9410.000000   1397629   1391618   1387341   1385258   1385412  
  9400.000000   1387426   1390735   1394733   1398939   1403011  
  9390.000000   1406700   1409799   1412086   1413425   1413776  
  9380.000000   1413337   1412429   1411476   1410777   1410420  
  9370.000000   1410246   1409936   1409232   1408050   1406598  
  9360.000000   1405247   1404414   1404327   1404919   1405810  
  9350.000000   1406457   1406370   1405318   1403400   1401005  
  9340.000000   1398655   1396854   1395960   1396137   1397324  
  9330.000000   1399283   1401617   1403845   1405464   1406029  
  9320.000000   1405287   1403251   1400278   1396946   1393908  
  9310.000000   1391622   1390223   1389487   1388976   1388263  
  9300.000000   1387113   1385665   1384338   1383701   1384159  
  9290.000000   1385793   1388295   1391091   1393560   1395197  
  9280.000000   1395751   1395200   1393722   1391564   1389009  
  9270.000000   1386346   1383899   1382034   1381061   1381133  
  9260.000000   1382096   1383533   1384842   1385489   1385189  
  9250.000000   1384057   1382549   1381254   1380614   1380685  
  9240.000000   1381135   1381358   1380819   1379264   1376905  
  9230.000000   1374309   1372196   1371121   1371249   1372347  
  9220.000000   1373917   1375473   1376735   1377735   1378740  
  9210.000000   1380067   1381880   1384098   1386407   1388390  
  9200.000000   1389666   1390035   1389522   1388335   1386760  
  9190.000000   1385088   1383532   1382241   1381236   1380477  
  9180.000000   1379809   1379038   1377912   1376234   1373918  
  9170.000000   1371078   1367992   1365025   1362478   1360467  
  9160.000000   1358897   1357487   1355936   1354047   1351869  
  9150.000000   1349659   1347797   1346595   1346187   1346457  
  9140.000000   1347133   1347877   1348458   1348796   1348990  
  9130.000000   1349212   1349629   1350306   1351217   1352265  
  9120.000000   1353371   1354476   1355556   1356561   1357389  
  9110.000000   1357881   1357874   1357293   1356219   1354900  
  9100.000000   1353687   1352912   1352773   1353234   1354039  
  9090.000000   1354815   1355213   1355044   1354311   1353231  
  9080.000000   1352135   1351375   1351192   1351695   1352842  
  9070.000000   1354468   1356313   1358069   1359445   1360179  
  9060.000000   1360109   1359185   1357534   1355415   1353154  
  9050.000000   1351076   1349417   1348318   1347789   1347791  
  9040.000000   1348242   1349111   1350378   1352000   1353852  
  9030.000000   1355674   1357132   1357800   1357336   1355539  
  9020.000000   1352536   1348696   1344618   1340998   1338512  
  9010.000000   1337669   1338636   1341309   1345298   1350090  
  9000.000000   1355068   1359709   1363641   1366671   1368741  
  8990.000000   1369847   1370039   1369311   1367678   1365151  
  8980.000000   1361897   1358202   1354485   1351217   1348782  
  8970.000000   1347426   1347108   1347633   1348654   1349895  
  8960.000000   1351168   1352454   1353819   1355337   1356990  
  8950.000000   1358592   1359849   1360420   1360113   1358899  
  8940.000000   1356982   1354681   1352359   1350287   1348587  
  8930.000000   1347256   1346228   1345465   1344990   1344888  
  8920.000000   1345238   1346048   1347199   1348460   1349571  
  8910.000000   1350323   1350675   1350718   1350680   1350773  
  8900.000000   1351161   1351857   1352786   1353815   1354854  
  8890.000000   1355891   1356990   1358245   1359709   1361362  
  8880.000000   1363096   1364786   1366330   1367711   1368972  
  8870.000000   1370192   1371402   1372563   1373542   1374191  
  8860.000000   1374398   1374173   1373621   1372919   1372201  
  8850.000000   1371520   1370806   1369927   1368777   1367344  
  8840.000000   1365768   1364267   1363070   1362270   1361799  
  8830.000000   1361430   1360929   1360164   1359232   1358454  
  8820.000000   1358286   1359146   1361240   1364471   1368467  
  8810.000000   1372700   1376680   1380062   1382753   1384810  
  8800.000000   1386380   1387542   1388306   1388603   1388401  
  8790.000000   1387771   1386927   1386208   1385953   1386421  
  8780.000000   1387665   1389567   1391851   1394215   1396379  
  8770.000000   1398147   1399403   1400087   1400185   1399729  
  8760.000000   1398827   1397683   1396600   1395918   1395932  
  8750.000000   1396784   1398416   1400570   1402874   1404951  
  8740.000000   1406538   1407537   1408027   1408195   1408290  
  8730.000000   1408527   1409084   1410059   1411494   1413373  
  8720.000000   1415619   1418106   1420654   1423093   1425290  
  8710.000000   1427212   1428912   1430492   1432025   1433481  
  8700.000000   1434714   1435485   1435590   1434945   1433695  
  8690.000000   1432170   1430813   1430022   1430009   1430747  
  8680.000000   1431978   1433374   1434671   1435805   1436919  
  8670.000000   1438297   1440221   1442823   1446022   1449508  
  8660.000000   1452882   1455730   1457813   1459040   1459538  
  8650.000000   1459517   1459258   1458998   1458939   1459234  
  8640.000000   1460016   1461388   1463393   1466015   1469140  
  8630.000000   1472606   1476191   1479704   1482996   1486004  
  8620.000000   1488724   1491184   1493425   1495446   1497248  
  8610.000000   1498781   1500028   1500955   1501554   1501820  
  8600.000000   1501761   1501440   1500957   1500526   1500405  
  8590.000000   1500921   1502342   1504834   1508345   1512601  
  8580.000000   1517119   1521303   1524565   1526473   1526878  
  8570.000000   1525931   1524069   1521881   1519992   1518890  
  8560.000000   1518816   1519727   1521327   1523191   1524874  
  8550.000000   1526079   1526705   1526888   1526888   1527009  
  8540.000000   1527473   1528346   1529547   1530864   1532081  
  8530.000000   1533023   1533650   1534024   1534290   1534596  
  8520.000000   1535049   1535677   1536447   1537300   1538194  
  8510.000000   1539131   1540150   1541318   1542689   1544290  
  8500.000000   1546093   1548042   1550064   1552069   1553973  
  8490.000000   1555671   1557071   1558072   1558616   1558688  
  8480.000000   1558374   1557841   1557330   1557098   1557362  
  8470.000000   1558260   1559793   1561870   1564299   1566903  
  8460.000000   1569524   1572085   1574558   1576940   1579221  
  8450.000000   1581331   1583150   1584514   1585293   1585426  
  8440.000000   1584978   1584129   1583146   1582323   1581882  
  8430.000000   1581954   1582511   1583437   1584546   1585677  
  8420.000000   1586720   1587651   1588506   1589340   1590184  
  8410.000000   1591007   1591740   1592289   1592608   1592712  
  8400.000000   1592702   1592741   1592992   1593583   1594533  
  8390.000000   1595781   1597179   1598579   1599851   1600941  
  8380.000000   1601853   1602629   1603305   1603866   1604236  
  8370.000000   1604298   1603952   1603156   1601979   1600592  
  8360.000000   1599239   1598177   1597594   1597569   1598043  
  8350.000000   1598862   1599824   1600746   1601512   1602092  
  8340.000000   1602539   1602942   1603393   1603939   1604586  
  8330.000000   1605293   1606000   1606662   1607262   1607834  
  8320.000000   1608433   1609142   1610030   1611136   1612433  
  8310.000000   1613814   1615095   1616044   1616432   1616086  
  8300.000000   1614952   1613135   1610895   1608616   1606685  
  8290.000000   1605425   1604976   1605300   1606164   1607249  
  8280.000000   1608214   1608818   1608951   1608650   1608044  
  8270.000000   1607287   1606508   1605766   1605069   1604376  
  8260.000000   1603657   1602904   1602146   1601435   1600818  
  8250.000000   1600332   1599978   1599751   1599625   1599580  
  8240.000000   1599588   1599615   1599613   1599517   1599260  
  8230.000000   1598785   1598062   1597105   1595967   1594739  
  8220.000000   1593516   1592392   1591426   1590652   1590064  
  8210.000000   1589630   1589291   1588969   1588568   1588000  
  8200.000000   1587185   1586085   1584704   1583116   1581440  
  8190.000000   1579840   1578484   1577511   1576986   1576878  
  8180.000000   1577048   1577273   1577292   1576863   1575825  
  8170.000000   1574135   1571892   1569309   1566671   1564258  
  8160.000000   1562287   1560869   1560000   1559584   1559472  
  8150.000000   1559503   1559530   1559437   1559138   1558574  
  8140.000000   1557727   1556620   1555339   1554011   1552795  
  8130.000000   1551821   1551160   1550789   1550595   1550425  
  8120.000000   1550133   1549653   1549004   1548300   1547665  
  8110.000000   1547194   1546880   1546624   1546266   1545649  
  8100.000000   1544686   1543382   1541836   1540176   1538509  
  8090.000000   1536868   1535204   1533438   1531516   1529473  
  8080.000000   1527445   1525642   1524270   1523468   1523226  
  8070.000000   1523409   1523770   1524044   1524018   1523583  
  8060.000000   1522762   1521665   1520459   1519277   1518204  
  8050.000000   1517225   1516266   1515208   1513947   1512436  
  8040.000000   1510712   1508913   1507236   1505914   1505124  
  8030.000000   1504953   1505341   1506092   1506913   1507484  
  8020.000000   1507559   1507013   1505888   1504354   1502662  
  8010.000000   1501054   1499706   1498692   1497990   1497525  
  8000.000000   1497213   1496993   1496831   1496704   1496570  
  7990.000000   1496353   1495949   1495253   1494220   1492871  
  7980.000000   1491337   1489791   1488432   1487396   1486727  
  7970.000000   1486367   1486187   1486053   1485876   1485653  
  7960.000000   1485465   1485437   1485675   1486211   1486970  
  7950.000000   1487778   1488412   1488666   1488423   1487685  
  7940.000000   1486591   1485354   1484208   1483325   1482767  
  7930.000000   1482469   1482272   1481984   1481451   1480614  
  7920.000000   1479533   1478367   1477318   1476572   1476230  
  7910.000000   1476289   1476652   1477158   1477654   1478027  
  7900.000000   1478241   1478320   1478322   1478311   1478322  
  7890.000000   1478360   1478411   1478451   1478477   1478490  
  7880.000000   1478498   1478490   1478432   1478268   1477942  
  7870.000000   1477428   1476740   1475957   1475183   1474541  
  7860.000000   1474113   1473936   1473978   1474165   1474398  
  7850.000000   1474584   1474652   1474554   1474261   1473751  
  7840.000000   1473011   1472042   1470872   1469568   1468235  
  7830.000000   1467007   1466003   1465314   1464965   1464919  
  7820.000000   1465081   1465330   1465542   1465616   1465489  
  7810.000000   1465131   1464550   1463780   1462881   1461924  
  7800.000000   1460996   1460174   1459517   1459050   1458746  
  7790.000000   1458545   1458349   1458071   1457642   1457047  
  7780.000000   1456324   1455551   1454819   1454193   1453691  
  7770.000000   1453262   1452809   1452211   1451376   1450273  
  7760.000000   1448955   1447560   1446263   1445245   1444619  
  7750.000000   1444416   1444562   1444915   1445305   1445581  
  7740.000000   1445655   1445501   1445148   1444640   1444016  
  7730.000000   1443287   1442450   1441499   1440460   1439388  
  7720.000000   1438370   1437492   1436812   1436342   1436034  
  7710.000000   1435812   1435590   1435308   1434945   1434515  
  7700.000000   1434057   1433607   1433194   1432825   1432507  
  7690.000000   1432241   1432036   1431899   1431828   1431801  
  7680.000000   1431778   1431713   1431580   1431377   1431142  
  7670.000000   1430931   1430798   1430761   1430799   1430850  
  7660.000000   1430839   1430715   1430475   1430172   1429898  
  7650.000000   1429752   1429793   1430025   1430385   1430762  
  7640.000000   1431034   1431098   1430900   1430439   1429774  
  7630.000000   1428991   1428198   1427489   1426942   1426597  
  7620.000000   1426464   1426517   1426713   1427001   1427335  
  7610.000000   1427690   1428068   1428492   1428995   1429602  
  7600.000000   1430319   1431120   1431960   1432774   1433507  
  7590.000000   1434109   1434565   1434870   1435054   1435144  
  7580.000000   1435185   1435208   1435245   1435315   1435434  
  7570.000000   1435612   1435865   1436215   1436696   1437350  
  7560.000000   1438212   1439303   1440614   1442097   1443674  
  7550.000000   1445240   1446700   1447969   1449012   1449820  
  7540.000000   1450433   1450895   1451273   1451618   1451988  
  7530.000000   1452427   1452983   1453693   1454589   1455685  
  7520.000000   1456981   1458454   1460067   1461778   1463549  
  7510.000000   1465350   1467169   1468998   1470852   1472733  
  7500.000000   1474664   1476642   1478674   1480731   1482788  
  7490.000000   1484799   1486736   1488577   1490342   1492074  
  7480.000000   1493848   1495734   1497792   1500037   1502452  
  7470.000000   1504980   1507554   1510107   1512605   1515031  
  7460.000000   1517402   1519733   1522055   1524377   1526720  
  7450.000000   1529093   1531519   1534021   1536630   1539373  
  7440.000000   1542264   1545305   1548481   1551767   1555130  
  7430.000000   1558525   1561901   1565193   1568346   1571306  
  7420.000000   1574046   1576565   1578898   1581102   1583247  
  7410.000000   1585403   1587621   1589942   1592382   1594957  
  7400.000000   1597662   1600491   1603418   1606395   1609347  
  7390.000000   1612186   1614823   1617194   1619279   1621107  
  7380.000000   1622771   1624396   1626123   1628067   1630300  
  7370.000000   1632831   1635609   1638540   1641513   1644430  
  7360.000000   1647237   1649932   1652570   1655229   1657991  
  7350.000000   1660894   1663922   1666998   1670012   1672857  
  7340.000000   1675474   1677874   1680128   1682348   1684631  
  7330.000000   1687044   1689581   1692190   1694774   1697247  
  7320.000000   1699543   1701651   1703591   1705420   1707192  
  7310.000000   1708956   1710727   1712500   1714240   1715908  
  7300.000000   1717455   1718858   1720108   1721241   1722312  
  7290.000000   1723406   1724594   1725923   1727385   1728923  
  7280.000000   1730435   1731809   1732946   1733797   1734372  
  7270.000000   1734741   1735001   1735257   1735598   1736079  
  7260.000000   1736730   1737553   1738546   1739693   1740978  
  7250.000000   1742363   1743808   1745251   1746650   1747966  
  7240.000000   1749214   1750426   1751688   1753078   1754688  
  7230.000000   1756565   1758740   1761185   1763863   1766694  
  7220.000000   1769613   1772534   1775411   1778202   1780920  
  7210.000000   1783585   1786267   1789022   1791925   1795009  
  7200.000000   1798305   1801804   1805506   1809387   1813448  
  7190.000000   1817665   1822026   1826480   1830985   1835465  
  7180.000000   1839883   1844200   1848439   1852632   1856860  
  7170.000000   1861179   1865665   1870345   1875255   1880383  
  7160.000000   1885724   1891239   1896897   1902639   1908428  
  7150.000000   1914216   1920002   1925791   1931647   1937618  
  7140.000000   1943773   1950119   1956650   1963292   1969984  
  7130.000000   1976648   1983268   1989848   1996460   2003178  
  7120.000000   2010104   2017300   2024817   2032643   2040748  
  7110.000000   2049047   2057457   2065867   2074199   2082390  
  7100.000000   2090447   2098409   2106374   2114429   2122656  
  7090.000000   2131065   2139620   2148228   2156796   2165251  
  7080.000000   2173583   2181834   2190095   2198449   2206961  
  7070.000000   2215636   2224432   2233276   2242099   2250852  
  7060.000000   2259531   2268165   2276803   2285497   2294280  
  7050.000000   2303160   2312110   2321080   2329990   2338762  
  7040.000000   2347320   2355626   2363677   2371527   2379251  
  7030.000000   2386942   2394655   2402408   2410152   2417815  
  7020.000000   2425300   2432557   2439563   2446360   2453002  
  7010.000000   2459562   2466073   2472563   2479015   2485430  
  7000.000000   2491785   2498087   2504313   2510448   2516439  
  6990.000000   2522249   2527834   2533205   2538392   2543470  
  6980.000000   2548489   2553487   2558430   2563262   2567892  
  6970.000000   2572275   2576387   2580285   2584026   2587697  
  6960.000000   2591326   2594930   2598471   2601928   2605271  
  6950.000000   2608508   2611635   2614653   2617522   2620193  
  6940.000000   2622605   2624742   2626623   2628341   2629996  
  6930.000000   2631705   2633524   2635474   2637513   2639595  
  6920.000000   2641663   2643702   2645699   2647663   2649578  
  6910.000000   2651423   2653156   2654751   2656198   2657516  
  6900.000000   2658735   2659881   2660957   2661954   2662854  
  6890.000000   2663665   2664428   2665221   2666120   2667185  
  6880.000000   2668412   2669751   2671109   2672403   2673584  
  6870.000000   2674658   2675669   2676677   2677712   2678768  
  6860.000000   2679804   2680774   2681657   2682470   2683269  
  6850.000000   2684114   2685039   2686033   2687040   2687985  
  6840.000000   2688809   2689500   2690093   2690662   2691278  
  6830.000000   2691992   2692806   2693691   2694594   2695466  
  6820.000000   2696271   2696996   2697634   2698187   2698653  
  6810.000000   2699040   2699361   2699649   2699932   2700248  
  6800.000000   2700606   2701004   2701417   2701824   2702197  
  6790.000000   2702529   2702803   2703001   2703084   2703007  
  6780.000000   2702722   2702221   2701532   2700740   2699947  
  6770.000000   2699260   2698735   2698381   2698145   2697955  
  6760.000000   2697735   2697442   2697065   2696624   2696142  
  6750.000000   2695634   2695097   2694523   2693905   2693255  
  6740.000000   2692595   2691957   2691358   2690798   2690250  
  6730.000000   2689682   2689058   2688366   2687605   2686795  
  6720.000000   2685952   2685091   2684209   2683303   2682363  
  6710.000000   2681391   2680385   2679351   2678285   2677186  
  6700.000000   2676047   2674879   2673696   2672531   2671403  
  6690.000000   2670321   2669266   2668202   2667083   2665878  
  6680.000000   2664578   2663208   2661797   2660378   2658959  
  6670.000000   2657526   2656048   2654499   2652870   2651180  
  6660.000000   2649455   2647727   2646004   2644279   2642526  
  6650.000000   2640730   2638890   2637030   2635183   2633377  
  6640.000000   2631610   2629855   2628064   2626201   2624253  
  6630.000000   2622251   2620249   2618313   2616484   2614776  
  6620.000000   2613163   2611603   2610051   2608477   2606863  
  6610.000000   2605198   2603461   2601622   2599646   2597508  
  6600.000000   2595218   2592823   2590399   2588031   2585786  
  6590.000000   2583688   2581721   2579840   2577990   2576131  
  6580.000000   2574247   2572347   2570454   2568594   2566794  
  6570.000000   2565071   2563442   2561915   2560499   2559183  
  6560.000000   2557946   2556751   2555560   2554344   2553097  
  6550.000000   2551831   2550574   2549346   2548152   2546973  
  6540.000000   2545779   2544537   2543240   2541903   2540560  
  6530.000000   2539248   2537986   2536769   2535566   2534343  
  6520.000000   2533080   2531782   2530482   2529227   2528059  
  6510.000000   2526996   2526028   2525123   2524239   2523340  
  6500.000000   2522405   2521430   2520422   2519390   2518351  
  6490.000000   2517315   2516298   2515311   2514360   2513434  
  6480.000000   2512513   2511565   2510562   2509497   2508384  
  6470.000000   2507269   2506203   2505234   2504381   2503629  
  6460.000000   2502934   2502240   2501496   2500670   2499755  
  6450.000000   2498762   2497709   2496617   2495501   2494381  
  6440.000000   2493277   2492213   2491210   2490273   2489388  
  6430.000000   2488522   2487636   2486697   2485696   2484648  
  6420.000000   2483588   2482554   2481568   2480632   2479729  
  6410.000000   2478836   2477942   2477049   2476176   2475345  
  6400.000000   2474565   2473825   2473101   2472360   2471583  
  6390.000000   2470769   2469937   2469118   2468339   2467610  
  6380.000000   2466923   2466255   2465583   2464888   2464167  
  6370.000000   2463426   2462678   2461934   2461202   2460485  
  6360.000000   2459786   2459106   2458444   2457796   2457151  
  6350.000000   2456498   2455825   2455135   2454435   2453747  
  6340.000000   2453082   2452440   2451793   2451100   2450312  
  6330.000000   2449395   2448342   2447180   2445956   2444726  
  6320.000000   2443527   2442381   2441272   2440184   2439088  
  6310.000000   2437977   2436846   2435708   2434561   2433408  
  6300.000000   2432228   2431005   2429715   2428347   2426883  
  6290.000000   2425314   2423620   2421789   2419803   2417671  
  6280.000000   2415409   2413067   2410691   2408333   2406011  
  6270.000000   2403731   2401466   2399192   2396877   2394516  
  6260.000000   2392103   2389652   2387160   2384629   2382041  
  6250.000000   2379392   2376680   2373923   2371145   2368376  
  6240.000000   2365631   2362914   2360206   2357486   2354733  
  6230.000000   2351940   2349111   2346265   2343420   2340596  
  6220.000000   2337804   2335052   2332342   2329672   2327034  
  6210.000000   2324417   2321803   2319176   2316526   2313855  
  6200.000000   2311178   2308517   2305893   2303313   2300770  
  6190.000000   2298242   2295706   2293148   2290577   2288017  
  6180.000000   2285506   2283074   2280734   2278478   2276282  
  6170.000000   2274112   2271941   2269754   2267550   2265334  
  6160.000000   2263117   2260906   2258710   2256535   2254396  
  6150.000000   2252303   2250270   2248296   2246375   2244489  
  6140.000000   2242624   2240769   2238932   2237123   2235362  
  6130.000000   2233654   2231999   2230383   2228795   2227225  
  6120.000000   2225688   2224198   2222785   2221454   2220205  
  6110.000000   2219010   2217842   2216670   2215493   2214316  
  6100.000000   2213174   2212091   2211094   2210187   2209370  
  6090.000000   2208627   2207959   2207361   2206844   2206402  
  6080.000000   2206035   2205716   2205429   2205148   2204880  
  6070.000000   2204629   2204434   2204314   2204300   2204392  
  6060.000000   2204592   2204880   2205256   2205708   2206247  
  6050.000000   2206871   2207594   2208406   2209314   2210312  
  6040.000000   2211416   2212629   2213976   2215454   2217065  
  6030.000000   2218783   2220592   2222461   2224385   2226357  
  6020.000000   2228389   2230480   2232628   2234808   2236999  
  6010.000000   2239170   2241308   2243411   2245494   2247568  
  6000.000000   2249647   2251727   2253799   2255846   2257855  
  5990.000000   2259820   2261745   2263634   2265500   2267346  
  5980.000000   2269185   2271030   2272908   2274853   2276904  
  5970.000000   2279090   2281421   2283887   2286460   2289096  
  5960.000000   2291758   2294406   2297015   2299558   2302019  
  5950.000000   2304374   2306620   2308757   2310812   2312822  
  5940.000000   2314842   2316915   2319078   2321342   2323699  
  5930.000000   2326133   2328626   2331164   2333743   2336359  
  5920.000000   2339007   2341671   2344332   2346967   2349563  
  5910.000000   2352109   2354612   2357071   2359496   2361889  
  5900.000000   2364258   2366619   2369000   2371436   2373959  
  5890.000000   2376589   2379314   2382096   2384875   2387589  
  5880.000000   2390184   2392636   2394946   2397136   2399236  
  5870.000000   2401267   2403245   2405170   2407048   2408880  
  5860.000000   2410683   2412474   2414279   2416117   2418019  
  5850.000000   2420007   2422119   2424386   2426844   2429508  
  5840.000000   2432381   2435440   2438649   2441969   2445366  
  5830.000000   2448818   2452307   2455817   2459318   2462770  
  5820.000000   2466116   2469309   2472304   2475089   2477655  
  5810.000000   2480020   2482179   2484142   2485885   2487415  
  5800.000000   2488720   2489842   2490799   2491647   2492387  
  5790.000000   2493029   2493518   2493819   2493861   2493627  
  5780.000000   2493096   2492301   2491263   2490034   2488639  
  5770.000000   2487116   2485488   2483795   2482070   2480360  
  5760.000000   2478697   2477115   2475629   2474250   2472984  
  5750.000000   2471839   2470823   2469941   2469195   2468569  
  5740.000000   2468054   2467624   2467273   2466988   2466776  
  5730.000000   2466632   2466559   2466533   2466545   2466565  
  5720.000000   2466593   2466625   2466687   2466799   2466991  
  5710.000000   2467273   2467654   2468125   2468679   2469305  
  5700.000000   2469995   2470738   2471520   2472321   2473119  
  5690.000000   2473896   2474641   2475358   2476052   2476736  
  5680.000000   2477411   2478073   2478704   2479288   2479799  
  5670.000000   2480224   2480540   2480733   2480777   2480659  
  5660.000000   2480365   2479911   2479324   2478662   2477977  
  5650.000000   2477320   2476710   2476148   2475605   2475061  
  5640.000000   2474495   2473916   2473340   2472794   2472291  
  5630.000000   2471830   2471394   2470965   2470527   2470082  
  5620.000000   2469643   2469226   2468842   2468488   2468147  
  5610.000000   2467802   2467441   2467067   2466689   2466319  
  5600.000000   2465955   2465581   2465160   2464662   2464063  
  5590.000000   2463367   2462595   2461781   2460950   2460117  
  5580.000000   2459269   2458390   2457458   2456469   2455426  
  5570.000000   2454347   2453246   2452132   2450999   2449841  
  5560.000000   2448652   2447441   2446225   2445031   2443877  
  5550.000000   2442769   2441699   2440652   2439613   2438577  
  5540.000000   2437548   2436539   2435562   2434617   2433696  
  5530.000000   2432784   2431866   2430936   2429995   2429050  
  5520.000000   2428108   2427170   2426231   2425290   2424342  
  5510.000000   2423391   2422438   2421483   2420508   2419493  
  5500.000000   2418409   2417242   2415992   2414689   2413370  
  5490.000000   2412078   2410824   2409604   2408375   2407096  
  5480.000000   2405724   2404248   2402673   2401033   2399353  
  5470.000000   2397656   2395939   2394191   2392388   2390520  
  5460.000000   2388576   2386565   2384486   2382346   2380139  
  5450.000000   2377869   2375542   2373180   2370809   2368458  
  5440.000000   2366145   2363874   2361641   2359437   2357266  
  5430.000000   2355136   2353066   2351065   2349137   2347265  
  5420.000000   2345439   2343642   2341896   2340224   2338680  
  5410.000000   2337293   2336090   2335047   2334149   2333355  
  5400.000000   2332667   2332083   2331646   2331372   2331290  
  5390.000000   2331377   2331621   2331981   2332462   2333060  
  5380.000000   2333825   2334774   2335944   2337301   2338830  
  5370.000000   2340459   2342174   2343932   2345773   2347701  
  5360.000000   2349790   2352050   2354556   2357311   2360400  
  5350.000000   2363837   2367722   2372058   2376920   2382261  
  5340.000000   2388117   2394412   2401194   2408412   2416146  
  5330.000000   2424357   2433119   2442367   2452162   2462433  
  5320.000000   2473278   2484675   2496772   2509568   2523208  
  5310.000000   2537647   2552974   2569095   2586079   2603846  
  5300.000000   2622500   2642012   2662524   2684028   2706653  
  5290.000000   2730348   2755154   2780922   2807582   2834926  
  5280.000000   2862876   2891306   2920262   2949767   2979954  
  5270.000000   3010857   3042478   3074659   3107162   3139702  
  5260.000000   3172022   3203992   3235566   3266831   3297818  
  5250.000000   3328577   3358956   3388816   3417850   3445924  
  5240.000000   3472842   3498689   3523466   3547396   3570501  
  5230.000000   3592935   3614584   3635464   3655362   3674267  
  5220.000000   3692020   3708719   3724322   3739026   3752835  
  5210.000000   3765931   3778252   3789876   3800650   3810598  
  5200.000000   3819581   3827694   3834891   3841339   3847022  
  5190.000000   3852068   3856397   3860062   3862948   3865112  
  5180.000000   3866493   3867206   3867235   3866696   3865549  
  5170.000000   3863865   3861588   3858792   3855462   3851714  
  5160.000000   3847560   3843103   3838315   3833239   3827812  
  5150.000000   3822060   3815954   3809559   3802887   3796014  
  5140.000000   3788943   3781714   3774306   3766745   3759017  
  5130.000000   3751166   3743201   3735167   3727072   3718945  
  5120.000000   3710784   3702615   3694443   3686298   3678181  
  5110.000000   3670103   3662041   3653982   3645899   3637786  
  5100.000000   3629649   3621512   3613400   3605336   3597325  
  5090.000000   3589361   3581425   3573507   3565595   3557699  
  5080.000000   3549824   3541985   3534179   3526403   3518641  
  5070.000000   3510887   3503130   3495378   3487634   3479908  
  5060.000000   3472197   3464497   3456794   3449073   3441324  
  5050.000000   3433541   3425726   3417883   3410018   3402136  
  5040.000000   3394250   3386371   3378520   3370717   3362987  
  5030.000000   3355343   3347803   3340366   3333040   3325820  
  5020.000000   3318721   3311740   3304894   3298173   3291592  
  5010.000000   3285129   3278800   3272589   3266530   3260625  
  5000.000000   3254925   3249433   3244196   3239201   3234484  
  4990.000000   3230026   3225866   3221997   3218473   3215286  
  4980.000000   3212485   3210037   3207970   3206232   3204845  
  4970.000000   3203765   3203035   3202632   3202616   3202964  
  4960.000000   3203733   3204889   3206474   3208448   3210849  
  4950.000000   3213633   3216832   3220398   3224354   3228650  
  4940.000000   3233313   3238298   3243643   3249308   3255324  
  4930.000000   3261644   3268280   3275176   3282345   3289742  
  4920.000000   3297395   3305275   3313413   3321780   3330390  
  4910.000000   3339206   3348235   3357449   3366860   3376454  
  4900.000000   3386243   3396210   3406344   3416612   3426986  
  4890.000000   3437426   3447903   3458389   3468859   3479293  
  4880.000000   3489663   3499950   3510118   3520147   3529998  
  4870.000000   3539651   3549066   3558233   3567122   3575745  
  4860.000000   3584094   3592206   3600083   3607766   3615251  
  4850.000000   3622568   3629707   3636696   3643530   3650243  
  4840.000000   3656828   3663312   3669665   3675893   3681956  
  4830.000000   3687860   3693582   3699151   3704565   3709856  
  4820.000000   3715010   3720034   3724886   3729557   3734006  
  4810.000000   3738238   3742239   3746035   3749624   3753035  
  4800.000000   3756267   3759348   3762279   3765097   3767810  
  4790.000000   3770456   3773035   3775570   3778046   3780472  
  4780.000000   3782832   3785137   3787374   3789551   3791640  
  4770.000000   3793630   3795478   3797165   3798656   3799956  
  4760.000000   3801060   3802005   3802802   3803489   3804063  
  4750.000000   3804542   3804895   3805120   3805174   3805050  
  4740.000000   3804710   3804155   3803368   3802372   3801170  
  4730.000000   3799799   3798267   3796606   3794812   3792897  
  4720.000000   3790848   3788677   3786385   3783999   3781540  
  4710.000000   3779048   3776544   3774058   3771597   3769179  
  4700.000000   3766802   3764479   3762210   3760002   3757848  
  4690.000000   3755741   3753662   3751593   3749511   3747402  
  4680.000000   3745251   3743049   3740789   3738458   3736052  
  4670.000000   3733560   3730988   3728342   3725649   3722936  
  4660.000000   3720247   3717615   3715085   3712686   3710454  
  4650.000000   3708405   3706561   3704922   3703490   3702247  
  4640.000000   3701181   3700264   3699484   3698818   3698257  
  4630.000000   3697780   3697369   3696987   3696606   3696184  
  4620.000000   3695698   3695129   3694486   3693780   3693035  
  4610.000000   3692269   3691495   3690711   3689912   3689092  
  4600.000000   3688249   3687390   3686531   3685692   3684893  
  4590.000000   3684153   3683480   3682878   3682341   3681859  
  4580.000000   3681416   3680994   3680572   3680134   3679666  
  4570.000000   3679164   3678629   3678064   3677475   3676859  
  4560.000000   3676211   3675515   3674760   3673931   3673027  
  4550.000000   3672052   3671023   3669955   3668879   3667814  
  4540.000000   3666794   3665834   3664967   3664198   3663549  
  4530.000000   3663001   3662569   3662226   3662000   3661887  
  4520.000000   3661955   3662228   3662801   3663693   3664988  
  4510.000000   3666669   3668797   3671336   3674353   3677825  
  4500.000000   3681846   3686409   3691624   3697476   3704064  
  4490.000000   3711357   3719435   3728252   3737867   3748216  
  4480.000000   3759337   3771151   3783677   3796834   3810633  
  4470.000000   3824988   3839890   3855237   3870985   3887015  
  4460.000000   3903265   3919630   3936066   3952502   3968915  
  4450.000000   3985259   4001506   4017621   4033569   4049342  
  4440.000000   4064919   4080327   4095557   4110653   4125578  
  4430.000000   4140360   4154917   4169253   4183258   4196932  
  4420.000000   4210160   4222947   4235171   4246834   4257794  
  4410.000000   4268034   4277392   4285841   4293229   4299555  
  4400.000000   4304723   4308798   4311766   4313760   4314828  
  4390.000000   4315129   4314735   4313793   4312376   4310621  
  4380.000000   4308612   4306494   4304375   4302405   4300706  
  4370.000000   4299410   4298622   4298423   4298870   4299976  
  4360.000000   4301745   4304122   4307064   4310476   4314287  
  4350.000000   4318397   4322747   4327272   4331955   4336783  
  4340.000000   4341776   4346934   4352245   4357641   4363004  
  4330.000000   4368155   4372885   4376987   4380300   4382758  
  4320.000000   4384396   4385375   4385916   4386298   4386748  
  4310.000000   4387462   4388509   4389915   4391589   4393458  
  4300.000000   4395390   4397312   4399130   4400801   4402262  
  4290.000000   4403484   4404424   4405072   4405417   4405488  
  4280.000000   4405306   4404929   4404383   4403726   4402972  
  4270.000000   4402169   4401318   4400444   4399519   4398522  
  4260.000000   4397374   4396003   4394307   4392221   4389699  
  4250.000000   4386758   4383454   4379900   4376219   4372554  
  4240.000000   4369016   4365703   4362660   4359906   4357414  
  4230.000000   4355142   4353017   4350964   4348901   4346757  
  4220.000000   4344484   4342049   4339456   4336723   4333899  
  4210.000000   4331032   4328190   4325420   4322777   4320288  
  4200.000000   4317981   4315848   4313886   4312051   4310318  
  4190.000000   4308628   4306967   4305296   4303648   4302022  
  4180.000000   4300501   4299113   4297957   4297061   4296526  
  4170.000000   4296371   4296706   4297560   4299047   4301187  
  4160.000000   4304073   4307675   4312035   4317070   4322786  
  4150.000000   4329084   4335979   4343387   4351350   4359802  
  4140.000000   4368799   4378282   4388308   4398820   4409870  
  4130.000000   4421399   4433451   4445961   4458965   4472407  
  4120.000000   4486322   4500669   4515492   4530759   4546508  
  4110.000000   4562704   4579365   4596437   4613909   4631710  
  4100.000000   4649810   4668134   4686656   4705324   4724135  
  4090.000000   4743071   4762142   4781346   4800681   4820147  
  4080.000000   4839729   4859430   4879227   4899124   4919071  
  4070.000000   4939040   4958934   4978701   4998223   5017474  
  4060.000000   5036371   5054937   5073108   5090917   5108272  
  4050.000000   5125192   5141565   5157432   5172698   5187428  
  4040.000000   5201517   5215004   5227730   5239706   5250757  
  4030.000000   5260917   5270049   5278212   5285285   5291301  
  4020.000000   5296096   5299710   5302077   5303310   5303380  
  4010.000000   5302515   5300844   5298478   5295229   5291230  
  4000.000000   5286850  
##END= 
