##TITLE= Sample 001 By ssteindl date Montag, November 19 2018
##JCAMP-DX= 4.24
##DATA TYPE= INFRARED SPECTRUM
##ORIGIN= Exported PE Spectrum Data File
##OWNER= Sandra Steindl
##DATE= 18/11/19
##TIME= 15:47:11.00
##SPECTROMETER/DATA SYSTEM= PERKIN-ELMER Frontier FT-IR/NIR IR
##INSTRUMENT PARAMETERS=
  APODIZATION=stark
  DETECTOR=INGAAS
##RESOLUTION= 16.000000
##DELTAX= -2.000000
##XUNITS= 1/CM
##YUNITS= A
##XFACTOR= 1.00
##YFACTOR= 0.00000000023841857910
##FIRSTX= 10000.00
##LASTX= 4000.00
##NPOINTS= 3001
##FIRSTY= 0.027853
##MAXY= 0.483992
##MINY= -0.006258
##XYDATA= (X++(Y..Y))
 10000.000000   0116824559   0112988268   0108812373   0104117949   0099565378  
  9990.000000   0096188481   0094701759   0095306600   0097878359   0101887244  
  9980.000000   0106320013   0109925282   0111771585   0111522503   0109534781  
  9970.000000   0106670033   0103976333   0102233571   0101655062   0101860454  
  9960.000000   0102163753   0101918171   0100870535   0099203577   0097369828  
  9950.000000   0095785153   0094511347   0093231437   0091372322   0088488080  
  9940.000000   0084566218   0080147491   0076199927   0073690922   0073205718  
  9930.000000   0074620769   0077171300   0079717481   0081230098   0081138398  
  9920.000000   0079528019   0077009418   0074443514   0072602958   0071937530  
  9910.000000   0072549799   0074273773   0076853979   0080038604   0083585155  
  9900.000000   0087215005   0090529238   0093057645   0094332698   0094074500  
  9890.000000   0092277629   0089260725   0085534216   0081665894   0078105957  
  9880.000000   0075125871   0072867325   0071386858   0070800326   0071194148  
  9870.000000   0072640418   0074992827   0077903509   0080809296   0083117783  
  9860.000000   0084380436   0084421768   0083383567   0081582831   0079403054  
  9850.000000   0077089732   0074769651   0072441491   0070139455   0067982992  
  9840.000000   0066195742   0065019617   0064559428   0064724004   0065196268  
  9830.000000   0065603164   0065667199   0065375460   0064991814   0064924918  
  9820.000000   0065531782   0066888511   0068754494   0070617968   0071953986  
  9810.000000   0072405074   0071958636   0070898473   0069682604   0068740550  
  9800.000000   0068304060   0068386169   0068801752   0069347200   0069876857  
  9790.000000   0070395385   0070991269   0071760065   0072694362   0073646734  
  9780.000000   0074355480   0074530312   0073961516   0072570689   0070454242  
  9770.000000   0067821863   0064974298   0062232484   0059898234   0058229596  
  9760.000000   0057372984   0057366326   0058087431   0059306353   0060726536  
  9750.000000   0062072463   0063168788   0063957256   0064493126   0064851549  
  9740.000000   0065071742   0065094167   0064801766   0064091880   0062981567  
  9730.000000   0061663359   0060479907   0059820400   0059975664   0061008308  
  9720.000000   0062713289   0064647082   0066269884   0067083463   0066784458  
  9710.000000   0065333021   0062951024   0060067548   0057193145   0054849921  
  9700.000000   0053450350   0053285164   0054435311   0056794084   0060003442  
  9690.000000   0063546486   0066766379   0069061697   0069968145   0069314710  
  9680.000000   0067238106   0064131701   0060551154   0057009721   0053894717  
  9670.000000   0051321252   0049174494   0047142396   0044865055   0042072391  
  9660.000000   0038701494   0034965769   0031300752   0028281476   0026421846  
  9650.000000   0026043052   0027137357   0029368032   0032179399   0034944937  
  9640.000000   0037210234   0038761754   0039706999   0040300835   0040834257  
  9630.000000   0041419856   0041988301   0042298947   0042134942   0041420039  
  9620.000000   0040320980   0039206649   0038498578   0038528561   0039371746  
  9610.000000   0040866642   0042652487   0044347085   0045648807   0046424146  
  9600.000000   0046672420   0046458667   0045826538   0044784446   0043344300  
  9590.000000   0041609953   0039815587   0038297438   0037372989   0037202082  
  9580.000000   0037694142   0038522180   0039238843   0039450468   0038958565  
  9570.000000   0037822320   0036307156   0034746302   0033416365   0032429475  
  9560.000000   0031781930   0031402795   0031280724   0031471500   0032062493  
  9550.000000   0033077767   0034385310   0035730956   0036802679   0037418356  
  9540.000000   0037605262   0037639790   0037914901   0038760636   0040261137  
  9530.000000   0042167341   0043969109   0045068814   0045022366   0043687409  
  9520.000000   0041277203   0038244865   0035116538   0032312238   0030042309  
  9510.000000   0028334689   0027088544   0026213194   0025645978   0025395582  
  9500.000000   0025462306   0025835169   0026443837   0027205516   0028025502  
  9490.000000   0028825614   0029528030   0030014941   0030149066   0029760491  
  9480.000000   0028761313   0027170694   0025184262   0023117419   0021312355  
  9470.000000   0020010504   0019250461   0018870700   0018594082   0018182137  
  9460.000000   0017554276   0016828626   0016239242   0015997379   0016156541  
  9450.000000   0016562420   0016925824   0016955122   0016522697   0015731433  
  9440.000000   0014882623   0014330582   0014308754   0014821742   0015653356  
  9430.000000   0016482243   0017049678   0017256729   0017190129   0017021957  
  9420.000000   0016878245   0016737547   0016411241   0015669210   0014384355  
  9410.000000   0012671767   0010889255   0009512061   0008944564   0009335642  
  9400.000000   0010507382   0012007451   0013254134   0013746747   0013218707  
  9390.000000   0011725050   0009600612   0007333450   0005414118   0004209847  
  9380.000000   0003902278   0004471051   0005711838   0007268541   0008714360  
  9370.000000   0009633152   0009746262   0008984634   0007523229   0005734635  
  9360.000000   0004062340   0002884243   0002373836   0002466407   0002913036  
  9350.000000   0003428531   0003824414   0004092557   0004350167   0004744032  
  9340.000000   0005311272   0005924397   0006317396   0006185137   0005330668  
  9330.000000   0003757439   0001688144  -0000521238  -0002532127  -0004121806  
  9320.000000  -0005240204  -0005943006  -0006317499  -0006405093  -0006197030  
  9310.000000  -0005713314  -0005065142  -0004516244  -0004406020  -0005065694  
  9300.000000  -0006637487  -0008998705  -0011721641  -0014218663  -0015914917  
  9290.000000  -0016444903  -0015753029  -0014054002  -0011755634  -0009268701  
  9280.000000  -0006938175  -0004936375  -0003323030  -0002083874  -0001212302  
  9270.000000  -0000729662  -0000652804  -0000991962  -0001714411  -0002815162  
  9260.000000  -0004294964  -0006210582  -0008587487  -0011391889  -0014459296  
  9250.000000  -0017488306  -0020113145  -0021987297  -0022932150  -0022973467  
  9240.000000  -0022335938  -0021324119  -0020183260  -0019009576  -0017731852  
  9230.000000  -0016221300  -0014401187  -0012371667  -0010383776  -0008779698  
  9220.000000  -0007799281  -0007484016  -0007602962  -0007768851  -0007592074  
  9210.000000  -0006858762  -0005625359  -0004163314  -0002855813  -0001993755  
  9200.000000  -0001704423  -0001886541  -0002331860  -0002813265  -0003219598  
  9190.000000  -0003558788  -0003930147  -0004433714  -0005116730  -0005954705  
  9180.000000  -0006898768  -0007930189  -0009102692  -0010496280  -0012150689  
  9170.000000  -0013968131  -0015708846  -0017048117  -0017709778  -0017593283  
  9160.000000  -0016836778  -0015800781  -0014929924  -0014586719  -0014897740  
  9150.000000  -0015737137  -0016795709  -0017725569  -0018268235  -0018343847  
  9140.000000  -0018043244  -0017546837  -0017009866  -0016509220  -0016036176  
  9130.000000  -0015565725  -0015103513  -0014731146  -0014578726  -0014783644  
  9120.000000  -0015407097  -0016403540  -0017599901  -0018782139  -0019746769  
  9110.000000  -0020372938  -0020620362  -0020508558  -0020097575  -0019435254  
  9100.000000  -0018575470  -0017557274  -0016447656  -0015311874  -0014218810  
  9090.000000  -0013203946  -0012275633  -0011423608  -0010648125  -0010004971  
  9080.000000  -0009598349  -0009571063  -0010032038  -0011011638  -0012432288  
  9070.000000  -0014112899  -0015834781  -0017396020  -0018678564  -0019643526  
  9060.000000  -0020309237  -0020708929  -0020870102  -0020812217  -0020579819  
  9050.000000  -0020272301  -0020052563  -0020089162  -0020479170  -0021181576  
  9040.000000  -0022001514  -0022629006  -0022746972  -0022165556  -0020921153  
  9030.000000  -0019273470  -0017607646  -0016312692  -0015642219  -0015666096  
  9020.000000  -0016254242  -0017195991  -0018284386  -0019417192  -0020579761  
  9010.000000  -0021810270  -0023112050  -0024400121  -0025497830  -0026173260  
  9000.000000  -0026247799  -0025641275  -0024442402  -0022835036  -0021069779  
  8990.000000  -0019366643  -0017892609  -0016744099  -0015954720  -0015543795  
  8980.000000  -0015512016  -0015866039  -0016570633  -0017569364  -0018757448  
  8970.000000  -0020024741  -0021254240  -0022366773  -0023320800  -0024099413  
  8960.000000  -0024699844  -0025104459  -0025304798  -0025281698  -0025034670  
  8950.000000  -0024571788  -0023921161  -0023114339  -0022175260  -0021132812  
  8940.000000  -0020019841  -0018907402  -0017879908  -0017051967  -0016512308  
  8930.000000  -0016310541  -0016420156  -0016749304  -0017174007  -0017560643  
  8920.000000  -0017814440  -0017874740  -0017733433  -0017394093  -0016876186  
  8910.000000  -0016207085  -0015452699  -0014726862  -0014187034  -0014010867  
  8900.000000  -0014336311  -0015211573  -0016547014  -0018135931  -0019698532  
  8890.000000  -0020967512  -0021747537  -0021963469  -0021652954  -0020937812  
  8880.000000  -0019969378  -0018889141  -0017807745  -0016816757  -0015988855  
  8870.000000  -0015388035  -0015025866  -0014865991  -0014787781  -0014640378  
  8860.000000  -0014262042  -0013563218  -0012549556  -0011332790  -0010082116  
  8850.000000  -0008947842  -0008001999  -0007198456  -0006414802  -0005505631  
  8840.000000  -0004399665  -0003131890  -0001855023  -0000766191  -0000035587  
  8830.000000   0000265753   0000190900  -0000111648  -0000452215  -0000687899  
  8820.000000  -0000763136  -0000728484  -0000692625  -0000778254  -0001060813  
  8810.000000  -0001549226  -0002171339  -0002798578  -0003270925  -0003427713  
  8800.000000  -0003142812  -0002334367  -0001000084   0000787365   0002869311  
  8790.000000   0005042780   0007105676   0008907576   0010393471   0011596038  
  8780.000000   0012617018   0013543008   0014405298   0015130081   0015588718  
  8770.000000   0015638800   0015224470   0014415020   0013416776   0012518706  
  8760.000000   0011986407   0011993786   0012542033   0013507846   0014671305  
  8750.000000   0015839632   0016887524   0017807278   0018666436   0019557204  
  8740.000000   0020532891   0021563351   0022555719   0023367779   0023892413  
  8730.000000   0024057938   0023884101   0023433735   0022821969   0022167437  
  8720.000000   0021587099   0021189565   0021067141   0021304283   0021952652  
  8710.000000   0023026213   0024485297   0026241691   0028177428   0030160465  
  8700.000000   0032072245   0033811345   0035308623   0036510842   0037401161  
  8690.000000   0037987370   0038344183   0038593675   0038912249   0039471444  
  8680.000000   0040385641   0041668456   0043198327   0044771759   0046145186  
  8670.000000   0047150413   0047745924   0048052713   0048306900   0048758532  
  8660.000000   0049573640   0050744740   0052101186   0053347402   0054192326  
  8650.000000   0054448683   0054127439   0053435636   0052714041   0052339691  
  8640.000000   0052599730   0053628777   0055364568   0057604929   0060073384  
  8630.000000   0062506715   0064708269   0066565749   0068046569   0069165828  
  8620.000000   0069970761   0070508363   0070841157   0071027410   0071151232  
  8610.000000   0071288992   0071513284   0071868635   0072362308   0072982039  
  8600.000000   0073688684   0074470998   0075331258   0076313460   0077457369  
  8590.000000   0078789876   0080286916   0081867282   0083402743   0084747959  
  8580.000000   0085789644   0086473752   0086823362   0086927743   0086910879  
  8570.000000   0086898915   0086981850   0087207166   0087580060   0088081533  
  8560.000000   0088680772   0089344046   0090025789   0090670076   0091197434  
  8550.000000   0091531795   0091617610   0091464356   0091163416   0090878995  
  8540.000000   0090809915   0091124559   0091900861   0093080963   0094478588  
  8530.000000   0095830522   0096894708   0097516262   0097695573   0097563468  
  8520.000000   0097349835   0097275216   0097481856   0097986463   0098698897  
  8510.000000   0099480640   0100217235   0100883660   0101559010   0102392661  
  8500.000000   0103528498   0105035259   0106857869   0108813448   0110642264  
  8490.000000   0112083748   0112971857   0113269850   0113088503   0112642233  
  8480.000000   0112197055   0111992096   0112183197   0112818964   0113847112  
  8470.000000   0115139108   0116521772   0117824292   0118907125   0119696958  
  8460.000000   0120183563   0120437370   0120584007   0120780588   0121173296  
  8450.000000   0121858080   0122864182   0124128182   0125517768   0126858878  
  8440.000000   0127991471   0128806089   0129265242   0129418415   0129378213  
  8430.000000   0129298239   0129318006   0129550283   0130048594   0130818711  
  8420.000000   0131804670   0132920880   0134056709   0135110475   0135991540  
  8410.000000   0136637137   0137013080   0137116178   0136974209   0136628778  
  8400.000000   0136133795   0135542471   0134914546   0134314989   0133809124  
  8390.000000   0133469030   0133349998   0133500326   0133924760   0134597516  
  8380.000000   0135444502   0136370787   0137274500   0138064968   0138680518  
  8370.000000   0139083650   0139270673   0139251841   0139054622   0138713591  
  8360.000000   0138280547   0137828671   0137446468   0137230404   0137247986  
  8350.000000   0137529644   0138036573   0138679893   0139325734   0139840320  
  8340.000000   0140121801   0140126985   0139879236   0139443056   0138902844  
  8330.000000   0138324936   0137755472   0137212714   0136713772   0136282266  
  8320.000000   0135964214   0135816801   0135886065   0136184456   0136668906  
  8310.000000   0137256520   0137843893   0138349082   0138735116   0139021657  
  8300.000000   0139270845   0139554674   0139920873   0140366196   0140840653  
  8290.000000   0141266026   0141573863   0141729019   0141735918   0141630314  
  8280.000000   0141445872   0141208511   0140913447   0140553142   0140123183  
  8270.000000   0139657121   0139217881   0138888667   0138722668   0138719961  
  8260.000000   0138798616   0138829770   0138668479   0138223119   0137485070  
  8250.000000   0136548454   0135572933   0134730587   0134135728   0133807217  
  8240.000000   0133665263   0133567522   0133370319   0132975003   0132363794  
  8230.000000   0131586568   0130735620   0129900768   0129140023   0128471803  
  8220.000000   0127887884   0127378683   0126953537   0126643613   0126488726  
  8210.000000   0126513617   0126703864   0127004418   0127323442   0127566523  
  8200.000000   0127655130   0127553428   0127265803   0126832799   0126309904  
  8190.000000   0125753754   0125205116   0124687638   0124201670   0123729952  
  8180.000000   0123236045   0122673215   0121991354   0121153321   0120144831  
  8170.000000   0118991449   0117748699   0116502155   0115331608   0114304980  
  8160.000000   0113452084   0112776239   0112257695   0111871835   0111597451  
  8150.000000   0111412570   0111286782   0111159762   0110947981   0110545972  
  8140.000000   0109877829   0108912144   0107710619   0106401037   0105164718  
  8130.000000   0104168063   0103516782   0103226278   0103217723   0103368911  
  8120.000000   0103552040   0103699244   0103806677   0103933478   0104145839  
  8110.000000   0104474476   0104876841   0105236745   0105403018   0105230705  
  8100.000000   0104644746   0103651317   0102350735   0100892614   0099437962  
  8090.000000   0098113450   0096984718   0096065826   0095325900   0094730719  
  8080.000000   0094242231   0093847491   0093532998   0093298593   0093131313  
  8070.000000   0093018345   0092941117   0092877874   0092809808   0092702716  
  8060.000000   0092519411   0092200109   0091690136   0090942337   0089952171  
  8050.000000   0088765655   0087485594   0086252523   0085208151   0084462583  
  8040.000000   0084054794   0083952803   0084053370   0084225882   0084339887  
  8030.000000   0084307934   0084095595   0083722383   0083241057   0082709797  
  8020.000000   0082173930   0081648383   0081128444   0080590539   0080017532  
  8010.000000   0079397679   0078738956   0078057708   0077377971   0076721353  
  8000.000000   0076102788   0075530847   0075006653   0074529743   0074099568  
  7990.000000   0073719013   0073397188   0073147098   0072986061   0072926132  
  7980.000000   0072969677   0073097302   0073268720   0073420884   0073488613  
  7970.000000   0073414480   0073178992   0072799188   0072337142   0071870836  
  7960.000000   0071476296   0071195662   0071028471   0070934149   0070853783  
  7950.000000   0070739062   0070573231   0070381751   0070216406   0070135234  
  7940.000000   0070170359   0070315004   0070522744   0070724147   0070857172  
  7930.000000   0070882501   0070801511   0070639817   0070438326   0070226845  
  7920.000000   0070018703   0069810230   0069592970   0069370232   0069160330  
  7910.000000   0068999796   0068922928   0068954603   0069091789   0069309590  
  7900.000000   0069565946   0069815016   0070020138   0070150565   0070187950  
  7890.000000   0070110393   0069903737   0069556112   0069079009   0068509670  
  7880.000000   0067918012   0067395019   0067030719   0066894809   0067009759  
  7870.000000   0067354643   0067861466   0068448617   0069030099   0069545365  
  7860.000000   0069954031   0070241334   0070403324   0070442704   0070365693  
  7850.000000   0070179784   0069901474   0069548222   0069142743   0068698423  
  7840.000000   0068220191   0067702985   0067136304   0066522097   0065871756  
  7830.000000   0065225033   0064628024   0064139954   0063803469   0063646661  
  7820.000000   0063666929   0063836956   0064106331   0064406541   0064662389  
  7810.000000   0064793550   0064736004   0064444135   0063917565   0063195047  
  7800.000000   0062364504   0061535913   0060822655   0060309784   0060030955  
  7790.000000   0059970178   0060062578   0060234375   0060414012   0060567689  
  7780.000000   0060688588   0060797146   0060911948   0061033399   0061132421  
  7770.000000   0061150832   0061023635   0060693652   0060140091   0059381041  
  7760.000000   0058477350   0057516820   0056592816   0055789064   0055154200  
  7750.000000   0054705176   0054416808   0054242536   0054121011   0053997990  
  7740.000000   0053836451   0053621433   0053359687   0053064734   0052752173  
  7730.000000   0052422549   0052071016   0051683438   0051259839   0050814901  
  7720.000000   0050388760   0050034265   0049801647   0049721580   0049788486  
  7710.000000   0049964799   0050187621   0050391923   0050527096   0050568748  
  7700.000000   0050518834   0050393906   0050213558   0049987455   0049716285  
  7690.000000   0049394154   0049022225   0048612668   0048192374   0047793563  
  7680.000000   0047442072   0047148540   0046902194   0046680450   0046456926  
  7670.000000   0046216628   0045961594   0045709622   0045487617   0045316732  
  7660.000000   0045206325   0045145633   0045113244   0045079894   0045027177  
  7650.000000   0044945813   0044847241   0044748831   0044675205   0044640965  
  7640.000000   0044652189   0044699907   0044769707   0044844738   0044918481  
  7630.000000   0044994504   0045091389   0045230696   0045433237   0045702500  
  7620.000000   0046026752   0046372252   0046700650   0046972213   0047166353  
  7610.000000   0047281941   0047342575   0047386303   0047455678   0047586845  
  7600.000000   0047802972   0048112952   0048514826   0048996286   0049538086  
  7590.000000   0050108800   0050668313   0051166037   0051555578   0051802527  
  7580.000000   0051904096   0051888536   0051818412   0051768332   0051812387  
  7570.000000   0051996565   0052334930   0052803514   0053358366   0053948791  
  7560.000000   0054535465   0055095416   0055622393   0056119698   0056598783  
  7550.000000   0057072350   0057562098   0058089015   0058680475   0059348615  
  7540.000000   0060094016   0060885997   0061680234   0062417948   0063059253  
  7530.000000   0063590190   0064041524   0064471868   0064953407   0065541602  
  7520.000000   0066262640   0067105535   0068038365   0069023131   0070038954  
  7510.000000   0071081518   0072161406   0073281296   0074427946   0075560139  
  7500.000000   0076627220   0077582248   0078413198   0079142136   0079829063  
  7490.000000   0080540993   0081339144   0082249180   0083266748   0084356129  
  7480.000000   0085478141   0086597115   0087698169   0088776579   0089838646  
  7470.000000   0090887348   0091930280   0092976849   0094053406   0095195142  
  7460.000000   0096447540   0097840356   0099380727   0101033802   0102738602  
  7450.000000   0104418320   0106014956   0107499706   0108886740   0110216131  
  7440.000000   0111541005   0112898672   0114304142   0115746052   0117205513  
  7430.000000   0118666140   0120127366   0121599335   0123095712   0124619043  
  7420.000000   0126154018   0127670926   0129136772   0130532949   0131862898  
  7410.000000   0133154564   0134446859   0135777085   0137165701   0138613637  
  7400.000000   0140105072   0141618738   0143136301   0144644619   0146132490  
  7390.000000   0147584125   0148977302   0150286731   0151494154   0152602495  
  7380.000000   0153641778   0154668007   0155745180   0156928097   0158241605  
  7370.000000   0159676971   0161193457   0162737473   0164256281   0165714884  
  7360.000000   0167097523   0168405717   0169650125   0170842191   0171995221  
  7350.000000   0173121072   0174238533   0175366992   0176526490   0177726706  
  7340.000000   0178961649   0180212962   0181453284   0182666975   0183852137  
  7330.000000   0185034358   0186250106   0187540412   0188923869   0190391801  
  7320.000000   0191898562   0193379373   0194760862   0195989349   0197037968  
  7310.000000   0197919494   0198673181   0199357993   0200028621   0200727385  
  7300.000000   0201468883   0202246538   0203030772   0203786731   0204476058  
  7290.000000   0205075663   0205575429   0205992058   0206357676   0206720635  
  7280.000000   0207126283   0207611582   0208191751   0208858302   0209580117  
  7270.000000   0210313560   0211017527   0211664499   0212250134   0212788926  
  7260.000000   0213312610   0213852111   0214436494   0215074220   0215765820  
  7250.000000   0216491723   0217237038   0217980465   0218718790   0219451101  
  7240.000000   0220195757   0220969914   0221801214   0222706813   0223707531  
  7230.000000   0224806956   0226012245   0227313447   0228708675   0230180922  
  7220.000000   0231721723   0233307904   0234925972   0236550765   0238174456  
  7210.000000   0239785893   0241402143   0243040611   0244741184   0246529554  
  7200.000000   0248430294   0250437058   0252532560   0254678170   0256846116  
  7190.000000   0259014779   0261196084   0263412783   0265707310   0268101691  
  7180.000000   0270603566   0273176719   0275770399   0278312196   0280755409  
  7170.000000   0283071122   0285286019   0287449071   0289644744   0291940230  
  7160.000000   0294393683   0297016349   0299801186   0302709859   0305710799  
  7150.000000   0308769567   0311876950   0315029143   0318244382   0321535290  
  7140.000000   0324924597   0328415678   0332015504   0335705499   0339472559  
  7130.000000   0343279490   0347101281   0350898363   0354654956   0358354605  
  7120.000000   0362011677   0365644845   0369295681   0372998483   0376790323  
  7110.000000   0380685392   0384689768   0388786324   0392956862   0397171241  
  7100.000000   0401409702   0405649260   0409882099   0414098654   0418303149  
  7090.000000   0422496994   0426693314   0430901749   0435139892   0439418368  
  7080.000000   0443748477   0448130105   0452559523   0457023299   0461508181  
  7070.000000   0465998945   0470486488   0474962841   0479423748   0483861423  
  7060.000000   0488266603   0492625492   0496926259   0501162679   0505340429  
  7050.000000   0509478591   0513604267   0517747685   0521927138   0526148785  
  7040.000000   0530395311   0534641800   0538852220   0543003425   0547078405  
  7030.000000   0551082780   0555027870   0558936804   0562823492   0566698722  
  7020.000000   0570554060   0574375801   0578134531   0581805771   0585360842  
  7010.000000   0588789654   0592089275   0595284582   0598408546   0601513435  
  7000.000000   0604638890   0607818298   0611047751   0614304938   0617534103  
  6990.000000   0620684948   0623706784   0626588645   0629337703   0632000164  
  6980.000000   0634618217   0637238803   0639873604   0642519888   0645142288  
  6970.000000   0647706291   0650168129   0652504191   0654691681   0656729850  
  6960.000000   0658613752   0660358626   0661976435   0663503438   0664974336  
  6950.000000   0666440011   0667934457   0669485903   0671088044   0672720571  
  6940.000000   0674334911   0675889311   0677340842   0678675817   0679892165  
  6930.000000   0681016187   0682078061   0683119198   0684168561   0685251160  
  6920.000000   0686371443   0687523726   0688681318   0689812297   0690877021  
  6910.000000   0691848772   0692710192   0693469612   0694146126   0694775751  
  6900.000000   0695388292   0696011878   0696656872   0697328505   0698020912  
  6890.000000   0698731322   0699452290   0700177047   0700888984   0701565418  
  6880.000000   0702177370   0702700299   0703122121   0703451174   0703715179  
  6870.000000   0703955901   0704216001   0704530422   0704918148   0705386381  
  6860.000000   0705932228   0706552178   0707237664   0707977397   0708746139  
  6850.000000   0709509333   0710222806   0710849352   0711369030   0711791239  
  6840.000000   0712151341   0712499105   0712877047   0713304607   0713768018  
  6830.000000   0714230676   0714644946   0714978750   0715220569   0715390312  
  6820.000000   0715518836   0715642603   0715780208   0715936986   0716101161  
  6810.000000   0716261107   0716406955   0716538890   0716656504   0716758360  
  6800.000000   0716831412   0716862710   0716839505   0716769421   0716673176  
  6790.000000   0716590779   0716555737   0716590819   0716686605   0716813234  
  6780.000000   0716922313   0716973206   0716938079   0716814209   0716610779  
  6770.000000   0716343042   0716016720   0715629789   0715175053   0714654474  
  6760.000000   0714084362   0713499501   0712939324   0712438956   0712009939  
  6750.000000   0711644973   0711316037   0710998118   0710673110   0710344739  
  6740.000000   0710026896   0709738137   0709484607   0709256495   0709027978  
  6730.000000   0708768538   0708453552   0708073244   0707632894   0707147799  
  6720.000000   0706634812   0706107677   0705574286   0705042066   0704516921  
  6710.000000   0704008157   0703519315   0703049478   0702585072   0702109212  
  6700.000000   0701603630   0701064137   0700498763   0699931803   0699386002  
  6690.000000   0698877501   0698399364   0697930115   0697435621   0696892120  
  6680.000000   0696289710   0695644046   0694979691   0694324418   0693686289  
  6670.000000   0693055505   0692400752   0691689405   0690895906   0690017247  
  6660.000000   0689067876   0688075992   0687066969   0686059425   0685057504  
  6650.000000   0684061896   0683069740   0682087887   0681124586   0680193516  
  6640.000000   0679299690   0678444118   0677617579   0676811757   0676017609  
  6630.000000   0675231399   0674448000   0673658184   0672844734   0671984330  
  6620.000000   0671056460   0670051893   0668981289   0667873765   0666768801  
  6610.000000   0665702706   0664695255   0663745967   0662835759   0661941416  
  6600.000000   0661044329   0660142100   0659243595   0658364755   0657515443  
  6590.000000   0656694822   0655890291   0655083464   0654259499   0653410728  
  6580.000000   0652540015   0651653030   0650756345   0649850615   0648934988  
  6570.000000   0648009310   0647080614   0646163079   0645275222   0644431543  
  6560.000000   0643637276   0642884246   0642156546   0641436393   0640713586  
  6550.000000   0639987661   0639266339   0638557662   0637864823   0637181823  
  6540.000000   0636500366   0635813425   0635126193   0634451657   0633808899  
  6530.000000   0633207567   0632642886   0632090195   0631516146   0630890419  
  6520.000000   0630203507   0629471417   0628734425   0628040241   0627427446  
  6510.000000   0626909532   0626471124   0626075440   0625679004   0625248781  
  6500.000000   0624771656   0624255866   0623723104   0623196801   0622692726  
  6490.000000   0622213078   0621749417   0621285269   0620805050   0620294807  
  6480.000000   0619747678   0619161386   0618540573   0617896416   0617246183  
  6470.000000   0616612844   0616018996   0615483311   0615013248   0614604290  
  6460.000000   0614239671   0613897196   0613553943   0613193734   0612807737  
  6450.000000   0612394667   0611957429   0611499120   0611023767   0610533275  
  6440.000000   0610032539   0609525083   0609016233   0608506935   0607995584  
  6430.000000   0607476644   0606945455   0606402581   0605857499   0605328827  
  6420.000000   0604840424   0604412875   0604057818   0603770390   0603533258  
  6410.000000   0603317697   0603095869   0602844004   0602551711   0602219234  
  6400.000000   0601859610   0601491702   0601138971   0600823004   0600561274  
  6390.000000   0600362045   0600222631   0600127607   0600052239   0599966606  
  6380.000000   0599844229   0599667458   0599432392   0599147023   0598827076  
  6370.000000   0598488896   0598144418   0597800382   0597459544   0597127340  
  6360.000000   0596811116   0596524450   0596276715   0596073752   0595906497  
  6350.000000   0595757831   0595601046   0595412532   0595173706   0594877928  
  6340.000000   0594525874   0594124318   0593678734   0593195032   0592677128  
  6330.000000   0592134832   0591580835   0591036163   0590518537   0590043245  
  6320.000000   0589608608   0589203407   0588800917   0588376677   0587907344  
  6310.000000   0587386025   0586814275   0586206592   0585576221   0584936892  
  6300.000000   0584292001   0583643017   0582983187   0582309538   0581614523  
  6290.000000   0580897109   0580151810   0579380159   0578579747   0577756351  
  6280.000000   0576911867   0576053247   0575178951   0574286725   0573364425  
  6270.000000   0572402076   0571387908   0570322755   0569212649   0568077499  
  6260.000000   0566935092   0565805717   0564696390   0563610238   0562538207  
  6250.000000   0561473450   0560405072   0559328700   0558236184   0557122137  
  6240.000000   0555975690   0554789620   0553557952   0552285063   0550981907  
  6230.000000   0549666867   0548356808   0547063255   0545787106   0544521453  
  6220.000000   0543254594   0541978700   0540691300   0539399422   0538112931  
  6210.000000   0536843124   0535596802   0534377401   0533187024   0532027761  
  6200.000000   0530904104   0529817397   0528764458   0527730069   0526691417  
  6190.000000   0525620866   0524500538   0523328237   0522125150   0520928123  
  6180.000000   0519780579   0518715190   0517743913   0516853247   0516011399  
  6170.000000   0515179865   0514328148   0513441203   0512522226   0511584423  
  6160.000000   0510643698   0509708236   0508778206   0507845385   0506902527  
  6150.000000   0505945521   0504980113   0504016645   0503069068   0502147483  
  6140.000000   0501256655   0500395136   0499557274   0498736310   0497926807  
  6130.000000   0497124850   0496329947   0495541728   0494763411   0493996437  
  6120.000000   0493245123   0492508695   0491787002   0491071877   0490356877  
  6110.000000   0489631493   0488894157   0488147050   0487405155   0486686139  
  6100.000000   0486012849   0485400524   0484860237   0484389829   0483983797  
  6090.000000   0483628031   0483312357   0483022119   0482749148   0482480163  
  6080.000000   0482210055   0481930114   0481644399   0481356490   0481084052  
  6070.000000   0480839553   0480641082   0480492451   0480397803   0480347922  
  6060.000000   0480339563   0480364896   0480428434   0480531463   0480683536  
  6050.000000   0480883400   0481133366   0481423768   0481753453   0482115480  
  6040.000000   0482515892   0482954961   0483440588   0483968850   0484538684  
  6030.000000   0485139502   0485769609   0486426911   0487121635   0487861287  
  6020.000000   0488655016   0489497996   0490378825   0491273407   0492160591  
  6010.000000   0493021427   0493852729   0494658433   0495453160   0496246167  
  6000.000000   0497044707   0497843348   0498636540   0499414732   0500178989  
  5990.000000   0500933135   0501691277   0502463827   0503262732   0504090775  
  5980.000000   0504952148   0505847012   0506782855   0507765872   0508806866  
  5970.000000   0509907956   0511068826   0512277553   0513523810   0514793750  
  5960.000000   0516083736   0517390273   0518717975   0520063737   0521424883  
  5950.000000   0522787679   0524142348   0525477342   0526793715   0528096548  
  5940.000000   0529400314   0530716149   0532053032   0533410899   0534786077  
  5930.000000   0536172887   0537568930   0538975748   0540396951   0541834245  
  5920.000000   0543283890   0544735686   0546176171   0547592448   0548977440  
  5910.000000   0550330066   0551654387   0552954570   0554232233   0555485816  
  5900.000000   0556712903   0557915729   0559102384   0560289341   0561493565  
  5890.000000   0562729718   0563999475   0565294465   0566594391   0567878753  
  5880.000000   0569130122   0570342130   0571517863   0572665963   0573796352  
  5870.000000   0574912098   0576013000   0577091692   0578144907   0579169513  
  5860.000000   0580171827   0581159328   0582146084   0583145255   0584174032  
  5850.000000   0585249587   0586391664   0587617718   0588940720   0590362314  
  5840.000000   0591871779   0593445195   0595051856   0596660374   0598245156  
  5830.000000   0599791167   0601291691   0602748306   0604162520   0605538212  
  5820.000000   0606874914   0608176621   0609443339   0610680643   0611883121  
  5810.000000   0613046007   0614145787   0615163396   0616067838   0616850868  
  5800.000000   0617505649   0618058308   0618530926   0618963976   0619372896  
  5790.000000   0619773552   0620149313   0620485663   0620748033   0620915710  
  5780.000000   0620960605   0620871812   0620634607   0620250365   0619721921  
  5770.000000   0619071765   0618329408   0617540958   0616751204   0616004493  
  5760.000000   0615327779   0614735153   0614222340   0613779475   0613392858  
  5750.000000   0613054127   0612758761   0612503823   0612286762   0612098993  
  5740.000000   0611934660   0611784711   0611651767   0611537963   0611456169  
  5730.000000   0611410557   0611406675   0611435331   0611488905   0611553439  
  5720.000000   0611626360   0611707484   0611807838   0611934857   0612096078  
  5710.000000   0612288005   0612504993   0612737003   0612980697   0613237174  
  5700.000000   0613514595   0613820520   0614157822   0614521166   0614896427  
  5690.000000   0615268094   0615620822   0615949146   0616251453   0616533932  
  5680.000000   0616798022   0617044385   0617263538   0617446142   0617577670  
  5670.000000   0617650266   0617654774   0617589433   0617449515   0617236949  
  5660.000000   0616952428   0616607858   0616217681   0615807381   0615398531  
  5650.000000   0615012216   0614654134   0614322515   0614002255   0613680187  
  5640.000000   0613343571   0612991945   0612629901   0612269168   0611918457  
  5630.000000   0611583477   0611263133   0610953541   0610649249   0610346449  
  5620.000000   0610042153   0609733680   0609417007   0609087708   0608742323  
  5610.000000   0608382007   0608012110   0607642805   0607282224   0606935113  
  5600.000000   0606596551   0606257457   0605905040   0605533881   0605144645  
  5590.000000   0604748973   0604358420   0603982463   0603617319   0603249934  
  5580.000000   0602858260   0602423445   0601934067   0601392990   0600812351  
  5570.000000   0600210036   0599599925   0598990335   0598381602   0597772761  
  5560.000000   0597163262   0596558466   0595965479   0595392446   0594841487  
  5550.000000   0594310172   0593790418   0593275590   0592762085   0592252575  
  5540.000000   0591752606   0591266210   0590792598   0590323879   0589849466  
  5530.000000   0589359561   0588850327   0588324926   0587790493   0587255079  
  5520.000000   0586722454   0586193763   0585667999   0585148190   0584640335  
  5510.000000   0584154029   0583693300   0583254153   0582817798   0582358408  
  5500.000000   0581847067   0581268534   0580623477   0579936098   0579238917  
  5490.000000   0578566572   0577935171   0577344152   0576771066   0576189301  
  5480.000000   0575570249   0574900084   0574171920   0573391701   0572562826  
  5470.000000   0571692133   0570781138   0569838181   0568872345   0567900400  
  5460.000000   0566933639   0565977912   0565023095   0564050390   0563035859  
  5450.000000   0561965296   0560840047   0559680922   0558519478   0557385444  
  5440.000000   0556295985   0555249582   0554235809   0553241256   0552267220  
  5430.000000   0551324593   0550436918   0549617015   0548867710   0548166315  
  5420.000000   0547487208   0546800346   0546103824   0545411502   0544768699  
  5410.000000   0544213435   0543780355   0543464289   0543247703   0543087452  
  5400.000000   0542959819   0542844327   0542756689   0542711940   0542742801  
  5390.000000   0542857082   0543064392   0543349550   0543714412   0544154069  
  5380.000000   0544691902   0545338433   0546116977   0547016489   0548030165  
  5370.000000   0549118537   0550266590   0551444575   0552666120   0553928828  
  5360.000000   0555269152   0556689627   0558224834   0559869383   0561658305  
  5350.000000   0563591245   0565714679   0568033288   0570591620   0573377843  
  5340.000000   0576418492   0579684566   0583201499   0586944912   0590951772  
  5330.000000   0595200330   0599724872   0604490373   0609521116   0614779184  
  5320.000000   0620305760   0626087318   0632196113   0638634549   0645479103  
  5310.000000   0652713256   0660385011   0668448153   0676932903   0685794505  
  5300.000000   0695077441   0704761593   0714913788   0725529572   0736674619  
  5290.000000   0748328868   0760521598   0773189946   0786311224   0799790546  
  5280.000000   0813592758   0827649396   0841971395   0856551900   0871443275  
  5270.000000   0886654036   0902193229   0918001307   0933991211   0950047915  
  5260.000000   0966063996   0981976177   0997751885   1013412447   1028960757  
  5250.000000   1044411346   1059701949   1074779008   1089515296   1103852954  
  5240.000000   1117697041   1131068385   1143944957   1156408019   1168456692  
  5230.000000   1180164295   1191495080   1202479223   1213040159   1223186380  
  5220.000000   1232840630   1242034980   1250727605   1258990119   1266811316  
  5210.000000   1274273655   1281353503   1288097841   1294439639   1300390822  
  5200.000000   1305873976   1310919014   1315487279   1319647302   1323387575  
  5190.000000   1326777411   1329791396   1332473873   1334784641   1336765037  
  5180.000000   1338388262   1339710414   1340715079   1341450262   1341883025  
  5170.000000   1342038345   1341875318   1341424374   1340669827   1339667806  
  5160.000000   1338423471   1336991417   1335361055   1333557880   1331550697  
  5150.000000   1329355262   1326952352   1324376083   1321629223   1318753581  
  5140.000000   1315750868   1312648741   1309437420   1306135072   1302734611  
  5130.000000   1299259040   1295709459   1292109224   1288456890   1284767776  
  5120.000000   1281036758   1277278107   1273493319   1269700856   1265904905  
  5110.000000   1262115705   1258325729   1254529364   1250710047   1246860886  
  5100.000000   1242975295   1239061654   1235129680   1231198299   1227280899  
  5090.000000   1223393330   1219542611   1215737209   1211976911   1208262328  
  5080.000000   1204584100   1200931873   1197286343   1193630790   1189947274  
  5070.000000   1186227942   1182469641   1178679709   1174866141   1171039975  
  5060.000000   1167206112   1163369130   1159528266   1155686459   1151845066  
  5050.000000   1148010758   1144186608   1140376159   1136575315   1132778157  
  5040.000000   1128975033   1125159517   1121330166   1117491815   1113656422  
  5030.000000   1109836093   1106044971   1102288946   1098573909   1094896109  
  5020.000000   1091257285   1087653030   1084090883   1080572476   1077113047  
  5010.000000   1073717145   1070402117   1067169335   1064034161   1060992789  
  5000.000000   1058058645   1055223761   1052500932   1049880035   1047375594  
  4990.000000   1044978981   1042710004   1040564478   1038567970   1036718240  
  4980.000000   1035041343   1033530409   1032206229   1031054135   1030089762  
  4970.000000   1029293241   1028678453   1028222981   1027940077   1027805303  
  4960.000000   1027832188   1027997535   1028320003   1028783727   1029416245  
  4950.000000   1030209422   1031194859   1032364235   1033744009   1035318714  
  4940.000000   1037106307   1039084716   1041266153   1043624898   1046169421  
  4930.000000   1048871558   1051737694   1054740778   1057890142   1061165451  
  4920.000000   1064581886   1068125152   1071810902   1075623818   1079573424  
  4910.000000   1083640898   1087831062   1092126228   1096530432   1101028535  
  4900.000000   1105621180   1110291514   1115033330   1119828523   1124668787  
  4890.000000   1129542009   1134443842   1139369510   1144314035   1149270799  
  4880.000000   1154224495   1159159941   1164050929   1168878322   1173613657  
  4870.000000   1178242594   1182742025   1187107105   1191322865   1195394845  
  4860.000000   1199316063   1203100614   1206746156   1210270450   1213670657  
  4850.000000   1216964232   1220146323   1223234732   1226224931   1229136271  
  4840.000000   1231964725   1234728186   1237419723   1240051744   1242612709  
  4830.000000   1245109372   1247527130   1249868768   1252118272   1254276619  
  4820.000000   1256330117   1258284093   1260134342   1261896795   1263578441  
  4810.000000   1265201543   1266773928   1268311314   1269811375   1271278813  
  4800.000000   1272704436   1274091642   1275435486   1276745761   1278022857  
  4790.000000   1279277911   1280509107   1281722768   1282913136   1284084555  
  4780.000000   1285231771   1286359714   1287461050   1288535162   1289566279  
  4770.000000   1290546519   1291457157   1292294854   1293051567   1293737715  
  4760.000000   1294355530   1294919201   1295425208   1295877063   1296258693  
  4750.000000   1296566943   1296786361   1296922970   1296973922   1296956535  
  4740.000000   1296872908   1296736798   1296540526   1296284501   1295950924  
  4730.000000   1295534158   1295018843   1294406324   1293693500   1292893112  
  4720.000000   1292012650   1291071249   1290080673   1289060315   1288020890  
  4710.000000   1286978182   1285939930   1284917690   1283915623   1282940808  
  4700.000000   1281993387   1281075493   1280182453   1279311190   1278454049  
  4690.000000   1277606748   1276764500   1275927475   1275097059   1274276616  
  4680.000000   1273467486   1272666565   1271865924   1271050709   1270205631  
  4670.000000   1269313665   1268366731   1267360960   1266305502   1265212411  
  4660.000000   1264102588   1262994224   1261909178   1260863928   1259877403  
  4650.000000   1258963631   1258138187   1257409789   1256784376   1256257080  
  4640.000000   1255818010   1255447703   1255127207   1254835038   1254558399  
  4630.000000   1254286212   1254017631   1253750324   1253487236   1253224821  
  4620.000000   1252960967   1252687387   1252398290   1252086236   1251748042  
  4610.000000   1251382340   1250991241   1250579698   1250153701   1249721634  
  4600.000000   1249290108   1248866342   1248452999   1248051463   1247657803  
  4590.000000   1247267580   1246873330   1246470301   1246053279   1245621538  
  4580.000000   1245173559   1244711590   1244235924   1243750403   1243257176  
  4570.000000   1242762474   1242270103   1241785474   1241307469   1240832323  
  4560.000000   1240348096   1239841355   1239296681   1238704255   1238060516  
  4550.000000   1237370471   1236645210   1235897701   1235140939   1234382202  
  4540.000000   1233628466   1232880664   1232146416   1231428257   1230739865  
  4530.000000   1230083902   1229473980   1228904777   1228386331   1227908630  
  4520.000000   1227489161   1227126810   1226857344   1226691555   1226677400  
  4510.000000   1226825223   1227181171   1227745149   1228557670   1229610620  
  4500.000000   1230943510   1232544483   1234452580   1236651294   1239177169  
  4490.000000   1242010406   1245187823   1248691112   1252558806   1256772282  
  4480.000000   1261364250   1266307205   1271619101   1277259869   1283232186  
  4470.000000   1289487477   1296017271   1302769465   1309728619   1316844325  
  4460.000000   1324100071   1331454189   1338894797   1346391397   1353933264  
  4450.000000   1361493230   1369051840   1376578883   1384045578   1391426216  
  4440.000000   1398694851   1405844458   1412861939   1419762712   1426541928  
  4430.000000   1433226428   1439805383   1446302036   1452688152   1458974564  
  4420.000000   1465112926   1471100871   1476874029   1482420298   1487665853  
  4410.000000   1492593858   1497129748   1501260745   1504925208   1508128617  
  4400.000000   1510837984   1513087850   1514878216   1516267141   1517275000  
  4390.000000   1517966481   1518367520   1518539497   1518511536   1518344023  
  4380.000000   1518074012   1517763567   1517457027   1517213281   1517076863  
  4370.000000   1517095272   1517305888   1517738694   1518418554   1519354761  
  4360.000000   1520555256   1522008215   1523702241   1525608333   1527699643  
  4350.000000   1529940874   1532302790   1534759501   1537294292   1539898164  
  4340.000000   1542564873   1545284464   1548031123   1550756375   1553382080  
  4330.000000   1555807000   1557915837   1559605211   1560800865   1561488017  
  4320.000000   1561708741   1561574761   1561226453   1560831165   1560520621  
  4310.000000   1560403998   1560516027   1560862857   1561390984   1562050102  
  4300.000000   1562767663   1563499942   1564200919   1564850701   1565427108  
  4290.000000   1565920774   1566320645   1566624721   1566834409   1566963369  
  4280.000000   1567026761   1567052268   1567057396   1567069880   1567095680  
  4270.000000   1567149014   1567215424   1567284607   1567315337   1567267929  
  4260.000000   1567080044   1566699611   1566073834   1565178548   1564010305  
  4250.000000   1562603048   1561010797   1559311062   1557578591   1555888136  
  4240.000000   1554289098   1552818391   1551482616   1550280310   1549190894  
  4230.000000   1548194955   1547266271   1546381266   1545517030   1544649358  
  4220.000000   1543761793   1542834502   1541864439   1540846359   1539797878  
  4210.000000   1538733527   1537687959   1536686743   1535766496   1534946823  
  4200.000000   1534250533   1533677934   1533232058   1532892558   1532649671  
  4190.000000   1532472600   1532353470   1532265841   1532217357   1532195877  
  4180.000000   1532228508   1532316909   1532502800   1532796948   1533250860  
  4170.000000   1533881620   1534746177   1535860722   1537275153   1538988384  
  4160.000000   1541027290   1543362046   1545995817   1548881461   1552020498  
  4150.000000   1555373794   1558960601   1562758824   1566801811   1571073587  
  4140.000000   1575607253   1580382322   1585426012   1590713888   1596269219  
  4130.000000   1602065247   1608118862   1614397671   1620909213   1627616785  
  4120.000000   1634524609   1641602259   1648863117   1656292967   1663917978  
  4110.000000   1671736121   1679774359   1688025278   1696496476   1705159787  
  4100.000000   1713997658   1722967647   1732043848   1741192889   1750403237  
  4090.000000   1759664676   1768979618   1778348579   1787769094   1797236163  
  4080.000000   1806733412   1816251329   1825767748   1835277753   1844757594  
  4070.000000   1854204686   1863587707   1872902943   1882113320   1891220849  
  4060.000000   1900189454   1909027713   1917694247   1926193899   1934473720  
  4050.000000   1942539028   1950339579   1957898268   1965175895   1972203768  
  4040.000000   1978929548   1985363976   1991426280   1997114599   2002351728  
  4030.000000   2007162836   2011503716   2015424975   2018894750   2021946342  
  4020.000000   2024512040   2026607751   2028191214   2029291760   2029870103  
  4010.000000   2030007989   2029754159   2029146784   2028089741   2026648567  
  4000.000000   2025016367  
##END= 
