##TITLE= Sample 021 By ssteindl date Montag, November 19 2018
##JCAMP-DX= 4.24
##DATA TYPE= INFRARED SPECTRUM
##ORIGIN= Exported PE Spectrum Data File
##OWNER= Sandra Steindl
##DATE= 18/11/19
##TIME= 16:35:20.00
##SPECTROMETER/DATA SYSTEM= PERKIN-ELMER Frontier FT-IR/NIR IR
##INSTRUMENT PARAMETERS=
  APODIZATION=stark
  DETECTOR=INGAAS
##RESOLUTION= 16.000000
##DELTAX= -2.000000
##XUNITS= 1/CM
##YUNITS= A
##XFACTOR= 1.00
##YFACTOR= 0.00000011920928955078
##FIRSTX= 10000.00
##LASTX= 4000.00
##NPOINTS= 3001
##FIRSTY= 0.157196
##MAXY= 0.529828
##MINY= 0.137023
##XYDATA= (X++(Y..Y))
 10000.000000   1318651   1312338   1306752   1302583   1299564  
  9990.000000   1296613   1293020   1288620   1283744   1278873  
  9980.000000   1274583   1271182   1268582   1266465   1264742  
  9970.000000   1263765   1264351   1267378   1273346   1281833  
  9960.000000   1291479   1300241   1306116   1307818   1305277  
  9950.000000   1299622   1292775   1286731   1282986   1282154  
  9940.000000   1283987   1287622   1291903   1295724   1298142  
  9930.000000   1298526   1296550   1292329   1286475   1280105  
  9920.000000   1274663   1271475   1271322   1274021   1278481  
  9910.000000   1283018   1286016   1286561   1284780   1281814  
  9900.000000   1279286   1278653   1280600   1284841   1290312  
  9890.000000   1295680   1299857   1302377   1303370   1303374  
  9880.000000   1302919   1302344   1301683   1300819   1299655  
  9870.000000   1298165   1296403   1294295   1291616   1287968  
  9860.000000   1283020   1276766   1269692   1262789   1257241  
  9850.000000   1254072   1253747   1256074   1260286   1265399  
  9840.000000   1270508   1275062   1278861   1281949   1284429  
  9830.000000   1286318   1287586   1288188   1288205   1287794  
  9820.000000   1287134   1286246   1284940   1282862   1279689  
  9810.000000   1275397   1270365   1265369   1261263   1258642  
  9800.000000   1257549   1257428   1257394   1256597   1254666  
  9790.000000   1251814   1248791   1246487   1245578   1246243  
  9780.000000   1248175   1250792   1253585   1256357   1259295  
  9770.000000   1262793   1267154   1272348   1277896   1283045  
  9760.000000   1287018   1289332   1289937   1289177   1287621  
  9750.000000   1285804   1284063   1282460   1280814   1278857  
  9740.000000   1276324   1273120   1269278   1265044   1260714  
  9730.000000   1256729   1253462   1251299   1250418   1250807  
  9720.000000   1252191   1254062   1255851   1256963   1256993  
  9710.000000   1255653   1252882   1248687   1243270   1236932  
  9700.000000   1230281   1224115   1219436   1217161   1217849  
  9690.000000   1221495   1227393   1234422   1241284   1247048  
  9680.000000   1251338   1254476   1257209   1260308   1264178  
  9670.000000   1268551   1272635   1275284   1275559   1272932  
  9660.000000   1267562   1260132   1251669   1243254   1235786  
  9650.000000   1229929   1226047   1224332   1224756   1227155  
  9640.000000   1231104   1236038   1241206   1245976   1249883  
  9630.000000   1252864   1255159   1257185   1259331   1261673  
  9620.000000   1264013   1265789   1266402   1265278   1262146  
  9610.000000   1257006   1250165   1242148   1233618   1225372  
  9600.000000   1218226   1213038   1210471   1210942   1214346  
  9590.000000   1220111   1227173   1234292   1240305   1244441  
  9580.000000   1246501   1246775   1245919   1244554   1243140  
  9570.000000   1241738   1240175   1238133   1235424   1232112  
  9560.000000   1228514   1225154   1222481   1220830   1220201  
  9550.000000   1220402   1221071   1221865   1222542   1222962  
  9540.000000   1223093   1222875   1222240   1221056   1219241  
  9530.000000   1216790   1213905   1210944   1208423   1206830  
  9520.000000   1206531   1207616   1209871   1212836   1215899  
  9510.000000   1218513   1220296   1221178   1221359   1221255  
  9500.000000   1221357   1222063   1223582   1225816   1228389  
  9490.000000   1230692   1232021   1231788   1229669   1225798  
  9480.000000   1220729   1215394   1210835   1207961   1207254  
  9470.000000   1208603   1211283   1214137   1215922   1215679  
  9460.000000   1213047   1208357   1202540   1196825   1192376  
  9450.000000   1189963   1189770   1191427   1194174   1197170  
  9440.000000   1199740   1201561   1202660   1203283   1203716  
  9430.000000   1204078   1204307   1204117   1203215   1201333  
  9420.000000   1198446   1194758   1190741   1187036   1184283  
  9410.000000   1183030   1183547   1185843   1189609   1194341  
  9400.000000   1199377   1204060   1207804   1210226   1211188  
  9390.000000   1210826   1209520   1207772   1206110   1204907  
  9380.000000   1204309   1204161   1204067   1203512   1202045  
  9370.000000   1199464   1195894   1191776   1187695   1184226  
  9360.000000   1181732   1180310   1179800   1179906   1180371  
  9350.000000   1181079   1182085   1183515   1185424   1187681  
  9340.000000   1189975   1191891   1193141   1193639   1193617  
  9330.000000   1193460   1193552   1194085   1194951   1195845  
  9320.000000   1196380   1196370   1195915   1195451   1195516  
  9310.000000   1196501   1198376   1200653   1202521   1203127  
  9300.000000   1201898   1198756   1194193   1189085   1184395  
  9290.000000   1180865   1178813   1178154   1178508   1179421  
  9280.000000   1180521   1181591   1182569   1183446   1184198  
  9270.000000   1184742   1184952   1184718   1184015   1182943  
  9260.000000   1181747   1180733   1180215   1180426   1181464  
  9250.000000   1183256   1185498   1187731   1189389   1189992  
  9240.000000   1189267   1187254   1184334   1181130   1178355  
  9230.000000   1176536   1175843   1176020   1176514   1176693  
  9220.000000   1176088   1174566   1172377   1170060   1168242  
  9210.000000   1167404   1167723   1169046   1170982   1173038  
  9200.000000   1174782   1175947   1176483   1176522   1176305  
  9190.000000   1176118   1176223   1176785   1177816   1179139  
  9180.000000   1180452   1181367   1181562   1180846   1179261  
  9170.000000   1177086   1174751   1172719   1171318   1170698  
  9160.000000   1170817   1171533   1172656   1174047   1175591  
  9150.000000   1177203   1178742   1180016   1180809   1180965  
  9140.000000   1180481   1179502   1178299   1177119   1176095  
  9130.000000   1175183   1174181   1172889   1171202   1169273  
  9120.000000   1167447   1166193   1165865   1166566   1168077  
  9110.000000   1169880   1171354   1171900   1171184   1169136  
  9100.000000   1166006   1162187   1158176   1154458   1151512  
  9090.000000   1149743   1149428   1150690   1153435   1157356  
  9080.000000   1161923   1166552   1170719   1174106   1176619  
  9070.000000   1178357   1179537   1180333   1180824   1180934  
  9060.000000   1180536   1179533   1177935   1175903   1173669  
  9050.000000   1171524   1169684   1168293   1167340   1166741  
  9040.000000   1166327   1165907   1165263   1164206   1162632  
  9030.000000   1160549   1158119   1155627   1153445   1151893  
  9020.000000   1151162   1151208   1151826   1152678   1153468  
  9010.000000   1154005   1154287   1154443   1154649   1155041  
  9000.000000   1155665   1156493   1157483   1158642   1160062  
  8990.000000   1161849   1164048   1166548   1169074   1171227  
  8980.000000   1172604   1172945   1172243   1170735   1168833  
  8970.000000   1166980   1165537   1164712   1164523   1164889  
  8960.000000   1165663   1166719   1167922   1169167   1170354  
  8950.000000   1171391   1172216   1172787   1173116   1173213  
  8940.000000   1173085   1172695   1172005   1170998   1169753  
  8930.000000   1168493   1167545   1167288   1167960   1169602  
  8920.000000   1171959   1174587   1176937   1178571   1179262  
  8910.000000   1179060   1178236   1177126   1176026   1175045  
  8900.000000   1174144   1173150   1171884   1170233   1168190  
  8890.000000   1165888   1163544   1161462   1159960   1159343  
  8880.000000   1159834   1161495   1164167   1167408   1170582  
  8870.000000   1172963   1173999   1173449   1171541   1168887  
  8860.000000   1166347   1164744   1164615   1166051   1168689  
  8850.000000   1171890   1174986   1177500   1179268   1180405  
  8840.000000   1181186   1181852   1182488   1182978   1183104  
  8830.000000   1182663   1181644   1180254   1178915   1178116  
  8820.000000   1178242   1179456   1181613   1184332   1187110  
  8810.000000   1189484   1191180   1192158   1192606   1192820  
  8800.000000   1193102   1193644   1194499   1195597   1196816  
  8790.000000   1198066   1199330   1200688   1202230   1204019  
  8780.000000   1205991   1207966   1209676   1210851   1211329  
  8770.000000   1211084   1210258   1209071   1207767   1206531  
  8760.000000   1205454   1204581   1203933   1203607   1203742  
  8750.000000   1204523   1206058   1208319   1211083   1213965  
  8740.000000   1216513   1218314   1219137   1218952   1217972  
  8730.000000   1216515   1214961   1213614   1212703   1212338  
  8720.000000   1212555   1213316   1214529   1216078   1217820  
  8710.000000   1219638   1221446   1223246   1225112   1227162  
  8700.000000   1229498   1232117   1234901   1237589   1239893  
  8690.000000   1241546   1242438   1242627   1242344   1241902  
  8680.000000   1241610   1241692   1242235   1243215   1244522  
  8670.000000   1246047   1247695   1249423   1251192   1252983  
  8660.000000   1254761   1256501   1258180   1259792   1261340  
  8650.000000   1262803   1264133   1265224   1265964   1266257  
  8640.000000   1266092   1265559   1264849   1264203   1263854  
  8630.000000   1263956   1264540   1265533   1266795   1268180  
  8620.000000   1269585   1270972   1272362   1273805   1275355  
  8610.000000   1277035   1278833   1280700   1282574   1284394  
  8600.000000   1286125   1287758   1289314   1290827   1292333  
  8590.000000   1293842   1295323   1296696   1297844   1298656  
  8580.000000   1299067   1299110   1298910   1298684   1298658  
  8570.000000   1299031   1299886   1301183   1302756   1304384  
  8560.000000   1305861   1307040   1307879   1308401   1308699  
  8550.000000   1308845   1308897   1308874   1308806   1308744  
  8540.000000   1308779   1309048   1309712   1310929   1312791  
  8530.000000   1315326   1318454   1322012   1325737   1329313  
  8520.000000   1332419   1334775   1336212   1336697   1336368  
  8510.000000   1335489   1334388   1333367   1332633   1332255  
  8500.000000   1332177   1332281   1332436   1332580   1332698  
  8490.000000   1332849   1333080   1333435   1333891   1334419  
  8480.000000   1334997   1335649   1336456   1337504   1338852  
  8470.000000   1340444   1342108   1343574   1344566   1344888  
  8460.000000   1344505   1343571   1342399   1341359   1340777  
  8450.000000   1340840   1341563   1342787   1344246   1345642  
  8440.000000   1346738   1347400   1347633   1347563   1347420  
  8430.000000   1347464   1347929   1348951   1350539   1352564  
  8420.000000   1354794   1356962   1358850   1360362   1361538  
  8410.000000   1362539   1363560   1364750   1366132   1367593  
  8400.000000   1368920   1369885   1370334   1370250   1369760  
  8390.000000   1369087   1368449   1368002   1367772   1367696  
  8380.000000   1367645   1367520   1367287   1367006   1366784  
  8370.000000   1366740   1366925   1367314   1367803   1368261  
  8360.000000   1368581   1368709   1368680   1368563   1368448  
  8350.000000   1368380   1368358   1368331   1368235   1368032  
  8340.000000   1367749   1367473   1367328   1367440   1367883  
  8330.000000   1368651   1369642   1370695   1371619   1372266  
  8320.000000   1372551   1372489   1372174   1371756   1371397  
  8310.000000   1371216   1371255   1371471   1371746   1371931  
  8300.000000   1371874   1371483   1370744   1369747   1368648  
  8290.000000   1367640   1366886   1366488   1366444   1366659  
  8280.000000   1366961   1367170   1367148   1366851   1366333  
  8270.000000   1365731   1365213   1364922   1364918   1365159  
  8260.000000   1365509   1365792   1365853   1365607   1365063  
  8250.000000   1364314   1363509   1362795   1362267   1361947  
  8240.000000   1361772   1361636   1361420   1361033   1360442  
  8230.000000   1359677   1358834   1358030   1357384   1356959  
  8220.000000   1356757   1356711   1356700   1356601   1356321  
  8210.000000   1355858   1355313   1354873   1354752   1355103  
  8200.000000   1355955   1357169   1358457   1359448   1359789  
  8190.000000   1359264   1357855   1355773   1353383   1351129  
  8180.000000   1349368   1348323   1347989   1348194   1348627  
  8170.000000   1348957   1348898   1348278   1347048   1345266  
  8160.000000   1343051   1340541   1337865   1335132   1332447  
  8150.000000   1329921   1327688   1325898   1324686   1324144  
  8140.000000   1324258   1324896   1325802   1326646   1327103  
  8130.000000   1326930   1326043   1324530   1322632   1320668  
  8120.000000   1318948   1317688   1316964   1316707   1316733  
  8110.000000   1316818   1316744   1316363   1315597   1314454  
  8100.000000   1312991   1311303   1309496   1307672   1305919  
  8090.000000   1304288   1302796   1301415   1300097   1298794  
  8080.000000   1297489   1296211   1295029   1294029   1293274  
  8070.000000   1292764   1292440   1292185   1291888   1291471  
  8060.000000   1290936   1290342   1289785   1289339   1289024  
  8050.000000   1288798   1288592   1288349   1288065   1287797  
  8040.000000   1287628   1287616   1287744   1287902   1287929  
  8030.000000   1287660   1287019   1286032   1284842   1283619  
  8020.000000   1282510   1281559   1280720   1279902   1279051  
  8010.000000   1278225   1277603   1277448   1277980   1279298  
  8000.000000   1281277   1283611   1285871   1287649   1288672  
  7990.000000   1288871   1288377   1287441   1286334   1285245  
  7980.000000   1284242   1283280   1282252   1281062   1279670  
  7970.000000   1278113   1276475   1274867   1273367   1272035  
  7960.000000   1270881   1269910   1269116   1268504   1268076  
  7950.000000   1267829   1267744   1267777   1267878   1267990  
  7940.000000   1268076   1268109   1268094   1268035   1267946  
  7930.000000   1267820   1267646   1267392   1267037   1266562  
  7920.000000   1265987   1265356   1264745   1264240   1263910  
  7910.000000   1263798   1263892   1264150   1264503   1264900  
  7900.000000   1265315   1265765   1266279   1266880   1267540  
  7890.000000   1268178   1268670   1268885   1268744   1268238  
  7880.000000   1267450   1266514   1265574   1264730   1264012  
  7870.000000   1263396   1262826   1262282   1261784   1261421  
  7860.000000   1261287   1261462   1261939   1262635   1263401  
  7850.000000   1264072   1264520   1264676   1264547   1264169  
  7840.000000   1263598   1262862   1261976   1260950   1259817  
  7830.000000   1258652   1257558   1256650   1256011   1255681  
  7820.000000   1255631   1255793   1256066   1256359   1256587  
  7810.000000   1256680   1256581   1256245   1255656   1254833  
  7800.000000   1253854   1252840   1251931   1251242   1250824  
  7790.000000   1250647   1250605   1250565   1250415   1250107  
  7780.000000   1249668   1249180   1248734   1248386   1248135  
  7770.000000   1247931   1247704   1247413   1247062   1246713  
  7760.000000   1246446   1246332   1246391   1246584   1246823  
  7750.000000   1247002   1247030   1246849   1246440   1245809  
  7740.000000   1244975   1243969   1242836   1241648   1240506  
  7730.000000   1239532   1238834   1238478   1238442   1238631  
  7720.000000   1238886   1239039   1238965   1238613   1238022  
  7710.000000   1237279   1236487   1235717   1234994   1234299  
  7700.000000   1233609   1232922   1232282   1231773   1231482  
  7690.000000   1231461   1231682   1232039   1232363   1232488  
  7680.000000   1232304   1231793   1231050   1230227   1229497  
  7670.000000   1228973   1228685   1228568   1228504   1228365  
  7660.000000   1228075   1227635   1227123   1226669   1226393  
  7650.000000   1226377   1226621   1227058   1227574   1228043  
  7640.000000   1228368   1228490   1228410   1228153   1227772  
  7630.000000   1227316   1226831   1226352   1225914   1225553  
  7620.000000   1225313   1225235   1225345   1225649   1226119  
  7610.000000   1226697   1227301   1227844   1228257   1228499  
  7600.000000   1228579   1228533   1228431   1228341   1228316  
  7590.000000   1228380   1228524   1228715   1228915   1229097  
  7580.000000   1229264   1229442   1229672   1229990   1230414  
  7570.000000   1230921   1231467   1231976   1232393   1232676  
  7560.000000   1232841   1232939   1233062   1233316   1233797  
  7550.000000   1234567   1235639   1236971   1238477   1240051  
  7540.000000   1241596   1243039   1244355   1245550   1246658  
  7530.000000   1247698   1248668   1249523   1250204   1250648  
  7520.000000   1250840   1250823   1250711   1250655   1250807  
  7510.000000   1251267   1252059   1253128   1254374   1255678  
  7500.000000   1256961   1258188   1259386   1260600   1261886  
  7490.000000   1263274   1264778   1266393   1268125   1269981  
  7480.000000   1271977   1274109   1276346   1278614   1280817  
  7470.000000   1282853   1284659   1286214   1287563   1288776  
  7460.000000   1289942   1291121   1292351   1293636   1294968  
  7450.000000   1296341   1297758   1299230   1300768   1302371  
  7440.000000   1304030   1305730   1307467   1309249   1311095  
  7430.000000   1313017   1315013   1317061   1319122   1321162  
  7420.000000   1323174   1325183   1327233   1329367   1331592  
  7410.000000   1333862   1336087   1338160   1339997   1341565  
  7400.000000   1342900   1344084   1345211   1346352   1347541  
  7390.000000   1348785   1350081   1351447   1352925   1354574  
  7380.000000   1356429   1358476   1360633   1362777   1364781  
  7370.000000   1366568   1368141   1369577   1371004   1372543  
  7360.000000   1374269   1376180   1378222   1380304   1382351  
  7350.000000   1384317   1386193   1387995   1389738   1391435  
  7340.000000   1393088   1394716   1396355   1398063   1399892  
  7330.000000   1401867   1403960   1406088   1408129   1409979  
  7320.000000   1411574   1412935   1414138   1415303   1416531  
  7310.000000   1417883   1419346   1420857   1422322   1423661  
  7300.000000   1424826   1425814   1426645   1427352   1427956  
  7290.000000   1428472   1428898   1429243   1429527   1429785  
  7280.000000   1430067   1430416   1430867   1431434   1432107  
  7270.000000   1432862   1433663   1434481   1435297   1436109  
  7260.000000   1436943   1437834   1438832   1439968   1441257  
  7250.000000   1442667   1444138   1445577   1446907   1448068  
  7240.000000   1449066   1449948   1450816   1451764   1452880  
  7230.000000   1454184   1455662   1457248   1458884   1460516  
  7220.000000   1462144   1463790   1465520   1467389   1469456  
  7210.000000   1471738   1474238   1476913   1479724   1482610  
  7200.000000   1485538   1488471   1491410   1494347   1497304  
  7190.000000   1500281   1503293   1506323   1509372   1512422  
  7180.000000   1515482   1518557   1521682   1524883   1528199  
  7170.000000   1531642   1535229   1538941   1542775   1546701  
  7160.000000   1550713   1554783   1558903   1563042   1567199  
  7150.000000   1571362   1575568   1579855   1584303   1588962  
  7140.000000   1593877   1599024   1604349   1609751   1615151  
  7130.000000   1620484   1625759   1631012   1636336   1641800  
  7120.000000   1647469   1653346   1659414   1665609   1671888  
  7110.000000   1678196   1684516   1690827   1697130   1703415  
  7100.000000   1709693   1715971   1722283   1728655   1735120  
  7090.000000   1741676   1748304   1754949   1761556   1768074  
  7080.000000   1774485   1780800   1787059   1793306   1799585  
  7070.000000   1805915   1812309   1818768   1825294   1831891  
  7060.000000   1838557   1845272   1851995   1858672   1865247  
  7050.000000   1871684   1877978   1884159   1890275   1896369  
  7040.000000   1902464   1908558   1914629   1920659   1926642  
  7030.000000   1932596   1938545   1944512   1950487   1956448  
  7020.000000   1962341   1968134   1973802   1979365   1984848  
  7010.000000   1990286   1995684   2001023   2006251   2011322  
  7000.000000   2016190   2020857   2025335   2029677   2033915  
  6990.000000   2038096   2042237   2046370   2050503   2054663  
  6980.000000   2058847   2063046   2067200   2071239   2075069  
  6970.000000   2078626   2081862   2084795   2087468   2089966  
  6960.000000   2092367   2094759   2097204   2099767   2102472  
  6950.000000   2105330   2108294   2111283   2114162   2116805  
  6940.000000   2119100   2121019   2122610   2124005   2125355  
  6930.000000   2126802   2128414   2130189   2132050   2133909  
  6920.000000   2135684   2137351   2138916   2140420   2141881  
  6910.000000   2143299   2144636   2145853   2146921   2147856  
  6900.000000   2148701   2149519   2150358   2151238   2152138  
  6890.000000   2153024   2153857   2154629   2155355   2156071  
  6880.000000   2156811   2157595   2158419   2159268   2160121  
  6870.000000   2160969   2161811   2162654   2163495   2164324  
  6860.000000   2165122   2165874   2166583   2167267   2167951  
  6850.000000   2168654   2169369   2170066   2170697   2171232  
  6840.000000   2171667   2172048   2172445   2172935   2173554  
  6830.000000   2174289   2175069   2175796   2176374   2176755  
  6820.000000   2176948   2177021   2177065   2177171   2177389  
  6810.000000   2177726   2178138   2178563   2178924   2179170  
  6800.000000   2179265   2179219   2179061   2178850   2178644  
  6790.000000   2178503   2178453   2178491   2178574   2178640  
  6780.000000   2178614   2178447   2178113   2177626   2177021  
  6770.000000   2176344   2175629   2174900   2174165   2173431  
  6760.000000   2172703   2171992   2171302   2170629   2169947  
  6750.000000   2169233   2168463   2167651   2166832   2166072  
  6740.000000   2165427   2164925   2164542   2164206   2163816  
  6730.000000   2163282   2162554   2161641   2160594   2159484  
  6720.000000   2158367   2157263   2156156   2155017   2153824  
  6710.000000   2152591   2151357   2150179   2149097   2148119  
  6700.000000   2147207   2146301   2145333   2144259   2143070  
  6690.000000   2141798   2140493   2139215   2138007   2136898  
  6680.000000   2135888   2134964   2134090   2133219   2132294  
  6670.000000   2131258   2130068   2128706   2127186   2125556  
  6660.000000   2123874   2122195   2120546   2118931   2117326  
  6650.000000   2115713   2114081   2112453   2110865   2109358  
  6640.000000   2107948   2106620   2105321   2103980   2102529  
  6630.000000   2100930   2099178   2097307   2095371   2093432  
  6620.000000   2091542   2089738   2088033   2086429   2084902  
  6610.000000   2083419   2081931   2080393   2078764   2077033  
  6600.000000   2075213   2073347   2071486   2069676   2067941  
  6590.000000   2066278   2064663   2063071   2061482   2059898  
  6580.000000   2058333   2056805   2055321   2053873   2052442  
  6570.000000   2051008   2049563   2048111   2046669   2045245  
  6560.000000   2043839   2042425   2040971   2039448   2037851  
  6550.000000   2036204   2034560   2032980   2031515   2030183  
  6540.000000   2028972   2027841   2026741   2025630   2024485  
  6530.000000   2023306   2022113   2020936   2019812   2018772  
  6520.000000   2017843   2017031   2016325   2015688   2015065  
  6510.000000   2014388   2013606   2012690   2011653   2010536  
  6500.000000   2009400   2008296   2007251   2006256   2005283  
  6490.000000   2004302   2003302   2002303   2001346   2000482  
  6480.000000   1999739   1999115   1998573   1998057   1997514  
  6470.000000   1996910   1996242   1995521   1994764   1993973  
  6460.000000   1993131   1992209   1991182   1990045   1988819  
  6450.000000   1987555   1986314   1985156   1984121   1983231  
  6440.000000   1982483   1981860   1981332   1980863   1980410  
  6430.000000   1979926   1979366   1978694   1977897   1976985  
  6420.000000   1975995   1974978   1973992   1973076   1972251  
  6410.000000   1971511   1970832   1970180   1969523   1968841  
  6400.000000   1968126   1967391   1966662   1965972   1965355  
  6390.000000   1964830   1964397   1964030   1963683   1963296  
  6380.000000   1962816   1962207   1961465   1960615   1959703  
  6370.000000   1958786   1957913   1957117   1956412   1955798  
  6360.000000   1955261   1954781   1954329   1953871   1953370  
  6350.000000   1952793   1952120   1951354   1950521   1949668  
  6340.000000   1948845   1948092   1947423   1946823   1946253  
  6330.000000   1945668   1945023   1944292   1943465   1942550  
  6320.000000   1941559   1940510   1939421   1938315   1937212  
  6310.000000   1936137   1935104   1934116   1933153   1932188  
  6300.000000   1931176   1930087   1928896   1927606   1926226  
  6290.000000   1924782   1923288   1921764   1920212   1918642  
  6280.000000   1917058   1915473   1913886   1912299   1910690  
  6270.000000   1909038   1907315   1905507   1903612   1901655  
  6260.000000   1899665   1897681   1895723   1893805   1891918  
  6250.000000   1890049   1888172   1886271   1884325   1882317  
  6240.000000   1880232   1878062   1875810   1873498   1871162  
  6230.000000   1868847   1866592   1864420   1862329   1860296  
  6220.000000   1858282   1856257   1854200   1852116   1850017  
  6210.000000   1847930   1845872   1843854   1841879   1839944  
  6200.000000   1838045   1836176   1834327   1832480   1830612  
  6190.000000   1828694   1826711   1824663   1822574   1820485  
  6180.000000   1818444   1816489   1814636   1812877   1811185  
  6170.000000   1809528   1807882   1806231   1804576   1802919  
  6160.000000   1801266   1799619   1797978   1796346   1794731  
  6150.000000   1793145   1791595   1790080   1788587   1787091  
  6140.000000   1785572   1784012   1782417   1780799   1779182  
  6130.000000   1777582   1776005   1774441   1772877   1771303  
  6120.000000   1769724   1768157   1766632   1765170   1763790  
  6110.000000   1762489   1761265   1760106   1759018   1758006  
  6100.000000   1757088   1756270   1755557   1754928   1754363  
  6090.000000   1753832   1753323   1752822   1752337   1751865  
  6080.000000   1751412   1750968   1750535   1750111   1749711  
  6070.000000   1749354   1749068   1748861   1748739   1748679  
  6060.000000   1748659   1748648   1748636   1748620   1748622  
  6050.000000   1748660   1748764   1748944   1749216   1749581  
  6040.000000   1750050   1750624   1751314   1752111   1753011  
  6030.000000   1753989   1755034   1756126   1757270   1758467  
  6020.000000   1759730   1761055   1762431   1763822   1765198  
  6010.000000   1766524   1767787   1768988   1770153   1771302  
  6000.000000   1772461   1773637   1774835   1776051   1777290  
  5990.000000   1778559   1779872   1781234   1782648   1784097  
  5980.000000   1785561   1787020   1788473   1789930   1791425  
  5970.000000   1792989   1794652   1796417   1798277   1800199  
  5960.000000   1802153   1804108   1806050   1807972   1809883  
  5950.000000   1811789   1813702   1815629   1817580   1819560  
  5940.000000   1821575   1823626   1825708   1827810   1829918  
  5930.000000   1832019   1834103   1836166   1838211   1840241  
  5920.000000   1842261   1844270   1846268   1848258   1850242  
  5910.000000   1852225   1854212   1856199   1858178   1860134  
  5900.000000   1862057   1863938   1865785   1867614   1869450  
  5890.000000   1871318   1873239   1875222   1877271   1879383  
  5880.000000   1881551   1883759   1885988   1888205   1890371  
  5870.000000   1892444   1894396   1896214   1897917   1899542  
  5860.000000   1901144   1902770   1904461   1906232   1908091  
  5850.000000   1910031   1912050   1914150   1916336   1918612  
  5840.000000   1920974   1923410   1925904   1928439   1931000  
  5830.000000   1933581   1936172   1938763   1941330   1943848  
  5820.000000   1946287   1948632   1950872   1953018   1955072  
  5810.000000   1957043   1958913   1960665   1962264   1963703  
  5800.000000   1964972   1966111   1967146   1968132   1969078  
  5790.000000   1970001   1970863   1971638   1972264   1972705  
  5780.000000   1972902   1972824   1972428   1971704   1970650  
  5770.000000   1969311   1967755   1966084   1964396   1962777  
  5760.000000   1961271   1959892   1958620   1957438   1956339  
  5750.000000   1955344   1954491   1953821   1953356   1953088  
  5740.000000   1952979   1952967   1953001   1953029   1953037  
  5730.000000   1953017   1952986   1952951   1952932   1952936  
  5720.000000   1952987   1953096   1953287   1953563   1953918  
  5710.000000   1954328   1954764   1955198   1955622   1956045  
  5700.000000   1956493   1956993   1957561   1958195   1958877  
  5690.000000   1959585   1960299   1961018   1961746   1962495  
  5680.000000   1963258   1964014   1964717   1965317   1965764  
  5670.000000   1966031   1966107   1966004   1965738   1965334  
  5660.000000   1964807   1964183   1963486   1962754   1962022  
  5650.000000   1961326   1960680   1960088   1959531   1958993  
  5640.000000   1958461   1957940   1957444   1956990   1956587  
  5630.000000   1956226   1955886   1955540   1955170   1954770  
  5620.000000   1954353   1953938   1953541   1953169   1952814  
  5610.000000   1952465   1952108   1951743   1951371   1951000  
  5600.000000   1950623   1950223   1949772   1949245   1948624  
  5590.000000   1947917   1947144   1946339   1945522   1944703  
  5580.000000   1943866   1942995   1942069   1941089   1940070  
  5570.000000   1939044   1938038   1937072   1936145   1935244  
  5560.000000   1934346   1933439   1932514   1931576   1930634  
  5550.000000   1929692   1928752   1927807   1926854   1925891  
  5540.000000   1924923   1923958   1923006   1922073   1921159  
  5530.000000   1920265   1919393   1918547   1917733   1916950  
  5520.000000   1916190   1915437   1914668   1913868   1913031  
  5510.000000   1912165   1911285   1910409   1909541   1908675  
  5500.000000   1907793   1906875   1905910   1904906   1903878  
  5490.000000   1902851   1901839   1900842   1899844   1898824  
  5480.000000   1897755   1896626   1895431   1894175   1892860  
  5470.000000   1891489   1890056   1888565   1887022   1885449  
  5460.000000   1883865   1882294   1880742   1879207   1877668  
  5450.000000   1876109   1874513   1872881   1871218   1869538  
  5440.000000   1867850   1866162   1864482   1862818   1861195  
  5430.000000   1859632   1858150   1856743   1855392   1854055  
  5420.000000   1852704   1851322   1849942   1848618   1847438  
  5410.000000   1846457   1845710   1845164   1844771   1844453  
  5400.000000   1844178   1843924   1843729   1843623   1843658  
  5390.000000   1843840   1844172   1844620   1845177   1845831  
  5380.000000   1846617   1847547   1848662   1849943   1851387  
  5370.000000   1852935   1854574   1856264   1858034   1859885  
  5360.000000   1861881   1864029   1866394   1868976   1871840  
  5350.000000   1874992   1878507   1882384   1886683   1891366  
  5340.000000   1896462   1901913   1907763   1913974   1920619  
  5330.000000   1927668   1935186   1943113   1951494   1960258  
  5320.000000   1969477   1979123   1989319   2000068   2011503  
  5310.000000   2023597   2036438   2049952   2064200   2079109  
  5300.000000   2094766   2111138   2128346   2146380   2165356  
  5290.000000   2185226   2206037   2227661   2250050   2273029  
  5280.000000   2296544   2320486   2344903   2369813   2395346  
  5270.000000   2421540   2448429   2475904   2503800   2531887  
  5260.000000   2559957   2587875   2615583   2643112   2670478  
  5250.000000   2697701   2724672   2751279   2777289   2802586  
  5240.000000   2827008   2850600   2873346   2895407   2916793  
  5230.000000   2937627   2957823   2977391   2996156   3014096  
  5220.000000   3031059   3047109   3062200   3076497   3090019  
  5210.000000   3102943   3115240   3126991   3138058   3148441  
  5200.000000   3157977   3166707   3174553   3181640   3187946  
  5190.000000   3193603   3198562   3202902   3206544   3209554  
  5180.000000   3211878   3213613   3214729   3215318   3215331  
  5170.000000   3214825   3213740   3212141   3210007   3207442  
  5160.000000   3204457   3201152   3197511   3193584   3189319  
  5150.000000   3184746   3179831   3174628   3169136   3163423  
  5140.000000   3157495   3151404   3145148   3138771   3132273  
  5130.000000   3125695   3119033   3112308   3105499   3098609  
  5120.000000   3091617   3084542   3077396   3070223   3063051  
  5110.000000   3055912   3048809   3041741   3034690   3027649  
  5100.000000   3020615   3013601   3006618   2999677   2992775  
  5090.000000   2985900   2979032   2972162   2965282   2958409  
  5080.000000   2951555   2944742   2937972   2931242   2924529  
  5070.000000   2917811   2911060   2904259   2897391   2890449  
  5060.000000   2883424   2876317   2869126   2861867   2854559  
  5050.000000   2847233   2839921   2832652   2825441   2818291  
  5040.000000   2811193   2804131   2797092   2790066   2783055  
  5030.000000   2776062   2769097   2762164   2755273   2748421  
  5020.000000   2741623   2734885   2728232   2721675   2715246  
  5010.000000   2708950   2702809   2696813   2690977   2685282  
  5000.000000   2679745   2674350   2669124   2664060   2659193  
  4990.000000   2654523   2650093   2645903   2641994   2638353  
  4980.000000   2635010   2631936   2629152   2626626   2624387  
  4970.000000   2622417   2620763   2619414   2618415   2617739  
  4960.000000   2617410   2617379   2617658   2618196   2619016  
  4950.000000   2620087   2621450   2623085   2625037   2627283  
  4940.000000   2629865   2632754   2635985   2639526   2643402  
  4930.000000   2647569   2652040   2656763   2661748   2666953  
  4920.000000   2672400   2678068   2683990   2690151   2696579  
  4910.000000   2703253   2710188   2717355   2724758   2732361  
  4900.000000   2740152   2748086   2756139   2764264   2772439  
  4890.000000   2780636   2788850   2797074   2805310   2813551  
  4880.000000   2821781   2829978   2838110   2846149   2854061  
  4870.000000   2861828   2869421   2876834   2884046   2891059  
  4860.000000   2897860   2904467   2910879   2917126   2923213  
  4850.000000   2929169   2934995   2940718   2946328   2951851  
  4840.000000   2957274   2962616   2967861   2973019   2978068  
  4830.000000   2983015   2987834   2992531   2997081   3001487  
  4820.000000   3005720   3009778   3013634   3017295   3020750  
  4810.000000   3024023   3027121   3030075   3032890   3035590  
  4800.000000   3038166   3040636   3042992   3045262   3047450  
  4790.000000   3049593   3051700   3053800   3055887   3057975  
  4780.000000   3060044   3062095   3064103   3066062   3067944  
  4770.000000   3069739   3071414   3072960   3074347   3075577  
  4760.000000   3076630   3077520   3078236   3078796   3079189  
  4750.000000   3079429   3079501   3079418   3079160   3078736  
  4740.000000   3078121   3077322   3076320   3075136   3073768  
  4730.000000   3072255   3070616   3068895   3067106   3065275  
  4720.000000   3063397   3061474   3059490   3057442   3055323  
  4710.000000   3053142   3050905   3048631   3046327   3044011  
  4700.000000   3041690   3039377   3037079   3034809   3032571  
  4690.000000   3030373   3028213   3026089   3023991   3021912  
  4680.000000   3019838   3017757   3015654   3013512   3011318  
  4670.000000   3009057   3006735   3004357   3001956   2999564  
  4660.000000   2997229   2994987   2992872   2990896   2989071  
  4650.000000   2987389   2985854   2984458   2983209   2982105  
  4640.000000   2981154   2980346   2979680   2979134   2978701  
  4630.000000   2978357   2978093   2977887   2977727   2977591  
  4620.000000   2977464   2977326   2977168   2976978   2976756  
  4610.000000   2976499   2976211   2975887   2975532   2975145  
  4600.000000   2974735   2974315   2973899   2973506   2973151  
  4590.000000   2972846   2972593   2972396   2972248   2972144  
  4580.000000   2972074   2972023   2971974   2971906   2971798  
  4570.000000   2971637   2971413   2971126   2970783   2970392  
  4560.000000   2969957   2969480   2968955   2968377   2967743  
  4550.000000   2967055   2966321   2965553   2964763   2963961  
  4540.000000   2963163   2962373   2961616   2960903   2960267  
  4530.000000   2959714   2959275   2958939   2958727   2958622  
  4520.000000   2958657   2958829   2959204   2959794   2960679  
  4510.000000   2961863   2963413   2965312   2967620   2970314  
  4500.000000   2973468   2977073   2981218   2985902   2991211  
  4490.000000   2997127   3003717   3010941   3018838   3027345  
  4480.000000   3036477   3046156   3056378   3067062   3078199  
  4470.000000   3089711   3101587   3113751   3126185   3138810  
  4460.000000   3151603   3164496   3177466   3190459   3203451  
  4450.000000   3216397   3229267   3242026   3254651   3267139  
  4440.000000   3279491   3291745   3303917   3316056   3328148  
  4430.000000   3340211   3352176   3364027   3375661   3387059  
  4420.000000   3398125   3408861   3419182   3429097   3438508  
  4410.000000   3447400   3455643   3463198   3469928   3475811  
  4400.000000   3480755   3484797   3487922   3490235   3491785  
  4390.000000   3492715   3493102   3493084   3492735   3492167  
  4380.000000   3491442   3490649   3489851   3489139   3488597  
  4370.000000   3488332   3488446   3489034   3490180   3491921  
  4360.000000   3494278   3497215   3500685   3504597   3508867  
  4350.000000   3513397   3518109   3522937   3527848   3532829  
  4340.000000   3537888   3543036   3548261   3553506   3558648  
  4330.000000   3563504   3567842   3571435   3574100   3575770  
  4320.000000   3576494   3576472   3575972   3575327   3574799  
  4310.000000   3574607   3574817   3575436   3576353   3577469  
  4300.000000   3578648   3579815   3580893   3581854   3582657  
  4290.000000   3583284   3583708   3583926   3583947   3583811  
  4280.000000   3583567   3583286   3583016   3582812   3582685  
  4270.000000   3582652   3582683   3582755   3582792   3582719  
  4260.000000   3582415   3581766   3580652   3578999   3576782  
  4250.000000   3574058   3570940   3567598   3564206   3560932  
  4240.000000   3557886   3555134   3552667   3550454   3548425  
  4230.000000   3546523   3544688   3542882   3541070   3539224  
  4220.000000   3537322   3535339   3533273   3531121   3528920  
  4210.000000   3526704   3524536   3522461   3520533   3518772  
  4200.000000   3517197   3515790   3514545   3513425   3512419  
  4190.000000   3511486   3510626   3509806   3509047   3508334  
  4180.000000   3507720   3507212   3506891   3506784   3506991  
  4170.000000   3507546   3508557   3510055   3512133   3514795  
  4160.000000   3518096   3521986   3526478   3531476   3536977  
  4150.000000   3542889   3549235   3555957   3563117   3570692  
  4140.000000   3578767   3587326   3596449   3606107   3616353  
  4130.000000   3627133   3638464   3650264   3662528   3675168  
  4120.000000   3688183   3701507   3715165   3729128   3743449  
  4110.000000   3758122   3773203   3788679   3804575   3820842  
  4100.000000   3837457   3854343   3871452   3888713   3906098  
  4090.000000   3923577   3941150   3958817   3976585   3994461  
  4080.000000   4012440   4030528   4048707   4066980   4085307  
  4070.000000   4103672   4121996   4140245   4158324   4176215  
  4060.000000   4193838   4211206   4228245   4244966   4261269  
  4050.000000   4277155   4292510   4307358   4321606   4335309  
  4040.000000   4348370   4360830   4372553   4383559   4393706  
  4030.000000   4403036   4411438   4418982   4425574   4431261  
  4020.000000   4435910   4439570   4442189   4443856   4444515  
  4010.000000   4444338   4443419   4441816   4439308   4436012  
  4000.000000   4432321  
##END= 
