##TITLE= Sample 005 By ssteindl date Montag, November 19 2018
##JCAMP-DX= 4.24
##DATA TYPE= INFRARED SPECTRUM
##ORIGIN= Exported PE Spectrum Data File
##OWNER= Sandra Steindl
##DATE= 18/11/19
##TIME= 17:23:29.00
##SPECTROMETER/DATA SYSTEM= PERKIN-ELMER Frontier FT-IR/NIR IR
##INSTRUMENT PARAMETERS=
  APODIZATION=stark
  DETECTOR=INGAAS
##RESOLUTION= 16.000000
##DELTAX= -2.000000
##XUNITS= 1/CM
##YUNITS= A
##XFACTOR= 1.00
##YFACTOR= 0.00000011920928955078
##FIRSTX= 10000.00
##LASTX= 4000.00
##NPOINTS= 3001
##FIRSTY= 0.162915
##MAXY= 0.605831
##MINY= 0.139151
##XYDATA= (X++(Y..Y))
 10000.000000   1366632   1365317   1364775   1365740   1367677  
  9990.000000   1369418   1370283   1370283   1369592   1368376  
  9980.000000   1366931   1365479   1363998   1362203   1359872  
  9970.000000   1356889   1353317   1349351   1345258   1341331  
  9960.000000   1337814   1335033   1333296   1333004   1334420  
  9950.000000   1337640   1342377   1347955   1353423   1357695  
  9940.000000   1359941   1359630   1356825   1351890   1345525  
  9930.000000   1338372   1331042   1323993   1317674   1312596  
  9920.000000   1309352   1308599   1310807   1316185   1324370  
  9910.000000   1334563   1345488   1355795   1364281   1370213  
  9900.000000   1373467   1374437   1373907   1372651   1371251  
  9890.000000   1369833   1368145   1365670   1361921   1356709  
  9880.000000   1350221   1343096   1336089   1329994   1325263  
  9870.000000   1322073   1320281   1319618   1319811   1320616  
  9860.000000   1321799   1323000   1323739   1323463   1321802  
  9850.000000   1318770   1314921   1311253   1308913   1308773  
  9840.000000   1311074   1315282   1320261   1324664   1327414  
  9830.000000   1328021   1326635   1323839   1320293   1316431  
  9820.000000   1312400   1308159   1303799   1299672   1296393  
  9810.000000   1294557   1294378   1295490   1296984   1297793  
  9800.000000   1297191   1295156   1292455   1290274   1289711  
  9790.000000   1291191   1294292   1297900   1300786   1302175  
  9780.000000   1302139   1301531   1301541   1303094   1306392  
  9770.000000   1310804   1315199   1318429   1319863   1319530  
  9760.000000   1318013   1316055   1314169   1312499   1310871  
  9750.000000   1309177   1307565   1306609   1306975   1309127  
  9740.000000   1312857   1317312   1321170   1323206   1322772  
  9730.000000   1320036   1315896   1311473   1307644   1304605  
  9720.000000   1301908   1298761   1294551   1289253   1283555  
  9710.000000   1278622   1275625   1275256   1277448   1281426  
  9700.000000   1286000   1290002   1292626   1293599   1293151  
  9690.000000   1291831   1290342   1289344   1289403   1290850  
  9680.000000   1293750   1297749   1302122   1305825   1307790  
  9670.000000   1307252   1304026   1298684   1292375   1286569  
  9660.000000   1282535   1281046   1282125   1285172   1289166  
  9650.000000   1293054   1295989   1297521   1297542   1296215  
  9640.000000   1293806   1290627   1286985   1283205   1279614  
  9630.000000   1276486   1274006   1272201   1270975   1270139  
  9620.000000   1269473   1268765   1267817   1266415   1264400  
  9610.000000   1261637   1258208   1254354   1250591   1247523  
  9600.000000   1245737   1245567   1246993   1249662   1253063  
  9590.000000   1256777   1260660   1264863   1269666   1275212  
  9580.000000   1281268   1287194   1292096   1295164   1295999  
  9570.000000   1294808   1292329   1289583   1287460   1286434  
  9560.000000   1286385   1286745   1286714   1285617   1283081  
  9550.000000   1279137   1274097   1268448   1262665   1257215  
  9540.000000   1252483   1248858   1246621   1245946   1246741  
  9530.000000   1248674   1251188   1253671   1255652   1256884  
  9520.000000   1257412   1257351   1256819   1255669   1253633  
  9510.000000   1250353   1245730   1240032   1234011   1228731  
  9500.000000   1225265   1224405   1226325   1230606   1236277  
  9490.000000   1242209   1247389   1251212   1253552   1254642  
  9480.000000   1254917   1254737   1254320   1253626   1252491  
  9470.000000   1250690   1248132   1244931   1241435   1238176  
  9460.000000   1235683   1234386   1234418   1235627   1237574  
  9450.000000   1239684   1241390   1242302   1242264   1241389  
  9440.000000   1239945   1238307   1236830   1235824   1235517  
  9430.000000   1236004   1237259   1239038   1240940   1242371  
  9420.000000   1242688   1241315   1237946   1232716   1226251  
  9410.000000   1219612   1214020   1210571   1209911   1212101  
  9400.000000   1216585   1222381   1228298   1233228   1236353  
  9390.000000   1237272   1236061   1233167   1229334   1225369  
  9380.000000   1222025   1219783   1218805   1218887   1219594  
  9370.000000   1220433   1221034   1221303   1221352   1221474  
  9360.000000   1221870   1222604   1223492   1224246   1224625  
  9350.000000   1224604   1224427   1224476   1225068   1226208  
  9340.000000   1227548   1228418   1228147   1226276   1222844  
  9330.000000   1218347   1213589   1209373   1206208   1204257  
  9320.000000   1203363   1203340   1204093   1205794   1208677  
  9310.000000   1212883   1218137   1223740   1228674   1231921  
  9300.000000   1232825   1231284   1227832   1223314   1218618  
  9290.000000   1214267   1210384   1206731   1202991   1199008  
  9280.000000   1194896   1191075   1188019   1186133   1185490  
  9270.000000   1185933   1187126   1188784   1190763   1193012  
  9260.000000   1195512   1198049   1200270   1201649   1201764  
  9250.000000   1200397   1197737   1194317   1190920   1188280  
  9240.000000   1186878   1186831   1187917   1189742   1191844  
  9230.000000   1193874   1195592   1196909   1197773   1198175  
  9220.000000   1198110   1197650   1196969   1196292   1195844  
  9210.000000   1195703   1195813   1195931   1195755   1194974  
  9200.000000   1193412   1191089   1188236   1185229   1182475  
  9190.000000   1180369   1179227   1179309   1180718   1183421  
  9180.000000   1187160   1191513   1195921   1199777   1202576  
  9170.000000   1204003   1204065   1202987   1201146   1198870  
  9160.000000   1196393   1193807   1191156   1188523   1186114  
  9150.000000   1184283   1183418   1183790   1185365   1187795  
  9140.000000   1190461   1192696   1193978   1194134   1193408  
  9130.000000   1192362   1191656   1191799   1192977   1195036  
  9120.000000   1197557   1200012   1201932   1203026   1203225  
  9110.000000   1202623   1201369   1199587   1197363   1194762  
  9100.000000   1191900   1188952   1186183   1183863   1182196  
  9090.000000   1181267   1180965   1181097   1181404   1181747  
  9080.000000   1182119   1182684   1183675   1185267   1187476  
  9070.000000   1190036   1192469   1194171   1194643   1193593  
  9060.000000   1191073   1187463   1183417   1179659   1176782  
  9050.000000   1175135   1174763   1175436   1176717   1178117  
  9040.000000   1179228   1179788   1179708   1179057   1178047  
  9030.000000   1176929   1175947   1175262   1174980   1175116  
  9020.000000   1175628   1176445   1177501   1178774   1180251  
  9010.000000   1181931   1183769   1185659   1187426   1188835  
  9000.000000   1189667   1189747   1189050   1187663   1185812  
  8990.000000   1183781   1181880   1180362   1179385   1179017  
  8980.000000   1179244   1180015   1181225   1182780   1184549  
  8970.000000   1186434   1188300   1190062   1191651   1193071  
  8960.000000   1194351   1195532   1196626   1197567   1198222  
  8950.000000   1198365   1197767   1196222   1193658   1190145  
  8940.000000   1185923   1181363   1176911   1173005   1169982  
  8930.000000   1168058   1167280   1167578   1168761   1170598  
  8920.000000   1172837   1175258   1177684   1179975   1182053  
  8910.000000   1183844   1185330   1186461   1187240   1187638  
  8900.000000   1187676   1187384   1186853   1186221   1185660  
  8890.000000   1185364   1185482   1186125   1187290   1188896  
  8880.000000   1190759   1192663   1194394   1195777   1196703  
  8870.000000   1197118   1197040   1196517   1195642   1194526  
  8860.000000   1193327   1192217   1191381   1190970   1191074  
  8850.000000   1191711   1192820   1194295   1196000   1197820  
  8840.000000   1199660   1201454   1203149   1204699   1206085  
  8830.000000   1207310   1208437   1209545   1210736   1212048  
  8820.000000   1213441   1214762   1215817   1216426   1216530  
  8810.000000   1216236   1215807   1215586   1215858   1216764  
  8800.000000   1218238   1220068   1221998   1223847   1225584  
  8790.000000   1227315   1229189   1231292   1233545   1235714  
  8780.000000   1237487   1238620   1239063   1239005   1238816  
  8770.000000   1238900   1239513   1240666   1242120   1243498  
  8760.000000   1244442   1244755   1244465   1243783   1242995  
  8750.000000   1242344   1241946   1241804   1241856   1242075  
  8740.000000   1242502   1243255   1244446   1246114   1248166  
  8730.000000   1250386   1252511   1254301   1255635   1256489  
  8720.000000   1256957   1257136   1257132   1256987   1256737  
  8710.000000   1256428   1256168   1256128   1256522   1257533  
  8700.000000   1259275   1261730   1264753   1268085   1271415  
  8690.000000   1274431   1276896   1278684   1279838   1280566  
  8680.000000   1281239   1282287   1284093   1286843   1290446  
  8670.000000   1294531   1298544   1301923   1304279   1305529  
  8660.000000   1305920   1305939   1306126   1306877   1308317  
  8650.000000   1310293   1312476   1314531   1316248   1317630  
  8640.000000   1318840   1320133   1321695   1323591   1325724  
  8630.000000   1327899   1329921   1331647   1333052   1334178  
  8620.000000   1335116   1335938   1336680   1337368   1338031  
  8610.000000   1338760   1339685   1340962   1342707   1344949  
  8600.000000   1347601   1350463   1353260   1355704   1357568  
  8590.000000   1358718   1359171   1359084   1358748   1358517  
  8580.000000   1358721   1359611   1361273   1363634   1366442  
  8570.000000   1369383   1372154   1374561   1376539   1378133  
  8560.000000   1379434   1380484   1381247   1381606   1381455  
  8550.000000   1380764   1379656   1378415   1377428   1377085  
  8540.000000   1377617   1379074   1381273   1383903   1386590  
  8530.000000   1389031   1391056   1392616   1393763   1394556  
  8520.000000   1395056   1395264   1395168   1394762   1394124  
  8510.000000   1393416   1392869   1392748   1393280   1394605  
  8500.000000   1396700   1399403   1402427   1405416   1408023  
  8490.000000   1409973   1411161   1411631   1411582   1411276  
  8480.000000   1410997   1410958   1411275   1411962   1412974  
  8470.000000   1414258   1415765   1417482   1419377   1421410  
  8460.000000   1423483   1425467   1427228   1428667   1429773  
  8450.000000   1430591   1431221   1431738   1432191   1432572  
  8440.000000   1432848   1433018   1433146   1433397   1433969  
  8430.000000   1435057   1436742   1438980   1441582   1444276  
  8420.000000   1446780   1448874   1450459   1451532   1452154  
  8410.000000   1452407   1452371   1452130   1451777   1451456  
  8400.000000   1451356   1451682   1452565   1454013   1455849  
  8390.000000   1457761   1459344   1460234   1460203   1459249  
  8380.000000   1457606   1455674   1453912   1452699   1452257  
  8370.000000   1452585   1453472   1454587   1455586   1456226  
  8360.000000   1456416   1456249   1455955   1455825   1456099  
  8350.000000   1456891   1458152   1459680   1461201   1462438  
  8340.000000   1463219   1463515   1463448   1463239   1463120  
  8330.000000   1463261   1463704   1464372   1465100   1465712  
  8320.000000   1466090   1466218   1466181   1466118   1466150  
  8310.000000   1466330   1466605   1466850   1466913   1466696  
  8300.000000   1466202   1465557   1464969   1464656   1464745  
  8290.000000   1465239   1465987   1466749   1467262   1467334  
  8280.000000   1466907   1466069   1465009   1463946   1463048  
  8270.000000   1462393   1461949   1461617   1461275   1460842  
  8260.000000   1460298   1459689   1459095   1458597   1458241  
  8250.000000   1458027   1457908   1457814   1457673   1457441  
  8240.000000   1457111   1456718   1456331   1456039   1455919  
  8230.000000   1456011   1456281   1456619   1456855   1456813  
  8220.000000   1456363   1455482   1454269   1452934   1451726  
  8210.000000   1450861   1450418   1450327   1450370   1450284  
  8200.000000   1449841   1448949   1447663   1446184   1444753  
  8190.000000   1443585   1442767   1442254   1441881   1441442  
  8180.000000   1440754   1439714   1438312   1436613   1434721  
  8170.000000   1432751   1430802   1428951   1427253   1425741  
  8160.000000   1424418   1423264   1422226   1421248   1420269  
  8150.000000   1419276   1418288   1417374   1416610   1416055  
  8140.000000   1415705   1415490   1415286   1414944   1414335  
  8130.000000   1413379   1412065   1410435   1408568   1406552  
  8120.000000   1404468   1402376   1400324   1398345   1396469  
  8110.000000   1394717   1393108   1391655   1390363   1389241  
  8100.000000   1388290   1387512   1386901   1386436   1386085  
  8090.000000   1385800   1385539   1385251   1384903   1384446  
  8080.000000   1383843   1383047   1382033   1380808   1379436  
  8070.000000   1378043   1376796   1375868   1375379   1375361  
  8060.000000   1375721   1376268   1376757   1376957   1376720  
  8050.000000   1376006   1374887   1373501   1372006   1370528  
  8040.000000   1369147   1367901   1366811   1365904   1365214  
  8030.000000   1364779   1364600   1364630   1364755   1364830  
  8020.000000   1364710   1364297   1363584   1362638   1361593  
  8010.000000   1360579   1359697   1358971   1358356   1357767  
  8000.000000   1357117   1356366   1355536   1354718   1354027  
  7990.000000   1353580   1353438   1353590   1353943   1354335  
  7980.000000   1354582   1354501   1353973   1352950   1351488  
  7970.000000   1349726   1347873   1346160   1344796   1343927  
  7960.000000   1343601   1343769   1344286   1344964   1345602  
  7950.000000   1346038   1346178   1346001   1345555   1344919  
  7940.000000   1344192   1343447   1342745   1342104   1341539  
  7930.000000   1341040   1340602   1340212   1339858   1339528  
  7920.000000   1339217   1338943   1338737   1338656   1338757  
  7910.000000   1339082   1339635   1340371   1341208   1342033  
  7900.000000   1342748   1343275   1343584   1343671   1343561  
  7890.000000   1343270   1342819   1342226   1341527   1340792  
  7880.000000   1340122   1339646   1339472   1339676   1340250  
  7870.000000   1341122   1342155   1343193   1344089   1344731  
  7860.000000   1345054   1345025   1344640   1343919   1342911  
  7850.000000   1341711   1340454   1339315   1338461   1338015  
  7840.000000   1338004   1338343   1338848   1339281   1339414  
  7830.000000   1339090   1338265   1337009   1335486   1333903  
  7820.000000   1332468   1331343   1330626   1330347   1330461  
  7810.000000   1330869   1331426   1331973   1332362   1332496  
  7800.000000   1332345   1331954   1331426   1330875   1330396  
  7790.000000   1330022   1329731   1329464   1329166   1328824  
  7780.000000   1328473   1328193   1328047   1328060   1328172  
  7770.000000   1328265   1328185   1327816   1327112   1326126  
  7760.000000   1324985   1323836   1322793   1321897   1321106  
  7750.000000   1320323   1319451   1318427   1317257   1316009  
  7740.000000   1314780   1313674   1312758   1312068   1311602  
  7730.000000   1311345   1311273   1311358   1311561   1311826  
  7720.000000   1312081   1312247   1312269   1312117   1311811  
  7710.000000   1311390   1310911   1310406   1309884   1309326  
  7700.000000   1308712   1308040   1307344   1306686   1306141  
  7690.000000   1305761   1305548   1305458   1305410   1305329  
  7680.000000   1305175   1304968   1304771   1304663   1304700  
  7670.000000   1304881   1305147   1305390   1305504   1305408  
  7660.000000   1305084   1304565   1303931   1303274   1302680  
  7650.000000   1302207   1301890   1301741   1301751   1301898  
  7640.000000   1302135   1302404   1302640   1302792   1302852  
  7630.000000   1302852   1302870   1302985   1303251   1303652  
  7620.000000   1304110   1304500   1304704   1304656   1304387  
  7610.000000   1304005   1303670   1303519   1303621   1303944  
  7600.000000   1304380   1304794   1305085   1305230   1305293  
  7590.000000   1305399   1305681   1306225   1307040   1308056  
  7580.000000   1309159   1310224   1311167   1311940   1312547  
  7570.000000   1313008   1313358   1313628   1313858   1314102  
  7560.000000   1314431   1314920   1315638   1316610   1317814  
  7550.000000   1319163   1320536   1321797   1322838   1323603  
  7540.000000   1324105   1324412   1324653   1324970   1325515  
  7530.000000   1326400   1327685   1329349   1331305   1333400  
  7520.000000   1335465   1337343   1338939   1340237   1341313  
  7510.000000   1342294   1343336   1344557   1346037   1347782  
  7500.000000   1349758   1351883   1354076   1356255   1358359  
  7490.000000   1360343   1362187   1363891   1365490   1367035  
  7480.000000   1368604   1370263   1372066   1374025   1376130  
  7470.000000   1378345   1380639   1382990   1385402   1387890  
  7460.000000   1390466   1393123   1395834   1398553   1401247  
  7450.000000   1403896   1406517   1409136   1411789   1414482  
  7440.000000   1417196   1419878   1422471   1424932   1427250  
  7430.000000   1429455   1431607   1433785   1436065   1438511  
  7420.000000   1441162   1444033   1447095   1450276   1453457  
  7410.000000   1456484   1459206   1461509   1463370   1464865  
  7400.000000   1466175   1467521   1469108   1471057   1473377  
  7390.000000   1475981   1478721   1481463   1484130   1486729  
  7380.000000   1489321   1491982   1494752   1497612   1500496  
  7370.000000   1503314   1506003   1508534   1510936   1513247  
  7360.000000   1515506   1517720   1519876   1521960   1523983  
  7350.000000   1526005   1528120   1530433   1533006   1535835  
  7340.000000   1538840   1541894   1544859   1547637   1550187  
  7330.000000   1552530   1554717   1556815   1558871   1560919  
  7320.000000   1562967   1565022   1567087   1569174   1571273  
  7310.000000   1573377   1575447   1577446   1579330   1581079  
  7300.000000   1582683   1584150   1585483   1586683   1587738  
  7290.000000   1588642   1589399   1590045   1590639   1591267  
  7280.000000   1592003   1592907   1593999   1595264   1596648  
  7270.000000   1598088   1599512   1600863   1602107   1603221  
  7260.000000   1604213   1605099   1605920   1606712   1607524  
  7250.000000   1608382   1609313   1610315   1611389   1612535  
  7240.000000   1613774   1615135   1616668   1618408   1620378  
  7230.000000   1622558   1624908   1627353   1629837   1632296  
  7220.000000   1634715   1637079   1639416   1641743   1644106  
  7210.000000   1646532   1649076   1651768   1654654   1657740  
  7200.000000   1661029   1664482   1668066   1671734   1675473  
  7190.000000   1679275   1683168   1687167   1691293   1695526  
  7180.000000   1699849   1704210   1708590   1712958   1717323  
  7170.000000   1721675   1726027   1730354   1734658   1738923  
  7160.000000   1743187   1747496   1751943   1756603   1761548  
  7150.000000   1766799   1772347   1778135   1784112   1790212  
  7140.000000   1796407   1802660   1808961   1815262   1821535  
  7130.000000   1827718   1833802   1839784   1845736   1851743  
  7120.000000   1857929   1864376   1871147   1878237   1885610  
  7110.000000   1893194   1900924   1908732   1916579   1924425  
  7100.000000   1932258   1940054   1947823   1955564   1963304  
  7090.000000   1971050   1978822   1986608   1994401   2002178  
  7080.000000   2009939   2017697   2025488   2033358   2041347  
  7070.000000   2049474   2057732   2066091   2074518   2082980  
  7060.000000   2091461   2099944   2108416   2116837   2125159  
  7050.000000   2133322   2141283   2149033   2156607   2164079  
  7040.000000   2171538   2179071   2186722   2194504   2202379  
  7030.000000   2210301   2218202   2226037   2233763   2241364  
  7020.000000   2248820   2256129   2263281   2270274   2277093  
  7010.000000   2283733   2290176   2296420   2302462   2308339  
  7000.000000   2314094   2319815   2325568   2331429   2337404  
  6990.000000   2343473   2349539   2355499   2361229   2366658  
  6980.000000   2371742   2376509   2381008   2385330   2389535  
  6970.000000   2393693   2397821   2401940   2406023   2410052  
  6960.000000   2413979   2417777   2421398   2424829   2428049  
  6950.000000   2431075   2433913   2436592   2439121   2441525  
  6940.000000   2443818   2446038   2448219   2450423   2452689  
  6930.000000   2455054   2457502   2459999   2462467   2464843  
  6920.000000   2467065   2469124   2471042   2472882   2474708  
  6910.000000   2476573   2478488   2480429   2482335   2484130  
  6900.000000   2485739   2487118   2488256   2489198   2490022  
  6890.000000   2490839   2491756   2492864   2494202   2495757  
  6880.000000   2497459   2499210   2500906   2502469   2503861  
  6870.000000   2505098   2506226   2507312   2508415   2509576  
  6860.000000   2510811   2512123   2513502   2514934   2516399  
  6850.000000   2517876   2519333   2520743   2522079   2523336  
  6840.000000   2524520   2525653   2526754   2527833   2528879  
  6830.000000   2529873   2530788   2531619   2532373   2533084  
  6820.000000   2533785   2534501   2535229   2535954   2536647  
  6810.000000   2537299   2537914   2538531   2539184   2539905  
  6800.000000   2540683   2541478   2542218   2542838   2543289  
  6790.000000   2543567   2543695   2543727   2543710   2543686  
  6780.000000   2543670   2543679   2543711   2543779   2543881  
  6770.000000   2544012   2544143   2544232   2544228   2544095  
  6760.000000   2543820   2543428   2542964   2542486   2542034  
  6750.000000   2541624   2541242   2540865   2540459   2540010  
  6740.000000   2539513   2538979   2538416   2537836   2537236  
  6730.000000   2536624   2536000   2535377   2534758   2534139  
  6720.000000   2533497   2532801   2532010   2531108   2530100  
  6710.000000   2529027   2527948   2526921   2525982   2525134  
  6700.000000   2524343   2523559   2522729   2521824   2520833  
  6690.000000   2519781   2518696   2517620   2516581   2515601  
  6680.000000   2514685   2513827   2513000   2512168   2511278  
  6670.000000   2510279   2509130   2507821   2506369   2504824  
  6660.000000   2503247   2501697   2500205   2498781   2497401  
  6650.000000   2496040   2494670   2493281   2491871   2490451  
  6640.000000   2489023   2487588   2486133   2484648   2483124  
  6630.000000   2481565   2479976   2478371   2476753   2475126  
  6620.000000   2473483   2471820   2470130   2468413   2466668  
  6610.000000   2464893   2463084   2461237   2459357   2457459  
  6600.000000   2455563   2453693   2451864   2450075   2448313  
  6590.000000   2446561   2444807   2443058   2441336   2439668  
  6580.000000   2438069   2436535   2435037   2433536   2432003  
  6570.000000   2430429   2428838   2427267   2425758   2424323  
  6560.000000   2422949   2421599   2420233   2418831   2417408  
  6550.000000   2416004   2414666   2413425   2412275   2411176  
  6540.000000   2410076   2408929   2407726   2406489   2405267  
  6530.000000   2404101   2403013   2401984   2400977   2399947  
  6520.000000   2398870   2397743   2396592   2395452   2394348  
  6510.000000   2393294   2392289   2391333   2390433   2389608  
  6500.000000   2388880   2388258   2387723   2387229   2386715  
  6490.000000   2386123   2385421   2384606   2383706   2382757  
  6480.000000   2381791   2380819   2379839   2378846   2377842  
  6470.000000   2376848   2375894   2375014   2374223   2373520  
  6460.000000   2372880   2372274   2371674   2371059   2370418  
  6450.000000   2369738   2369006   2368202   2367315   2366349  
  6440.000000   2365335   2364317   2363348   2362461   2361658  
  6430.000000   2360908   2360164   2359383   2358546   2357673  
  6420.000000   2356810   2356008   2355307   2354713   2354210  
  6410.000000   2353759   2353328   2352893   2352451   2352000  
  6400.000000   2351540   2351066   2350569   2350046   2349511  
  6390.000000   2348989   2348512   2348094   2347731   2347385  
  6380.000000   2347008   2346555   2346009   2345390   2344749  
  6370.000000   2344148   2343635   2343231   2342918   2342658  
  6360.000000   2342404   2342122   2341794   2341415   2340985  
  6350.000000   2340504   2339966   2339373   2338734   2338075  
  6340.000000   2337431   2336830   2336285   2335783   2335287  
  6330.000000   2334758   2334159   2333479   2332724   2331926  
  6320.000000   2331114   2330320   2329558   2328839   2328159  
  6310.000000   2327517   2326898   2326286   2325641   2324928  
  6300.000000   2324098   2323129   2322006   2320752   2319392  
  6290.000000   2317963   2316476   2314939   2313331   2311643  
  6280.000000   2309860   2307990   2306039   2304017   2301915  
  6270.000000   2299725   2297424   2295019   2292529   2290015  
  6260.000000   2287543   2285185   2282974   2280913   2278958  
  6250.000000   2277050   2275122   2273133   2271056   2268892  
  6240.000000   2266647   2264331   2261954   2259527   2257070  
  6230.000000   2254616   2252197   2249843   2247560   2245333  
  6220.000000   2243127   2240906   2238642   2236334   2233995  
  6210.000000   2231653   2229329   2227031   2224747   2222460  
  6200.000000   2220153   2217822   2215480   2213145   2210835  
  6190.000000   2208557   2206309   2204085   2201883   2199711  
  6180.000000   2197587   2195528   2193539   2191611   2189719  
  6170.000000   2187834   2185936   2184022   2182106   2180212  
  6160.000000   2178358   2176546   2174760   2172968   2171143  
  6150.000000   2169269   2167351   2165410   2163478   2161581  
  6140.000000   2159738   2157951   2156216   2154524   2152869  
  6130.000000   2151250   2149667   2148116   2146595   2145099  
  6120.000000   2143627   2142179   2140763   2139383   2138044  
  6110.000000   2136739   2135464   2134206   2132969   2131755  
  6100.000000   2130586   2129477   2128445   2127489   2126603  
  6090.000000   2125768   2124975   2124217   2123508   2122862  
  6080.000000   2122304   2121840   2121472   2121176   2120931  
  6070.000000   2120703   2120481   2120254   2120041   2119859  
  6060.000000   2119740   2119699   2119759   2119913   2120163  
  6050.000000   2120484   2120870   2121302   2121783   2122314  
  6040.000000   2122918   2123606   2124405   2125325   2126380  
  6030.000000   2127569   2128893   2130342   2131910   2133576  
  6020.000000   2135324   2137121   2138939   2140740   2142505  
  6010.000000   2144211   2145859   2147447   2148992   2150500  
  6000.000000   2151989   2153464   2154947   2156452   2158006  
  5990.000000   2159624   2161322   2163094   2164934   2166821  
  5980.000000   2168747   2170704   2172710   2174780   2176937  
  5970.000000   2179186   2181520   2183915   2186346   2188789  
  5960.000000   2191242   2193711   2196216   2198765   2201358  
  5950.000000   2203968   2206565   2209105   2211567   2213943  
  5940.000000   2216254   2218532   2220819   2223146   2225534  
  5930.000000   2227988   2230504   2233068   2235668   2238288  
  5920.000000   2240915   2243535   2246136   2248708   2251249  
  5910.000000   2253760   2256244   2258704   2261142   2263556  
  5900.000000   2265946   2268318   2270686   2273070   2275491  
  5890.000000   2277967   2280502   2283086   2285695   2288299  
  5880.000000   2290868   2293377   2295812   2298164   2300436  
  5870.000000   2302631   2304764   2306846   2308902   2310951  
  5860.000000   2313019   2315117   2317259   2319449   2321702  
  5850.000000   2324031   2326463   2329027   2331746   2334629  
  5840.000000   2337668   2340831   2344080   2347374   2350679  
  5830.000000   2353975   2357245   2360482   2363666   2366778  
  5820.000000   2369786   2372673   2375417   2378017   2380463  
  5810.000000   2382762   2384891   2386845   2388593   2390143  
  5800.000000   2391487   2392673   2393725   2394702   2395607  
  5790.000000   2396458   2397209   2397831   2398253   2398442  
  5780.000000   2398348   2397960   2397265   2396282   2395033  
  5770.000000   2393575   2391963   2390277   2388581   2386937  
  5760.000000   2385379   2383929   2382587   2381358   2380246  
  5750.000000   2379260   2378411   2377696   2377104   2376604  
  5740.000000   2376170   2375773   2375410   2375082   2374810  
  5730.000000   2374599   2374457   2374360   2374292   2374227  
  5720.000000   2374166   2374113   2374097   2374138   2374257  
  5710.000000   2374450   2374712   2375028   2375399   2375829  
  5700.000000   2376336   2376929   2377607   2378348   2379116  
  5690.000000   2379872   2380585   2381245   2381854   2382430  
  5680.000000   2382980   2383508   2383997   2384429   2384777  
  5670.000000   2385027   2385163   2385180   2385066   2384818  
  5660.000000   2384428   2383909   2383281   2382589   2381877  
  5650.000000   2381189   2380542   2379938   2379348   2378746  
  5640.000000   2378103   2377413   2376683   2375938   2375201  
  5630.000000   2374493   2373823   2373196   2372614   2372080  
  5620.000000   2371592   2371147   2370731   2370323   2369901  
  5610.000000   2369450   2368969   2368471   2367975   2367497  
  5600.000000   2367040   2366590   2366121   2365610   2365041  
  5590.000000   2364417   2363747   2363047   2362315   2361545  
  5580.000000   2360712   2359802   2358810   2357758   2356676  
  5570.000000   2355601   2354553   2353535   2352523   2351488  
  5560.000000   2350401   2349253   2348053   2346826   2345599  
  5550.000000   2344394   2343219   2342074   2340953   2339856  
  5540.000000   2338783   2337743   2336738   2335769   2334829  
  5530.000000   2333912   2333011   2332128   2331261   2330408  
  5520.000000   2329559   2328696   2327799   2326852   2325853  
  5510.000000   2324812   2323747   2322677   2321610   2320548  
  5500.000000   2319481   2318405   2317317   2316232   2315155  
  5490.000000   2314096   2313035   2311946   2310783   2309515  
  5480.000000   2308119   2306602   2304984   2303303   2301583  
  5470.000000   2299846   2298093   2296326   2294539   2292740  
  5460.000000   2290927   2289099   2287240   2285327   2283333  
  5450.000000   2281249   2279079   2276858   2274629   2272433  
  5440.000000   2270295   2268217   2266191   2264205   2262265  
  5430.000000   2260382   2258583   2256871   2255241   2253655  
  5420.000000   2252084   2250501   2248928   2247407   2246020  
  5410.000000   2244822   2243854   2243093   2242503   2242015  
  5400.000000   2241599   2241234   2240951   2240774   2240746  
  5390.000000   2240863   2241127   2241506   2242002   2242606  
  5380.000000   2243357   2244267   2245365   2246622   2248021  
  5370.000000   2249500   2251049   2252639   2254317   2256097  
  5360.000000   2258058   2260210   2262616   2265264   2268215  
  5350.000000   2271463   2275087   2279084   2283526   2288383  
  5340.000000   2293703   2299437   2305642   2312287   2319453  
  5330.000000   2327104   2335305   2343980   2353167   2362780  
  5320.000000   2372882   2383435   2394559   2406248   2418638  
  5310.000000   2431698   2445532   2460075   2475414   2491493  
  5300.000000   2508416   2526153   2544823   2564402   2584993  
  5290.000000   2606539   2629087   2652519   2676805   2701779  
  5280.000000   2727398   2753544   2780250   2807505   2835403  
  5270.000000   2863945   2893131   2922822   2952835   2982938  
  5260.000000   3012932   3042711   3072240   3101585   3130772  
  5250.000000   3159830   3188626   3217031   3244773   3271721  
  5240.000000   3297688   3322728   3346825   3370165   3392771  
  5230.000000   3414789   3436143   3456860   3476762   3495830  
  5220.000000   3513896   3531012   3547108   3562336   3576696  
  5210.000000   3590365   3603316   3615651   3627250   3638139  
  5200.000000   3648174   3657410   3665773   3673389   3680231  
  5190.000000   3686424   3691913   3696773   3700924   3704438  
  5180.000000   3707267   3709520   3711173   3712323   3712915  
  5170.000000   3712996   3712490   3711450   3709842   3707768  
  5160.000000   3705238   3702357   3699113   3695561   3691649  
  5150.000000   3687410   3682811   3677911   3672711   3667283  
  5140.000000   3661624   3655781   3649732   3643511   3637104  
  5130.000000   3630554   3623865   3617080   3610199   3603253  
  5120.000000   3596237   3589180   3582094   3575013   3567949  
  5110.000000   3560918   3553905   3546897   3539871   3532822  
  5100.000000   3525759   3518713   3511718   3504805   3497986  
  5090.000000   3491255   3484585   3477948   3471316   3464673  
  5080.000000   3458013   3451340   3444652   3437953   3431237  
  5070.000000   3424510   3417774   3411044   3404327   3397637  
  5060.000000   3390962   3384293   3377598   3370854   3364033  
  5050.000000   3357130   3350139   3343074   3335940   3328752  
  5040.000000   3321518   3314251   3306961   3299667   3292387  
  5030.000000   3285138   3277930   3270764   3263637   3256540  
  5020.000000   3249478   3242456   3235500   3228633   3221893  
  5010.000000   3215291   3208855   3202574   3196463   3190502  
  5000.000000   3184712   3179082   3173644   3168390   3163354  
  4990.000000   3158522   3153926   3149552   3145441   3141589  
  4980.000000   3138050   3134818   3131945   3129412   3127256  
  4970.000000   3125437   3123983   3122847   3122053   3121557  
  4960.000000   3121390   3121516   3121981   3122762   3123919  
  4950.000000   3125436   3127370   3129691   3132430   3135533  
  4940.000000   3139010   3142799   3146913   3151304   3156003  
  4930.000000   3160977   3166262   3171823   3177689   3183818  
  4920.000000   3190230   3196887   3203809   3210965   3218377  
  4910.000000   3226021   3233919   3242048   3250420   3259004  
  4900.000000   3267797   3276759   3285874   3295103   3304433  
  4890.000000   3313838   3323312   3332841   3342415   3352018  
  4880.000000   3361627   3371215   3380749   3390202   3399535  
  4870.000000   3408724   3417730   3426540   3435123   3443485  
  4860.000000   3451620   3459558   3467308   3474907   3482357  
  4850.000000   3489683   3496866   3503918   3510813   3517561  
  4840.000000   3524141   3530571   3536832   3542949   3548911  
  4830.000000   3554747   3560452   3566054   3571537   3576911  
  4820.000000   3582138   3587209   3592081   3596754   3601212  
  4810.000000   3605482   3609568   3613506   3617294   3620949  
  4800.000000   3624456   3627825   3631046   3634144   3637127  
  4790.000000   3640031   3642858   3645633   3648343   3650994  
  4780.000000   3653570   3656081   3658514   3660884   3663176  
  4770.000000   3665396   3667519   3669545   3671447   3673227  
  4760.000000   3674865   3676367   3677707   3678887   3679876  
  4750.000000   3680677   3681265   3681655   3681833   3681823  
  4740.000000   3681610   3681212   3680611   3679820   3678828  
  4730.000000   3677661   3676323   3674848   3673244   3671539  
  4720.000000   3669731   3667839   3665861   3663817   3661712  
  4710.000000   3659573   3657407   3655236   3653059   3650888  
  4700.000000   3648720   3646566   3644428   3642318   3640240  
  4690.000000   3638197   3636184   3634190   3632196   3630184  
  4680.000000   3628133   3626023   3623842   3621574   3619219  
  4670.000000   3616778   3614270   3611718   3609165   3606645  
  4660.000000   3604207   3601880   3599700   3597679   3595835  
  4650.000000   3594171   3592695   3591402   3590295   3589359  
  4640.000000   3588587   3587956   3587459   3587072   3586793  
  4630.000000   3586603   3586494   3586438   3586415   3586386  
  4620.000000   3586328   3586215   3586046   3585821   3585562  
  4610.000000   3585281   3584998   3584719   3584450   3584191  
  4600.000000   3583947   3583728   3583549   3583425   3583370  
  4590.000000   3583389   3583475   3583620   3583803   3584009  
  4580.000000   3584217   3584416   3584589   3584729   3584825  
  4570.000000   3584872   3584867   3584807   3584689   3584508  
  4560.000000   3584253   3583916   3583485   3582960   3582348  
  4550.000000   3581667   3580939   3580188   3579433   3578677  
  4540.000000   3577923   3577158   3576385   3575601   3574835  
  4530.000000   3574102   3573452   3572902   3572505   3572266  
  4520.000000   3572232   3572398   3572821   3573494   3574482  
  4510.000000   3575780   3577456   3579497   3581972   3584861  
  4500.000000   3588239   3592086   3596482   3601411   3606959  
  4490.000000   3613110   3619949   3627451   3635683   3644597  
  4480.000000   3654229   3664505   3675432   3686925   3698977  
  4470.000000   3711503   3724485   3737836   3751519   3765438  
  4460.000000   3779544   3793742   3807980   3822181   3836304  
  4450.000000   3850292   3864115   3877742   3891156   3904359  
  4440.000000   3917347   3930149   3942764   3955236   3967552  
  4430.000000   3979755   3991815   4003769   4015562   4027215  
  4420.000000   4038640   4049833   4060673   4071131   4081069  
  4410.000000   4090448   4099127   4107077   4114176   4120418  
  4400.000000   4125725   4130138   4133639   4136322   4138223  
  4390.000000   4139468   4140126   4140332   4140166   4139757  
  4380.000000   4139191   4138588   4138035   4137639   4137486  
  4370.000000   4137668   4138261   4139330   4140928   4143074  
  4360.000000   4145779   4149006   4152717   4156833   4161286  
  4350.000000   4165989   4170876   4175893   4181009   4186211  
  4340.000000   4191499   4196868   4202287   4207685   4212930  
  4330.000000   4217840   4222195   4225788   4228451   4230130  
  4320.000000   4230874   4230878   4230399   4229760   4229220  
  4310.000000   4229002   4229178   4229764   4230651   4231741  
  4300.000000   4232882   4233992   4234978   4235809   4236444  
  4290.000000   4236875   4237086   4237080   4236866   4236475  
  4280.000000   4235940   4235317   4234642   4233974   4233335  
  4270.000000   4232772   4232279   4231862   4231460   4231005  
  4260.000000   4230368   4229425   4228038   4226122   4223641  
  4250.000000   4220643   4217231   4213570   4209827   4206170  
  4240.000000   4202713   4199536   4196646   4194024   4191604  
  4230.000000   4189318   4187085   4184840   4182527   4180110  
  4220.000000   4177581   4174944   4172232   4169477   4166735  
  4210.000000   4164043   4161448   4158973   4156647   4154474  
  4200.000000   4152469   4150623   4148943   4147403   4146001  
  4190.000000   4144695   4143478   4142304   4141181   4140076  
  4180.000000   4139033   4138051   4137214   4136558   4136203  
  4170.000000   4136210   4136712   4137756   4139449   4141784  
  4160.000000   4144809   4148452   4152715   4157499   4162809  
  4150.000000   4168566   4174807   4181484   4188661   4196299  
  4140.000000   4204470   4213136   4222363   4232111   4242433  
  4130.000000   4253273   4264662   4276528   4288887   4301670  
  4120.000000   4314900   4328532   4342604   4357085   4372012  
  4110.000000   4387346   4403106   4419243   4435757   4452589  
  4100.000000   4469726   4487109   4504718   4522503   4540446  
  4090.000000   4558515   4576696   4594966   4613304   4631695  
  4080.000000   4650120   4668584   4687080   4705633   4724231  
  4070.000000   4742886   4761539   4780170   4798676   4817025  
  4060.000000   4835109   4852916   4870341   4887382   4903927  
  4050.000000   4919980   4935433   4950324   4964568   4978230  
  4040.000000   4991213   5003562   5015137   5025961   5035886  
  4030.000000   5044961   5053071   5060287   5066505   5071769  
  4020.000000   5075933   5079047   5081059   5082074   5082052  
  4010.000000   5081188   5079588   5077324   5074183   5070277  
  4000.000000   5065984  
##END= 
