##TITLE= Sample 001 By ssteindl date Montag, November 19 2018
##JCAMP-DX= 4.24
##DATA TYPE= INFRARED SPECTRUM
##ORIGIN= Exported PE Spectrum Data File
##OWNER= Sandra Steindl
##DATE= 18/11/19
##TIME= 17:14:52.00
##SPECTROMETER/DATA SYSTEM= PERKIN-ELMER Frontier FT-IR/NIR IR
##INSTRUMENT PARAMETERS=
  APODIZATION=stark
  DETECTOR=INGAAS
##RESOLUTION= 16.000000
##DELTAX= -2.000000
##XUNITS= 1/CM
##YUNITS= A
##XFACTOR= 1.00
##YFACTOR= 0.00000011920928955078
##FIRSTX= 10000.00
##LASTX= 4000.00
##NPOINTS= 3001
##FIRSTY= 0.190927
##MAXY= 0.622842
##MINY= 0.165171
##XYDATA= (X++(Y..Y))
 10000.000000   1601613   1599481   1597539   1596251   1596034  
  9990.000000   1596968   1598736   1600661   1602017   1602098  
  9980.000000   1600465   1596918   1591676   1585265   1578472  
  9970.000000   1572188   1567242   1564293   1563674   1565391  
  9960.000000   1569116   1574311   1580289   1586359   1591818  
  9950.000000   1596035   1598476   1598797   1597021   1593549  
  9940.000000   1589233   1585071   1581988   1580429   1580229  
  9930.000000   1580655   1580689   1579491   1576700   1572690  
  9920.000000   1568354   1564849   1563072   1563404   1565565  
  9910.000000   1568822   1572272   1575168   1577073   1577881  
  9900.000000   1577672   1576598   1574797   1572413   1569675  
  9890.000000   1566881   1564366   1562302   1560614   1558899  
  9880.000000   1556592   1553214   1548628   1543221   1537789  
  9870.000000   1533305   1530530   1529742   1530690   1532719  
  9860.000000   1535105   1537272   1538941   1540046   1540612  
  9850.000000   1540609   1539993   1538775   1537221   1535850  
  9840.000000   1535338   1536209   1538528   1541774   1544929  
  9830.000000   1546880   1546867   1544827   1541480   1537986  
  9820.000000   1535498   1534556   1534909   1535560   1535301  
  9810.000000   1533276   1529413   1524556   1520079   1517476  
  9800.000000   1517716   1521086   1527071   1534670   1542698  
  9790.000000   1550040   1555882   1559611   1560883   1559477  
  9780.000000   1555423   1549036   1541039   1532525   1524787  
  9770.000000   1519056   1516154   1516377   1519344   1524273  
  9760.000000   1530036   1535566   1539921   1542495   1543047  
  9750.000000   1541670   1538815   1535066   1531119   1527471  
  9740.000000   1524413   1521879   1519615   1517306   1514817  
  9730.000000   1512345   1510375   1509569   1510417   1513043  
  9720.000000   1517038   1521584   1525744   1528750   1530331  
  9710.000000   1530685   1530422   1530199   1530514   1531496  
  9700.000000   1532942   1534475   1535734   1536577   1537061  
  9690.000000   1537464   1538031   1538977   1540295   1541886  
  9680.000000   1543523   1544965   1545967   1546257   1545561  
  9670.000000   1543593   1540148   1535200   1528977   1522012  
  9660.000000   1515043   1508908   1504319   1501762   1501327  
  9650.000000   1502770   1505474   1508672   1511542   1513430  
  9640.000000   1513998   1513242   1511549   1509414   1507398  
  9630.000000   1505743   1504425   1503033   1501068   1498140  
  9620.000000   1494256   1489958   1486179   1484072   1484504  
  9610.000000   1487857   1493741   1501174   1508795   1515273  
  9600.000000   1519649   1521478   1520893   1518365   1514544  
  9590.000000   1509986   1505106   1500150   1495307   1490783  
  9580.000000   1486834   1483747   1481714   1480813   1480886  
  9570.000000   1481643   1482641   1483452   1483730   1483303  
  9560.000000   1482238   1480784   1479340   1478295   1477937  
  9550.000000   1478330   1479309   1480518   1481545   1482048  
  9540.000000   1481884   1481118   1479984   1478756   1477623  
  9530.000000   1476598   1475527   1474178   1472390   1470189  
  9520.000000   1467828   1465722   1464284   1463792   1464238  
  9510.000000   1465366   1466730   1467879   1468481   1468413  
  9500.000000   1467767   1466750   1465622   1464542   1463576  
  9490.000000   1462630   1461564   1460209   1458501   1456466  
  9480.000000   1454281   1452198   1450519   1449527   1449408  
  9470.000000   1450239   1451918   1454242   1456916   1459697  
  9460.000000   1462403   1464994   1467494   1469941   1472307  
  9450.000000   1474429   1476061   1476859   1476549   1474918  
  9440.000000   1471959   1467824   1462845   1457474   1452197  
  9430.000000   1447537   1443915   1441715   1441126   1442218  
  9420.000000   1444827   1448633   1453132   1457713   1461729  
  9410.000000   1464571   1465819   1465248   1462979   1459363  
  9400.000000   1455024   1450654   1446905   1444236   1442789  
  9390.000000   1442467   1442938   1443886   1445031   1446277  
  9380.000000   1447612   1449083   1450641   1452067   1452968  
  9370.000000   1452850   1451347   1448333   1444075   1439124  
  9360.000000   1434225   1430070   1427161   1425667   1425429  
  9350.000000   1426043   1427002   1427854   1428283   1428163  
  9340.000000   1427555   1426691   1425941   1425734   1426443  
  9330.000000   1428237   1431008   1434344   1437664   1440349  
  9320.000000   1441989   1442469   1442042   1441173   1440344  
  9310.000000   1439837   1439616   1439406   1438862   1437819  
  9300.000000   1436409   1435113   1434540   1435207   1437213  
  9290.000000   1440204   1443423   1445989   1447197   1446723  
  9280.000000   1444744   1441786   1438555   1435634   1433348  
  9270.000000   1431737   1430654   1429917   1429396   1429103  
  9260.000000   1429129   1429621   1430637   1432162   1434041  
  9250.000000   1436066   1437982   1439532   1440512   1440764  
  9240.000000   1440245   1439005   1437209   1435081   1432850  
  9230.000000   1430696   1428710   1426909   1425276   1423819  
  9220.000000   1422592   1421692   1421177   1421031   1421099  
  9210.000000   1421163   1420994   1420480   1419688   1418871  
  9200.000000   1418381   1418486   1419250   1420451   1421687  
  9190.000000   1422461   1422395   1421299   1419288   1416663  
  9180.000000   1413851   1411226   1409060   1407498   1406587  
  9170.000000   1406343   1406758   1407834   1409542   1411829  
  9160.000000   1414579   1417624   1420740   1423686   1426220  
  9150.000000   1428100   1429120   1429174   1428320   1426800  
  9140.000000   1424994   1423348   1422242   1421867   1422124  
  9130.000000   1422649   1422920   1422447   1420910   1418266  
  9120.000000   1414721   1410708   1406760   1403398   1401027  
  9110.000000   1399909   1400144   1401636   1404051   1406870  
  9100.000000   1409472   1411271   1411872   1411207   1409607  
  9090.000000   1407660   1406027   1405161   1405182   1405796  
  9080.000000   1406455   1406584   1405855   1404315   1402360  
  9070.000000   1400566   1399444   1399247   1399879   1400967  
  9060.000000   1402021   1402655   1402708   1402284   1401668  
  9050.000000   1401221   1401247   1401914   1403207   1404952  
  9040.000000   1406864   1408568   1409676   1409862   1408983  
  9030.000000   1407124   1404600   1401915   1399616   1398145  
  9020.000000   1397660   1398027   1398869   1399744   1400292  
  9010.000000   1400367   1400023   1399449   1398808   1398141  
  9000.000000   1397363   1396300   1394863   1393060   1391092  
  8990.000000   1389224   1387719   1386696   1386104   1385789  
  8980.000000   1385607   1385555   1385784   1386565   1388158  
  8970.000000   1390660   1393922   1397555   1401050   1403905  
  8960.000000   1405772   1406534   1406327   1405448   1404280  
  8950.000000   1403181   1402458   1402297   1402730   1403616  
  8940.000000   1404648   1405437   1405590   1404877   1403315  
  8930.000000   1401236   1399189   1397786   1397484   1398410  
  8920.000000   1400316   1402644   1404741   1406057   1406339  
  8910.000000   1405685   1404480   1403231   1402385   1402204  
  8900.000000   1402739   1403856   1405346   1406980   1408589  
  8890.000000   1410040   1411227   1412057   1412453   1412407  
  8880.000000   1412001   1411422   1410936   1410801   1411216  
  8870.000000   1412222   1413708   1415406   1416985   1418123  
  8860.000000   1418613   1418421   1417706   1416793   1416084  
  8850.000000   1415983   1416760   1418511   1421086   1424180  
  8840.000000   1427391   1430345   1432768   1434531   1435633  
  8830.000000   1436115   1436011   1435280   1433881   1431786  
  8820.000000   1429103   1426077   1423115   1420680   1419169  
  8810.000000   1418816   1419606   1421338   1423673   1426279  
  8800.000000   1428888   1431354   1433632   1435727   1437666  
  8790.000000   1439445   1441085   1442584   1443988   1445318  
  8780.000000   1446585   1447730   1448638   1449186   1449298  
  8770.000000   1449037   1448599   1448302   1448477   1449343  
  8760.000000   1450919   1452978   1455110   1456846   1457806  
  8750.000000   1457836   1457054   1455852   1454772   1454380  
  8740.000000   1455104   1457127   1460348   1464381   1468656  
  8730.000000   1472520   1475423   1477024   1477296   1476503  
  8720.000000   1475147   1473811   1473035   1473157   1474270  
  8710.000000   1476213   1478673   1481307   1483836   1486129  
  8700.000000   1488159   1490007   1491757   1493482   1495204  
  8690.000000   1496907   1498590   1500240   1501883   1503491  
  8680.000000   1505001   1506270   1507126   1507431   1507155  
  8670.000000   1506443   1505607   1505084   1505313   1506626  
  8660.000000   1509115   1512619   1516713   1520857   1524520  
  8650.000000   1527318   1529124   1530038   1530388   1530545  
  8640.000000   1530867   1531509   1532451   1533482   1534341  
  8630.000000   1534833   1534926   1534846   1534998   1535910  
  8620.000000   1538007   1541525   1546356   1552069   1557975  
  8610.000000   1563291   1567370   1569809   1570598   1570025  
  8600.000000   1568649   1567054   1565740   1564978   1564818  
  8590.000000   1565148   1565783   1566628   1567697   1569176  
  8580.000000   1571262   1574128   1577746   1581891   1586148  
  8570.000000   1590005   1593033   1594940   1595702   1595485  
  8560.000000   1594624   1593491   1592420   1591670   1591410  
  8550.000000   1591770   1592832   1594650   1597179   1600270  
  8540.000000   1603621   1606832   1609461   1611164   1611801  
  8530.000000   1611486   1610579   1609557   1608920   1609007  
  8520.000000   1609947   1611598   1613655   1615719   1617437  
  8510.000000   1618584   1619110   1619148   1618945   1618842  
  8500.000000   1619156   1620165   1622017   1624744   1628233  
  8490.000000   1632248   1636452   1640454   1643893   1646446  
  8480.000000   1647919   1648228   1647470   1645832   1643615  
  8470.000000   1641155   1638821   1636958   1635835   1635667  
  8460.000000   1636554   1638538   1641510   1645290   1649586  
  8450.000000   1654064   1658343   1662052   1664907   1666731  
  8440.000000   1667535   1667453   1666763   1665759   1664729  
  8430.000000   1663862   1663246   1662895   1662782   1662925  
  8420.000000   1663352   1664148   1665343   1666936   1668802  
  8410.000000   1670758   1672581   1674081   1675173   1675857  
  8400.000000   1676218   1676341   1676283   1676043   1675595  
  8390.000000   1674936   1674140   1673390   1672923   1672971  
  8380.000000   1673639   1674877   1676454   1678048   1679323  
  8370.000000   1680062   1680216   1679913   1679378   1678850  
  8360.000000   1678498   1678389   1678498   1678733   1679005  
  8350.000000   1679242   1679411   1679482   1679405   1679117  
  8340.000000   1678562   1677748   1676762   1675786   1675056  
  8330.000000   1674812   1675210   1676274   1677861   1679708  
  8320.000000   1681501   1682944   1683834   1684071   1683689  
  8310.000000   1682797   1681567   1680173   1678782   1677538  
  8300.000000   1676552   1675920   1675694   1675908   1676541  
  8290.000000   1677543   1678808   1680202   1681551   1682671  
  8280.000000   1683382   1683547   1683111   1682120   1680729  
  8270.000000   1679184   1677764   1676724   1676207   1676222  
  8260.000000   1676611   1677130   1677498   1677500   1677036  
  8250.000000   1676141   1674956   1673650   1672355   1671120  
  8240.000000   1669911   1668668   1667353   1666018   1664798  
  8230.000000   1663902   1663515   1663734   1664487   1665542  
  8220.000000   1666555   1667162   1667080   1666173   1664482  
  8210.000000   1662201   1659625   1657073   1654823   1653061  
  8200.000000   1651863   1651195   1650917   1650821   1650647  
  8190.000000   1650162   1649189   1647688   1645751   1643601  
  8180.000000   1641518   1639759   1638476   1637676   1637224  
  8170.000000   1636898   1636469   1635776   1634770   1633504  
  8160.000000   1632084   1630618   1629166   1627734   1626300  
  8150.000000   1624843   1623383   1621971   1620676   1619541  
  8140.000000   1618557   1617662   1616770   1615822   1614811  
  8130.000000   1613799   1612883   1612144   1611610   1611220  
  8120.000000   1610856   1610374   1609672   1608711   1607541  
  8110.000000   1606254   1604948   1603686   1602477   1601301  
  8100.000000   1600137   1598995   1597931   1597032   1596373  
  8090.000000   1595986   1595821   1595767   1595670   1595393  
  8080.000000   1594853   1594039   1593009   1591851   1590660  
  8070.000000   1589494   1588374   1587284   1586193   1585080  
  8060.000000   1583937   1582786   1581664   1580618   1579686  
  8050.000000   1578893   1578236   1577687   1577191   1576680  
  8040.000000   1576084   1575352   1574468   1573452   1572367  
  8030.000000   1571282   1570268   1569347   1568499   1567642  
  8020.000000   1566684   1565529   1564147   1562574   1560935  
  8010.000000   1559401   1558156   1557337   1556997   1557097  
  8000.000000   1557514   1558101   1558731   1559340   1559938  
  7990.000000   1560580   1561324   1562170   1563039   1563763  
  7980.000000   1564148   1564022   1563318   1562105   1560573  
  7970.000000   1558989   1557597   1556569   1555938   1555636  
  7960.000000   1555509   1555409   1555222   1554909   1554475  
  7950.000000   1553952   1553352   1552657   1551832   1550844  
  7940.000000   1549711   1548494   1547314   1546287   1545505  
  7930.000000   1544986   1544682   1544490   1544298   1544022  
  7920.000000   1543635   1543173   1542721   1542381   1542250  
  7910.000000   1542391   1542822   1543500   1544337   1545187  
  7900.000000   1545902   1546321   1546348   1545944   1545163  
  7890.000000   1544130   1543011   1541985   1541190   1540731  
  7880.000000   1540649   1540965   1541667   1542727   1544072  
  7870.000000   1545578   1547041   1548215   1548845   1548746  
  7860.000000   1547872   1546342   1544435   1542503   1540882  
  7850.000000   1539787   1539255   1539152   1539229   1539233  
  7840.000000   1538977   1538418   1537630   1536780   1536035  
  7830.000000   1535516   1535255   1535201   1535267   1535355  
  7820.000000   1535409   1535403   1535351   1535265   1535147  
  7810.000000   1534982   1534740   1534405   1533981   1533506  
  7800.000000   1533037   1532634   1532333   1532136   1531998  
  7790.000000   1531851   1531611   1531215   1530627   1529849  
  7780.000000   1528915   1527878   1526791   1525700   1524636  
  7770.000000   1523621   1522670   1521798   1521018   1520341  
  7760.000000   1519759   1519248   1518766   1518258   1517681  
  7750.000000   1517010   1516259   1515465   1514689   1513983  
  7740.000000   1513381   1512877   1512444   1512038   1511625  
  7730.000000   1511193   1510759   1510360   1510031   1509789  
  7720.000000   1509626   1509508   1509389   1509224   1508993  
  7710.000000   1508684   1508309   1507872   1507380   1506827  
  7700.000000   1506212   1505543   1504848   1504174   1503579  
  7690.000000   1503122   1502841   1502753   1502844   1503081  
  7680.000000   1503413   1503792   1504162   1504476   1504688  
  7670.000000   1504759   1504669   1504407   1503987   1503429  
  7660.000000   1502759   1502000   1501172   1500297   1499413  
  7650.000000   1498580   1497881   1497405   1497217   1497342  
  7640.000000   1497736   1498299   1498898   1499405   1499743  
  7630.000000   1499895   1499922   1499911   1499955   1500094  
  7620.000000   1500322   1500572   1500768   1500848   1500798  
  7610.000000   1500662   1500528   1500500   1500663   1501061  
  7600.000000   1501686   1502483   1503370   1504243   1505007  
  7590.000000   1505572   1505881   1505908   1505686   1505301  
  7580.000000   1504890   1504610   1504608   1504981   1505748  
  7570.000000   1506841   1508127   1509436   1510620   1511580  
  7560.000000   1512293   1512796   1513168   1513494   1513853  
  7550.000000   1514291   1514843   1515520   1516342   1517317  
  7540.000000   1518451   1519729   1521107   1522516   1523875  
  7530.000000   1525112   1526195   1527134   1527997   1528870  
  7520.000000   1529849   1530994   1532320   1533783   1535307  
  7510.000000   1536804   1538217   1539538   1540816   1542141  
  7500.000000   1543616   1545314   1547249   1549359   1551534  
  7490.000000   1553628   1555524   1557144   1558496   1559643  
  7480.000000   1560705   1561799   1563027   1564444   1566067  
  7470.000000   1567884   1569880   1572039   1574356   1576822  
  7460.000000   1579419   1582103   1584813   1587473   1590033  
  7450.000000   1592457   1594759   1596963   1599118   1601246  
  7440.000000   1603357   1605431   1607450   1609403   1611314  
  7430.000000   1613244   1615279   1617515   1620015   1622797  
  7420.000000   1625823   1629007   1632236   1635399   1638414  
  7410.000000   1641235   1643864   1646320   1648642   1650858  
  7400.000000   1652988   1655033   1656996   1658881   1660710  
  7390.000000   1662525   1664375   1666320   1668403   1670655  
  7380.000000   1673080   1675662   1678362   1681132   1683919  
  7370.000000   1686669   1689333   1691868   1694254   1696488  
  7360.000000   1698598   1700637   1702679   1704799   1707056  
  7350.000000   1709478   1712053   1714731   1717436   1720092  
  7340.000000   1722636   1725043   1727310   1729470   1731558  
  7330.000000   1733616   1735671   1737740   1739814   1741877  
  7320.000000   1743892   1745824   1747633   1749296   1750803  
  7310.000000   1752177   1753451   1754682   1755918   1757207  
  7300.000000   1758568   1760016   1761542   1763144   1764805  
  7290.000000   1766508   1768218   1769888   1771457   1772861  
  7280.000000   1774052   1775010   1775752   1776335   1776835  
  7270.000000   1777337   1777909   1778600   1779427   1780393  
  7260.000000   1781484   1782680   1783955   1785273   1786596  
  7250.000000   1787876   1789086   1790205   1791257   1792272  
  7240.000000   1793315   1794427   1795651   1796991   1798456  
  7230.000000   1800037   1801758   1803638   1805722   1808019  
  7220.000000   1810528   1813194   1815955   1818730   1821485  
  7210.000000   1824201   1826926   1829708   1832612   1835652  
  7200.000000   1838824   1842072   1845358   1848645   1851955  
  7190.000000   1855325   1858833   1862529   1866452   1870579  
  7180.000000   1874872   1879253   1883675   1888084   1892477  
  7170.000000   1896845   1901211   1905582   1909984   1914430  
  7160.000000   1918958   1923594   1928383   1933344   1938500  
  7150.000000   1943836   1949338   1954960   1960671   1966415  
  7140.000000   1972164   1977870   1983524   1989101   1994632  
  7130.000000   2000144   2005715   2011415   2017334   2023527  
  7120.000000   2030039   2036860   2043974   2051324   2058862  
  7110.000000   2066521   2074248   2081963   2089610   2097117  
  7100.000000   2104465   2111651   2118745   2125828   2133013  
  7090.000000   2140374   2147955   2155738   2163674   2171695  
  7080.000000   2179750   2187810   2195881   2203979   2212121  
  7070.000000   2220301   2228503   2236691   2244843   2252947  
  7060.000000   2261014   2269059   2277097   2285125   2293130  
  7050.000000   2301094   2309009   2316888   2324757   2332655  
  7040.000000   2340600   2348594   2356599   2364565   2372427  
  7030.000000   2380140   2387680   2395057   2402297   2409444  
  7020.000000   2416527   2423574   2430580   2437538   2444410  
  7010.000000   2451166   2457766   2464200   2470466   2476608  
  7000.000000   2482669   2488714   2494770   2500848   2506898  
  6990.000000   2512862   2518657   2524242   2529599   2534771  
  6980.000000   2539805   2544765   2549659   2554476   2559145  
  6970.000000   2563611   2567820   2571781   2575534   2579175  
  6960.000000   2582780   2586426   2590120   2593848   2597541  
  6950.000000   2601140   2604579   2607833   2610895   2613796  
  6940.000000   2616567   2619253   2621875   2624452   2626971  
  6930.000000   2629423   2631785   2634060   2636253   2638406  
  6920.000000   2640547   2642717   2644911   2647108   2649243  
  6910.000000   2651251   2653070   2654677   2656077   2657317  
  6900.000000   2658448   2659529   2660596   2661678   2662790  
  6890.000000   2663954   2665188   2666507   2667900   2669335  
  6880.000000   2670746   2672069   2673252   2674292   2675227  
  6870.000000   2676134   2677089   2678139   2679279   2680458  
  6860.000000   2681599   2682634   2683528   2684286   2684943  
  6850.000000   2685542   2686113   2686669   2687207   2687735  
  6840.000000   2688275   2688870   2689556   2690349   2691220  
  6830.000000   2692113   2692952   2693690   2694320   2694889  
  6820.000000   2695474   2696146   2696930   2697787   2698627  
  6810.000000   2699346   2699860   2700146   2700240   2700230  
  6800.000000   2700207   2700253   2700401   2700659   2700997  
  6790.000000   2701388   2701798   2702197   2702540   2702777  
  6780.000000   2702839   2702671   2702237   2701552   2700672  
  6770.000000   2699700   2698746   2697916   2697270   2696832  
  6760.000000   2696571   2696429   2696319   2696158   2695869  
  6750.000000   2695411   2694773   2693992   2693131   2692276  
  6740.000000   2691502   2690858   2690352   2689954   2689601  
  6730.000000   2689230   2688786   2688241   2687582   2686817  
  6720.000000   2685953   2685003   2683978   2682905   2681817  
  6710.000000   2680762   2679775   2678879   2678064   2677301  
  6700.000000   2676543   2675750   2674896   2673980   2673006  
  6690.000000   2671985   2670910   2669779   2668588   2667357  
  6680.000000   2666129   2664965   2663913   2662990   2662152  
  6670.000000   2661309   2660339   2659144   2657673   2655963  
  6660.000000   2654110   2652252   2650511   2648965   2647617  
  6650.000000   2646411   2645250   2644038   2642696   2641189  
  6640.000000   2639512   2637699   2635792   2633848   2631920  
  6630.000000   2630058   2628296   2626649   2625105   2623630  
  6620.000000   2622170   2620672   2619093   2617410   2615623  
  6610.000000   2613750   2611818   2609855   2607887   2605935  
  6600.000000   2604018   2602143   2600309   2598499   2596686  
  6590.000000   2594844   2592957   2591036   2589116   2587250  
  6580.000000   2585488   2583858   2582352   2580925   2579513  
  6570.000000   2578053   2576509   2574875   2573180   2571464  
  6560.000000   2569768   2568119   2566528   2564996   2563525  
  6550.000000   2562117   2560775   2559495   2558260   2557036  
  6540.000000   2555791   2554493   2553138   2551738   2550324  
  6530.000000   2548926   2547568   2546255   2544986   2543755  
  6520.000000   2542571   2541450   2540416   2539482   2538646  
  6510.000000   2537882   2537153   2536419   2535658   2534863  
  6500.000000   2534045   2533213   2532368   2531491   2530552  
  6490.000000   2529526   2528404   2527205   2525972   2524757  
  6480.000000   2523607   2522548   2521580   2520685   2519835  
  6470.000000   2519002   2518163   2517302   2516410   2515484  
  6460.000000   2514529   2513558   2512600   2511678   2510811  
  6450.000000   2509993   2509194   2508367   2507468   2506477  
  6440.000000   2505411   2504329   2503308   2502414   2501680  
  6430.000000   2501083   2500554   2499999   2499336   2498519  
  6420.000000   2497552   2496485   2495396   2494358   2493433  
  6410.000000   2492652   2492019   2491517   2491119   2490785  
  6400.000000   2490476   2490151   2489781   2489348   2488862  
  6390.000000   2488347   2487841   2487382   2486989   2486664  
  6380.000000   2486388   2486136   2485884   2485619   2485338  
  6370.000000   2485044   2484729   2484378   2483963   2483460  
  6360.000000   2482856   2482162   2481409   2480645   2479910  
  6350.000000   2479233   2478616   2478044   2477489   2476929  
  6340.000000   2476347   2475745   2475124   2474498   2473868  
  6330.000000   2473235   2472589   2471919   2471208   2470442  
  6320.000000   2469606   2468691   2467691   2466613   2465467  
  6310.000000   2464277   2463060   2461841   2460623   2459414  
  6300.000000   2458204   2456989   2455756   2454498   2453193  
  6290.000000   2451825   2450363   2448791   2447094   2445288  
  6280.000000   2443403   2441491   2439593   2437748   2435957  
  6270.000000   2434206   2432456   2430672   2428824   2426905  
  6260.000000   2424917   2422876   2420791   2418670   2416513  
  6250.000000   2414327   2412118   2409905   2407701   2405520  
  6240.000000   2403354   2401189   2398997   2396759   2394462  
  6230.000000   2392109   2389714   2387294   2384863   2382430  
  6220.000000   2379999   2377577   2375175   2372808   2370493  
  6210.000000   2368236   2366032   2363866   2361716   2359566  
  6200.000000   2357410   2355255   2353114   2350997   2348906  
  6190.000000   2346832   2344761   2342683   2340597   2338517  
  6180.000000   2336458   2334437   2332457   2330509   2328577  
  6170.000000   2326643   2324696   2322734   2320764   2318787  
  6160.000000   2316806   2314811   2312794   2310752   2308699  
  6150.000000   2306659   2304669   2302763   2300961   2299265  
  6140.000000   2297658   2296111   2294591   2293067   2291522  
  6130.000000   2289942   2288328   2286686   2285035   2283398  
  6120.000000   2281811   2280298   2278881   2277558   2276312  
  6110.000000   2275107   2273913   2272704   2271481   2270257  
  6100.000000   2269065   2267930   2266875   2265895   2264983  
  6090.000000   2264116   2263285   2262477   2261698   2260944  
  6080.000000   2260222   2259528   2258866   2258235   2257656  
  6070.000000   2257142   2256724   2256408   2256207   2256101  
  6060.000000   2256079   2256109   2256181   2256279   2256407  
  6050.000000   2256560   2256745   2256960   2257222   2257543  
  6040.000000   2257961   2258509   2259227   2260129   2261213  
  6030.000000   2262441   2263769   2265139   2266518   2267884  
  6020.000000   2269250   2270629   2272049   2273515   2275026  
  6010.000000   2276558   2278087   2279586   2281045   2282459  
  6000.000000   2283846   2285223   2286618   2288047   2289531  
  5990.000000   2291068   2292658   2294282   2295930   2297588  
  5980.000000   2299263   2300974   2302763   2304672   2306749  
  5970.000000   2309017   2311482   2314113   2316874   2319708  
  5960.000000   2322574   2325433   2328273   2331081   2333864  
  5950.000000   2336618   2339351   2342061   2344759   2347451  
  5940.000000   2350156   2352889   2355668   2358507   2361417  
  5930.000000   2364403   2367462   2370582   2373742   2376908  
  5920.000000   2380043   2383108   2386077   2388937   2391693  
  5910.000000   2394362   2396965   2399520   2402036   2404517  
  5900.000000   2406969   2409411   2411866   2414372   2416957  
  5890.000000   2419642   2422416   2425252   2428103   2430921  
  5880.000000   2433666   2436312   2438849   2441274   2443592  
  5870.000000   2445808   2447938   2450000   2452028   2454057  
  5860.000000   2456124   2458249   2460437   2462678   2464960  
  5850.000000   2467278   2469645   2472089   2474646   2477340  
  5840.000000   2480171   2483114   2486123   2489149   2492154  
  5830.000000   2495122   2498052   2500957   2503837   2506682  
  5820.000000   2509462   2512146   2514702   2517123   2519409  
  5810.000000   2521584   2523655   2525638   2527512   2529278  
  5800.000000   2530908   2532418   2533801   2535091   2536283  
  5790.000000   2537391   2538376   2539217   2539853   2540251  
  5780.000000   2540357   2540152   2539605   2538719   2537496  
  5770.000000   2535979   2534222   2532319   2530364   2528461  
  5760.000000   2526685   2525094   2523699   2522499   2521464  
  5750.000000   2520571   2519793   2519114   2518528   2518026  
  5740.000000   2517612   2517279   2517032   2516860   2516760  
  5730.000000   2516704   2516674   2516634   2516570   2516470  
  5720.000000   2516353   2516241   2516176   2516180   2516273  
  5710.000000   2516445   2516686   2516976   2517307   2517680  
  5700.000000   2518105   2518588   2519128   2519715   2520325  
  5690.000000   2520940   2521542   2522130   2522703   2523263  
  5680.000000   2523798   2524291   2524710   2525031   2525226  
  5670.000000   2525291   2525217   2525007   2524652   2524147  
  5660.000000   2523480   2522661   2521709   2520670   2519590  
  5650.000000   2518524   2517496   2516520   2515582   2514666  
  5640.000000   2513752   2512835   2511918   2511008   2510107  
  5630.000000   2509211   2508314   2507408   2506499   2505600  
  5620.000000   2504733   2503913   2503147   2502427   2501737  
  5610.000000   2501061   2500390   2499728   2499081   2498453  
  5600.000000   2497833   2497199   2496519   2495772   2494947  
  5590.000000   2494061   2493140   2492214   2491295   2490382  
  5580.000000   2489451   2488479   2487447   2486357   2485223  
  5570.000000   2484070   2482911   2481754   2480587   2479401  
  5560.000000   2478188   2476955   2475722   2474511   2473338  
  5550.000000   2472205   2471101   2470006   2468904   2467787  
  5540.000000   2466660   2465531   2464410   2463303   2462210  
  5530.000000   2461136   2460087   2459077   2458114   2457198  
  5520.000000   2456313   2455428   2454507   2453523   2452464  
  5510.000000   2451345   2450191   2449035   2447894   2446774  
  5500.000000   2445665   2444559   2443448   2442349   2441271  
  5490.000000   2440229   2439209   2438180   2437090   2435891  
  5480.000000   2434545   2433048   2431417   2429690   2427900  
  5470.000000   2426077   2424228   2422358   2420460   2418543  
  5460.000000   2416607   2414657   2412682   2410667   2408589  
  5450.000000   2406439   2404224   2401980   2399755   2397594  
  5440.000000   2395527   2393553   2391652   2389791   2387953  
  5430.000000   2386126   2384323   2382548   2380811   2379096  
  5420.000000   2377399   2375713   2374068   2372503   2371090  
  5410.000000   2369868   2368867   2368056   2367400   2366834  
  5400.000000   2366337   2365892   2365536   2365289   2365191  
  5390.000000   2365231   2365406   2365677   2366045   2366508  
  5380.000000   2367121   2367914   2368938   2370181   2371639  
  5370.000000   2373243   2374969   2376761   2378639   2380591  
  5360.000000   2382678   2384905   2387343   2389998   2392956  
  5350.000000   2396233   2399923   2404029   2408614   2413628  
  5340.000000   2419091   2424926   2431168   2437771   2444813  
  5330.000000   2452269   2460219   2468612   2477503   2486827  
  5320.000000   2496657   2506956   2517844   2529311   2541488  
  5310.000000   2554339   2567963   2582293   2597409   2613251  
  5300.000000   2629922   2647387   2665767   2685035   2705297  
  5290.000000   2726491   2748660   2771679   2795513   2819998  
  5280.000000   2845096   2870701   2896868   2923602   2951023  
  5270.000000   2979147   3007990   3037415   3067242   3097227  
  5260.000000   3127163   3156928   3186482   3215881   3245156  
  5250.000000   3274339   3303313   3331950   3359989   3387288  
  5240.000000   3413660   3439139   3463705   3487526   3510627  
  5230.000000   3533151   3555027   3576288   3596762   3616437  
  5220.000000   3635150   3652960   3669803   3685833   3701054  
  5210.000000   3715634   3729530   3742816   3755344   3767110  
  5200.000000   3777950   3787914   3796937   3805163   3812589  
  5190.000000   3819361   3825437   3830897   3835652   3839765  
  5180.000000   3843172   3845976   3848148   3849791   3850854  
  5170.000000   3851395   3851340   3850743   3849563   3847892  
  5160.000000   3845727   3843162   3840176   3836825   3833064  
  5150.000000   3828941   3824433   3819617   3814500   3809155  
  5140.000000   3803572   3797792   3791781   3785570   3779146  
  5130.000000   3772562   3765830   3759005   3752090   3745115  
  5120.000000   3738064   3730955   3723779   3716560   3709299  
  5110.000000   3702013   3694692   3687336   3679934   3672497  
  5100.000000   3665040   3657599   3650206   3642891   3635661  
  5090.000000   3628515   3621430   3614390   3607379   3600395  
  5080.000000   3593437   3586509   3579605   3572717   3565827  
  5070.000000   3558929   3552017   3545099   3538182   3531277  
  5060.000000   3524382   3517488   3510576   3503630   3496633  
  5050.000000   3489584   3482482   3475336   3468149   3460925  
  5040.000000   3453666   3446379   3439075   3431773   3424496  
  5030.000000   3417258   3410071   3402929   3395824   3388742  
  5020.000000   3381684   3374653   3367678   3360783   3354012  
  5010.000000   3347380   3340919   3334624   3328512   3322564  
  5000.000000   3316801   3311209   3305815   3300611   3295631  
  4990.000000   3290866   3286357   3282094   3278121   3274425  
  4980.000000   3271047   3267962   3265206   3262750   3260634  
  4970.000000   3258834   3257399   3256308   3255606   3255258  
  4960.000000   3255295   3255670   3256416   3257496   3258961  
  4950.000000   3260791   3263044   3265693   3268773   3272232  
  4940.000000   3276079   3280249   3284750   3289527   3294603  
  4930.000000   3299937   3305560   3311436   3317596   3324008  
  4920.000000   3330702   3337650   3344877   3352353   3360097  
  4910.000000   3368079   3376316   3384787   3393509   3402464  
  4900.000000   3411659   3421061   3430651   3440377   3450200  
  4890.000000   3460068   3469943   3479789   3489579   3499297  
  4880.000000   3508927   3518467   3527906   3537247   3546466  
  4870.000000   3555552   3564456   3573148   3581563   3589677  
  4860.000000   3597449   3604895   3612014   3618860   3625453  
  4850.000000   3631851   3638066   3644138   3650060   3655859  
  4840.000000   3661513   3667038   3672408   3677633   3682689  
  4830.000000   3687596   3692344   3696967   3701465   3705866  
  4820.000000   3710160   3714354   3718420   3722360   3726152  
  4810.000000   3729809   3733326   3736726   3740001   3743162  
  4800.000000   3746192   3749094   3751854   3754487   3756998  
  4790.000000   3759417   3761750   3764022   3766226   3768377  
  4780.000000   3770460   3772491   3774462   3776394   3778275  
  4770.000000   3780115   3781887   3783584   3785168   3786633  
  4760.000000   3787946   3789109   3790101   3790928   3791568  
  4750.000000   3792027   3792281   3792343   3792199   3791871  
  4740.000000   3791359   3790696   3789885   3788960   3787922  
  4730.000000   3786792   3785557   3784224   3782765   3781176  
  4720.000000   3779436   3777551   3775523   3773380   3771149  
  4710.000000   3768867   3766558   3764247   3761941   3759645  
  4700.000000   3757356   3755082   3752825   3750603   3748430  
  4690.000000   3746324   3744295   3742346   3740472   3738658  
  4680.000000   3736884   3735119   3733337   3731507   3729612  
  4670.000000   3727637   3725591   3723487   3721362   3719245  
  4660.000000   3717181   3715196   3713326   3711584   3709996  
  4650.000000   3708570   3707327   3706271   3705412   3704741  
  4640.000000   3704250   3703913   3703712   3703620   3703623  
  4630.000000   3703699   3703839   3704019   3704222   3704418  
  4620.000000   3704589   3704709   3704771   3704766   3704701  
  4610.000000   3704577   3704405   3704193   3703954   3703708  
  4600.000000   3703477   3703289   3703166   3703122   3703150  
  4590.000000   3703235   3703341   3703436   3703487   3703475  
  4580.000000   3703387   3703228   3702999   3702712   3702365  
  4570.000000   3701966   3701511   3701003   3700438   3699818  
  4560.000000   3699134   3698384   3697557   3696652   3695667  
  4550.000000   3694607   3693480   3692298   3691073   3689812  
  4540.000000   3688530   3687237   3685956   3684703   3683510  
  4530.000000   3682390   3681373   3680456   3679662   3678977  
  4520.000000   3678435   3678030   3677814   3677789   3678023  
  4510.000000   3678513   3679333   3680473   3682016   3683956  
  4500.000000   3686384   3689297   3692786   3696838   3701542  
  4490.000000   3706874   3712919   3719652   3727148   3735366  
  4480.000000   3744357   3754053   3764476   3775542   3787256  
  4470.000000   3799535   3812370   3825667   3839392   3853430  
  4460.000000   3867722   3882148   3896652   3911142   3925584  
  4450.000000   3939925   3954148   3968223   3982140   3995890  
  4440.000000   4009466   4022889   4036163   4049333   4062398  
  4430.000000   4075407   4088332   4101199   4113936   4126540  
  4420.000000   4138897   4150983   4162664   4173908   4184575  
  4410.000000   4194632   4203943   4212476   4220111   4226839  
  4400.000000   4232584   4237395   4241263   4244300   4246553  
  4390.000000   4248166   4249208   4249815   4250058   4250061  
  4380.000000   4249900   4249697   4249542   4249551   4249810  
  4370.000000   4250407   4251402   4252837   4254740   4257113  
  4360.000000   4259963   4263271   4267027   4271194   4275734  
  4350.000000   4280591   4285697   4290989   4296401   4301896  
  4340.000000   4307432   4312982   4318488   4323860   4328940  
  4330.000000   4333529   4337384   4340287   4342074   4342713  
  4320.000000   4342295   4341069   4339350   4337516   4335868  
  4310.000000   4334655   4333962   4333808   4334080   4334670  
  4300.000000   4335423   4336243   4337036   4337758   4338366  
  4290.000000   4338840   4339163   4339332   4339359   4339272  
  4280.000000   4339111   4338928   4338758   4338646   4338597  
  4270.000000   4338627   4338700   4338787   4338801   4338651  
  4260.000000   4338198   4337316   4335876   4333810   4331097  
  4250.000000   4327804   4324053   4320028   4315909   4311886  
  4240.000000   4308084   4304600   4301451   4298628   4296067  
  4230.000000   4293698   4291431   4289183   4286882   4284465  
  4220.000000   4281908   4279197   4276369   4273462   4270559  
  4210.000000   4267723   4265035   4262539   4260283   4258271  
  4200.000000   4256516   4254990   4253687   4252563   4251610  
  4190.000000   4250778   4250072   4249455   4248963   4248584  
  4180.000000   4248382   4248362   4248599   4249093   4249918  
  4170.000000   4251069   4252627   4254596   4257066   4260040  
  4160.000000   4263594   4267701   4272400   4277623   4283390  
  4150.000000   4289622   4296348   4303508   4311151   4319235  
  4140.000000   4327822   4336874   4346451   4356510   4367097  
  4130.000000   4378152   4389705   4401685   4414113   4426932  
  4120.000000   4440177   4453816   4467898   4482402   4497371  
  4110.000000   4512768   4528613   4544851   4561482   4578446  
  4100.000000   4595732   4613285   4631090   4649099   4667298  
  4090.000000   4685653   4704153   4722774   4741503   4760330  
  4080.000000   4779240   4798236   4817300   4836435   4855602  
  4070.000000   4874784   4893902   4912923   4931747   4950357  
  4060.000000   4968667   4986687   5004334   5021624   5038456  
  4050.000000   5054847   5070693   5086037   5100787   5114999  
  4040.000000   5128556   5141484   5153623   5164978   5175393  
  4030.000000   5184914   5193426   5201001   5207540   5213090  
  4020.000000   5217514   5220876   5223146   5224453   5224780  
  4010.000000   5224337   5223238   5221541   5219011   5215737  
  4000.000000   5212080  
##END= 
