##TITLE= Sample 021 By ssteindl date Montag, November 19 2018
##JCAMP-DX= 4.24
##DATA TYPE= INFRARED SPECTRUM
##ORIGIN= Exported PE Spectrum Data File
##OWNER= Sandra Steindl
##DATE= 18/11/19
##TIME= 17:48:15.00
##SPECTROMETER/DATA SYSTEM= PERKIN-ELMER Frontier FT-IR/NIR IR
##INSTRUMENT PARAMETERS=
  APODIZATION=stark
  DETECTOR=INGAAS
##RESOLUTION= 16.000000
##DELTAX= -2.000000
##XUNITS= 1/CM
##YUNITS= A
##XFACTOR= 1.00
##YFACTOR= 0.00000011920928955078
##FIRSTX= 10000.00
##LASTX= 4000.00
##NPOINTS= 3001
##FIRSTY= 0.203615
##MAXY= 0.600192
##MINY= 0.179928
##XYDATA= (X++(Y..Y))
 10000.000000   1708044   1702116   1697279   1695085   1696063  
  9990.000000   1699553   1704574   1710014   1714653   1717341  
  9980.000000   1717465   1715061   1710749   1705641   1701144  
  9970.000000   1698636   1699018   1702426   1708130   1714652  
  9960.000000   1720259   1723402   1723208   1719585   1713149  
  9950.000000   1704891   1695896   1687081   1679210   1672905  
  9940.000000   1668742   1667228   1668578   1672646   1678667  
  9930.000000   1685538   1691962   1696997   1700271   1702078  
  9920.000000   1703150   1704153   1705364   1706374   1706340  
  9910.000000   1704330   1699832   1693062   1684912   1676712  
  9900.000000   1669733   1664827   1662203   1661482   1661908  
  9890.000000   1662614   1662799   1661823   1659237   1654861  
  9880.000000   1648940   1642256   1636167   1632290   1632077  
  9870.000000   1636130   1643929   1653716   1663116   1669820  
  9860.000000   1672465   1671024   1666767   1661693   1657783  
  9850.000000   1656306   1657588   1661093   1665922   1671213  
  9840.000000   1676394   1681168   1685228   1688183   1689485  
  9830.000000   1688791   1686225   1682605   1679272   1677596  
  9820.000000   1678372   1681376   1685373   1688611   1689529  
  9810.000000   1687493   1682999   1677513   1672734   1669936  
  9800.000000   1669424   1670585   1672265   1673381   1673392  
  9790.000000   1672426   1671045   1669819   1668937   1668121  
  9780.000000   1666842   1664674   1661663   1658301   1655382  
  9770.000000   1653496   1652777   1652791   1652799   1652167  
  9760.000000   1650716   1648846   1647378   1647155   1648683  
  9750.000000   1651879   1656117   1660496   1664172   1666667  
  9740.000000   1667918   1668230   1668027   1667735   1667637  
  9730.000000   1667919   1668651   1669787   1671115   1672177  
  9720.000000   1672341   1670907   1667378   1661695   1654325  
  9710.000000   1646237   1638560   1632340   1628183   1626247  
  9700.000000   1626257   1627776   1630320   1633483   1636847  
  9690.000000   1639890   1641968   1642375   1640642   1636692  
  9680.000000   1631068   1624725   1618838   1614338   1611680  
  9670.000000   1610730   1610941   1611668   1612439   1613145  
  9660.000000   1613913   1614956   1616295   1617682   1618680  
  9650.000000   1618843   1618043   1616474   1614711   1613331  
  9640.000000   1612723   1612827   1613175   1613126   1612180  
  9630.000000   1610300   1607990   1606147   1605723   1607337  
  9620.000000   1611021   1616172   1621705   1626409   1629267  
  9610.000000   1629807   1628155   1625054   1621541   1618720  
  9600.000000   1617406   1617943   1620150   1623309   1626436  
  9590.000000   1628383   1628213   1625302   1619552   1611403  
  9580.000000   1601785   1592007   1583516   1577699   1575576  
  9570.000000   1577659   1583736   1592950   1603839   1614704  
  9560.000000   1623932   1630371   1633586   1633802   1631813  
  9550.000000   1628536   1624811   1621075   1617458   1613853  
  9540.000000   1610204   1606670   1603626   1601622   1601034  
  9530.000000   1601981   1604079   1606643   1608826   1609956  
  9520.000000   1609742   1608308   1606151   1603859   1601967  
  9510.000000   1600746   1600236   1600275   1600646   1601154  
  9500.000000   1601671   1602147   1602565   1602961   1603375  
  9490.000000   1603890   1604564   1605426   1606398   1607298  
  9480.000000   1607857   1607801   1606959   1605336   1603146  
  9470.000000   1600732   1598462   1596560   1595053   1593742  
  9460.000000   1592334   1590554   1588289   1585648   1582929  
  9450.000000   1580549   1578908   1578317   1578911   1580659  
  9440.000000   1583370   1586715   1590296   1593656   1596393  
  9430.000000   1598186   1598894   1598549   1597362   1595643  
  9420.000000   1593759   1592053   1590815   1590239   1590382  
  9410.000000   1591170   1592343   1593548   1594346   1594392  
  9400.000000   1593509   1591816   1589700   1587722   1586381  
  9390.000000   1585911   1586144   1586577   1586571   1585635  
  9380.000000   1583645   1580916   1578088   1575871   1574723  
  9370.000000   1574647   1575177   1575585   1575228   1573808  
  9360.000000   1571497   1568850   1566552   1565162   1564868  
  9350.000000   1565494   1566609   1567731   1568554   1568959  
  9340.000000   1569030   1568869   1568494   1567770   1566457  
  9330.000000   1564403   1561683   1558682   1556019   1554362  
  9320.000000   1554225   1555780   1558736   1562389   1565737  
  9310.000000   1567815   1567939   1565922   1562133   1557392  
  9300.000000   1552805   1549413   1547888   1548268   1549952  
  9290.000000   1551889   1552953   1552306   1549694   1545540  
  9280.000000   1540836   1536790   1534403   1534088   1535595  
  9270.000000   1538127   1540726   1542567   1543252   1542882  
  9260.000000   1541979   1541264   1541339   1542543   1544853  
  9250.000000   1547979   1551465   1554811   1557599   1559513  
  9240.000000   1560397   1560236   1559135   1557303   1554979  
  9230.000000   1552431   1549876   1547483   1545358   1543581  
  9220.000000   1542241   1541432   1541195   1541456   1541977  
  9210.000000   1542393   1542301   1541390   1539603   1537215  
  9200.000000   1534829   1533169   1532840   1534110   1536836  
  9190.000000   1540507   1544403   1547836   1550342   1551797  
  9180.000000   1552369   1552395   1552211   1552053   1552010  
  9170.000000   1552041   1552028   1551835   1551373   1550604  
  9160.000000   1549526   1548173   1546592   1544873   1543105  
  9150.000000   1541382   1539770   1538296   1536980   1535832  
  9140.000000   1534901   1534255   1533977   1534120   1534649  
  9130.000000   1535450   1536344   1537168   1537851   1538458  
  9120.000000   1539189   1540252   1541760   1543608   1545480  
  9110.000000   1546892   1547356   1546572   1544558   1541673  
  9100.000000   1538491   1535676   1533782   1533125   1533697  
  9090.000000   1535206   1537183   1539094   1540437   1540841  
  9080.000000   1540114   1538311   1535685   1532696   1529891  
  9070.000000   1527831   1526943   1527393   1529031   1531420  
  9060.000000   1533956   1535984   1536961   1536561   1534777  
  9050.000000   1531844   1528179   1524262   1520596   1517584  
  9040.000000   1515501   1514475   1514521   1515550   1517350  
  9030.000000   1519668   1522193   1524646   1526741   1528280  
  9020.000000   1529179   1529465   1529293   1528837   1528304  
  9010.000000   1527789   1527276   1526590   1525482   1523741  
  9000.000000   1521303   1518347   1515273   1512655   1511042  
  8990.000000   1510796   1511917   1514056   1516604   1518878  
  8980.000000   1520329   1520688   1520059   1518805   1517425  
  8970.000000   1516338   1515800   1515823   1516246   1516799  
  8960.000000   1517247   1517447   1517394   1517192   1516997  
  8950.000000   1516984   1517263   1517888   1518805   1519907  
  8940.000000   1521040   1522073   1522917   1523574   1524124  
  8930.000000   1524673   1525292   1525936   1526453   1526564  
  8920.000000   1526000   1524559   1522256   1519316   1516134  
  8910.000000   1513188   1510901   1509580   1509341   1510174  
  8900.000000   1511959   1514545   1517732   1521273   1524843  
  8890.000000   1528040   1530454   1531743   1531777   1530673  
  8880.000000   1528812   1526710   1524877   1523682   1523269  
  8870.000000   1523572   1524367   1525402   1526455   1527392  
  8860.000000   1528101   1528477   1528373   1527652   1526267  
  8850.000000   1524304   1522056   1519930   1518392   1517759  
  8840.000000   1518113   1519242   1520720   1522083   1522990  
  8830.000000   1523366   1523431   1523600   1524337   1525938  
  8820.000000   1528435   1531528   1534710   1537389   1539122  
  8810.000000   1539717   1539320   1538350   1537362   1536893  
  8800.000000   1537282   1538622   1540735   1543268   1545790  
  8790.000000   1547936   1549478   1550366   1550678   1550570  
  8780.000000   1550203   1549698   1549135   1548548   1547980  
  8770.000000   1547480   1547115   1546954   1547031   1547366  
  8760.000000   1547948   1548771   1549831   1551132   1552659  
  8750.000000   1554344   1556060   1557609   1558794   1559466  
  8740.000000   1559617   1559379   1559023   1558852   1559127  
  8730.000000   1559961   1561307   1562969   1564679   1566191  
  8720.000000   1567354   1568151   1568678   1569114   1569650  
  8710.000000   1570450   1571612   1573149   1574996   1576995  
  8700.000000   1578946   1580613   1581808   1582422   1582490  
  8690.000000   1582177   1581756   1581533   1581760   1582574  
  8680.000000   1583967   1585821   1587966   1590242   1592536  
  8670.000000   1594780   1596928   1598910   1600622   1601926  
  8660.000000   1602717   1602963   1602771   1602354   1602010  
  8650.000000   1602013   1602554   1603672   1605261   1607106  
  8640.000000   1608958   1610612   1611963   1613028   1613939  
  8630.000000   1614893   1616104   1617726   1619825   1622333  
  8620.000000   1625068   1627773   1630196   1632167   1633658  
  8610.000000   1634790   1635794   1636925   1638349   1640084  
  8600.000000   1641980   1643778   1645212   1646130   1646562  
  8590.000000   1646724   1646917   1647429   1648380   1649712  
  8580.000000   1651173   1652463   1653336   1653730   1653778  
  8570.000000   1653765   1653989   1654646   1655723   1657002  
  8560.000000   1658137   1658776   1658699   1657886   1656540  
  8550.000000   1655001   1653643   1652770   1652542   1652973  
  8540.000000   1653946   1655293   1656847   1658476   1660093  
  8530.000000   1661632   1663055   1664308   1665363   1666191  
  8520.000000   1666811   1667250   1667553   1667765   1667941  
  8510.000000   1668158   1668511   1669146   1670226   1671891  
  8500.000000   1674177   1676969   1679988   1682813   1684995  
  8490.000000   1686168   1686209   1685257   1683713   1682117  
  8480.000000   1681023   1680832   1681689   1683483   1685915  
  8470.000000   1688619   1691256   1693611   1695592   1697227  
  8460.000000   1698577   1699718   1700713   1701615   1702480  
  8450.000000   1703367   1704328   1705370   1706425   1707362  
  8440.000000   1708011   1708242   1708015   1707413   1706632  
  8430.000000   1705902   1705418   1705242   1705304   1705435  
  8420.000000   1705464   1705317   1705061   1704925   1705196  
  8410.000000   1706158   1707931   1710457   1713468   1716596  
  8400.000000   1719467   1721784   1723391   1724246   1724419  
  8390.000000   1724004   1723093   1721754   1720078   1718195  
  8380.000000   1716306   1714659   1713497   1713006   1713229  
  8370.000000   1714078   1715308   1716644   1717825   1718703  
  8360.000000   1719258   1719579   1719832   1720151   1720620  
  8350.000000   1721209   1721834   1722372   1722732   1722886  
  8340.000000   1722888   1722859   1722931   1723224   1723796  
  8330.000000   1724652   1725725   1726903   1728046   1729007  
  8320.000000   1729661   1729916   1729729   1729124   1728186  
  8310.000000   1727071   1725961   1725046   1724470   1724326  
  8300.000000   1724620   1725298   1726227   1727246   1728162  
  8290.000000   1728805   1729028   1728751   1727973   1726785  
  8280.000000   1725373   1723958   1722746   1721863   1721313  
  8270.000000   1720979   1720655   1720144   1719324   1718245  
  8260.000000   1717097   1716167   1715711   1715869   1716584  
  8250.000000   1717614   1718599   1719174   1719104   1718329  
  8240.000000   1716993   1715341   1713654   1712126   1710841  
  8230.000000   1709764   1708800   1707873   1706968   1706169  
  8220.000000   1705596   1705391   1705610   1706240   1707149  
  8210.000000   1708155   1709047   1709645   1709832   1709554  
  8200.000000   1708818   1707667   1706166   1704390   1702416  
  8190.000000   1700334   1698231   1696209   1694350   1692724  
  8180.000000   1691353   1690219   1689253   1688362   1687436  
  8170.000000   1686384   1685153   1683739   1682196   1680616  
  8160.000000   1679115   1677800   1676751   1675999   1675533  
  8150.000000   1675291   1675184   1675110   1674964   1674663  
  8140.000000   1674153   1673416   1672481   1671410   1670290  
  8130.000000   1669201   1668199   1667290   1666431   1665543  
  8120.000000   1664534   1663355   1662002   1660557   1659143  
  8110.000000   1657912   1656975   1656371   1656047   1655857  
  8100.000000   1655608   1655098   1654179   1652786   1650961  
  8090.000000   1648837   1646617   1644523   1642761   1641473  
  8080.000000   1640717   1640457   1640568   1640875   1641177  
  8070.000000   1641302   1641140   1640657   1639898   1638957  
  8060.000000   1637955   1636986   1636109   1635317   1634562  
  8050.000000   1633775   1632889   1631886   1630789   1629685  
  8040.000000   1628678   1627874   1627338   1627063   1626966  
  8030.000000   1626890   1626648   1626063   1625025   1623534  
  8020.000000   1621706   1619764   1617983   1616625   1615871  
  8010.000000   1615768   1616222   1617009   1617844   1618443  
  8000.000000   1618596   1618208   1617310   1616037   1614585  
  7990.000000   1613166   1611958   1611085   1610596   1610471  
  7980.000000   1610625   1610934   1611241   1611399   1611281  
  7970.000000   1610814   1609986   1608845   1607490   1606032  
  7960.000000   1604581   1603211   1601967   1600865   1599914  
  7950.000000   1599125   1598516   1598104   1597886   1597825  
  7940.000000   1597852   1597876   1597823   1597653   1597388  
  7930.000000   1597092   1596851   1596726   1596732   1596818  
  7920.000000   1596896   1596869   1596678   1596321   1595853  
  7910.000000   1595355   1594904   1594531   1594225   1593936  
  7900.000000   1593614   1593230   1592803   1592383   1592034  
  7890.000000   1591811   1591733   1591800   1591988   1592287  
  7880.000000   1592692   1593206   1593820   1594490   1595135  
  7870.000000   1595644   1595910   1595862   1595497   1594878  
  7860.000000   1594116   1593338   1592648   1592116   1591755  
  7850.000000   1591553   1591470   1591461   1591469   1591430  
  7840.000000   1591270   1590923   1590344   1589535   1588550  
  7830.000000   1587487   1586457   1585558   1584835   1584287  
  7820.000000   1583871   1583547   1583286   1583099   1583006  
  7810.000000   1583016   1583094   1583150   1583059   1582697  
  7800.000000   1581995   1580954   1579665   1578265   1576902  
  7790.000000   1575688   1574679   1573882   1573269   1572821  
  7780.000000   1572526   1572390   1572406   1572539   1572717  
  7770.000000   1572835   1572788   1572491   1571915   1571075  
  7760.000000   1570032   1568858   1567632   1566416   1565271  
  7750.000000   1564254   1563419   1562810   1562436   1562273  
  7740.000000   1562244   1562257   1562214   1562057   1561778  
  7730.000000   1561415   1561032   1560680   1560379   1560095  
  7720.000000   1559775   1559353   1558797   1558105   1557317  
  7710.000000   1556478   1555627   1554782   1553943   1553108  
  7700.000000   1552298   1551558   1550957   1550564   1550416  
  7690.000000   1550503   1550756   1551073   1551340   1551477  
  7680.000000   1551454   1551296   1551072   1550856   1550713  
  7670.000000   1550662   1550686   1550723   1550701   1550537  
  7660.000000   1550178   1549596   1548814   1547895   1546943  
  7650.000000   1546081   1545426   1545071   1545056   1545366  
  7640.000000   1545929   1546639   1547370   1548013   1548490  
  7630.000000   1548761   1548830   1548723   1548487   1548153  
  7620.000000   1547757   1547310   1546827   1546314   1545792  
  7610.000000   1545291   1544858   1544559   1544457   1544616  
  7600.000000   1545067   1545809   1546798   1547947   1549146  
  7590.000000   1550271   1551217   1551906   1552313   1552456  
  7580.000000   1552401   1552230   1552037   1551898   1551866  
  7570.000000   1551959   1552164   1552446   1552755   1553051  
  7560.000000   1553310   1553531   1553736   1553961   1554244  
  7550.000000   1554614   1555088   1555656   1556305   1557004  
  7540.000000   1557731   1558455   1559159   1559812   1560398  
  7530.000000   1560899   1561327   1561711   1562120   1562638  
  7520.000000   1563361   1564368   1565705   1567367   1569303  
  7510.000000   1571421   1573618   1575790   1577854   1579737  
  7500.000000   1581398   1582797   1583930   1584807   1585485  
  7490.000000   1586044   1586602   1587276   1588170   1589341  
  7480.000000   1590788   1592457   1594265   1596128   1597985  
  7470.000000   1599811   1601618   1603432   1605282   1607179  
  7460.000000   1609120   1611088   1613077   1615077   1617096  
  7450.000000   1619128   1621161   1623154   1625061   1626836  
  7440.000000   1628470   1629990   1631467   1632993   1634656  
  7430.000000   1636517   1638592   1640859   1643272   1645776  
  7420.000000   1648330   1650898   1653447   1655933   1658309  
  7410.000000   1660521   1662548   1664406   1666168   1667939  
  7400.000000   1669834   1671930   1674243   1676716   1679243  
  7390.000000   1681708   1684029   1686187   1688220   1690206  
  7380.000000   1692222   1694310   1696459   1698614   1700707  
  7370.000000   1702683   1704532   1706287   1708012   1709780  
  7360.000000   1711647   1713635   1715736   1717916   1720131  
  7350.000000   1722338   1724497   1726579   1728568   1730459  
  7340.000000   1732267   1734025   1735781   1737587   1739478  
  7330.000000   1741468   1743537   1745642   1747725   1749743  
  7320.000000   1751667   1753511   1755299   1757071   1758847  
  7310.000000   1760630   1762385   1764064   1765600   1766946  
  7300.000000   1768070   1768978   1769699   1770290   1770818  
  7290.000000   1771353   1771949   1772635   1773409   1774241  
  7280.000000   1775081   1775875   1776579   1777181   1777709  
  7270.000000   1778235   1778858   1779684   1780799   1782234  
  7260.000000   1783965   1785893   1787880   1789760   1791399  
  7250.000000   1792700   1793657   1794322   1794823   1795305  
  7240.000000   1795924   1796788   1797965   1799460   1801248  
  7230.000000   1803271   1805475   1807795   1810182   1812582  
  7220.000000   1814958   1817266   1819498   1821644   1823742  
  7210.000000   1825828   1827971   1830218   1832630   1835233  
  7200.000000   1838059   1841114   1844413   1847940   1851682  
  7190.000000   1855576   1859554   1863509   1867356   1871021  
  7180.000000   1874503   1877842   1881149   1884545   1888165  
  7170.000000   1892086   1896343   1900885   1905623   1910419  
  7160.000000   1915157   1919730   1924097   1928256   1932273  
  7150.000000   1936235   1940271   1944490   1949001   1953849  
  7140.000000   1959052   1964557   1970299   1976184   1982142  
  7130.000000   1988111   1994068   1999995   2005911   2011823  
  7120.000000   2017776   2023789   2029911   2036152   2042525  
  7110.000000   2048992   2055517   2062039   2068535   2075005  
  7100.000000   2081514   2088146   2095001   2102132   2109538  
  7090.000000   2117142   2124825   2132457   2139957   2147297  
  7080.000000   2154526   2161717   2168950   2176248   2183585  
  7070.000000   2190877   2198037   2204995   2211745   2218332  
  7060.000000   2224849   2231393   2238045   2244855   2251840  
  7050.000000   2258996   2266309   2273761   2281326   2288964  
  7040.000000   2296617   2304219   2311699   2319008   2326123  
  7030.000000   2333051   2339816   2346458   2353003   2359480  
  7020.000000   2365898   2372277   2378615   2384918   2391155  
  7010.000000   2397293   2403265   2409025   2414533   2419803  
  7000.000000   2424873   2429827   2434723   2439621   2444516  
  6990.000000   2449400   2454228   2458992   2463684   2468339  
  6980.000000   2472968   2477578   2482114   2486506   2490655  
  6970.000000   2494500   2498008   2501220   2504207   2507077  
  6960.000000   2509917   2512801   2515756   2518791   2521876  
  6950.000000   2524981   2528047   2531029   2533867   2536532  
  6940.000000   2539009   2541334   2543559   2545760   2547992  
  6930.000000   2550285   2552622   2554961   2557244   2559434  
  6920.000000   2561510   2563486   2565369   2567176   2568895  
  6910.000000   2570518   2572035   2573469   2574861   2576274  
  6900.000000   2577752   2579309   2580901   2582456   2583882  
  6890.000000   2585115   2586135   2586976   2587702   2588395  
  6880.000000   2589112   2589894   2590748   2591678   2592678  
  6870.000000   2593748   2594872   2596026   2597168   2598251  
  6860.000000   2599240   2600123   2600922   2601672   2602403  
  6850.000000   2603120   2603797   2604393   2604877   2605256  
  6840.000000   2605582   2605950   2606448   2607138   2608014  
  6830.000000   2609020   2610060   2611043   2611905   2612627  
  6820.000000   2613217   2613696   2614076   2614359   2614544  
  6810.000000   2614652   2614723   2614827   2615021   2615346  
  6800.000000   2615786   2616292   2616785   2617203   2617505  
  6790.000000   2617694   2617785   2617795   2617715   2617522  
  6780.000000   2617185   2616703   2616103   2615456   2614835  
  6770.000000   2614302   2613863   2613492   2613129   2612729  
  6760.000000   2612271   2611776   2611273   2610787   2610305  
  6750.000000   2609778   2609146   2608368   2607451   2606453  
  6740.000000   2605462   2604562   2603793   2603144   2602559  
  6730.000000   2601971   2601335   2600644   2599921   2599197  
  6720.000000   2598481   2597753   2596963   2596075   2595077  
  6710.000000   2594015   2592963   2592009   2591205   2590558  
  6700.000000   2590012   2589483   2588877   2588129   2587205  
  6690.000000   2586109   2584860   2583494   2582045   2580559  
  6680.000000   2579087   2577681   2576375   2575177   2574045  
  6670.000000   2572910   2571693   2570344   2568860   2567298  
  6660.000000   2565741   2564271   2562918   2561658   2560412  
  6650.000000   2559097   2557652   2556076   2554419   2552762  
  6640.000000   2551166   2549655   2548192   2546713   2545146  
  6630.000000   2543458   2541660   2539813   2537990   2536257  
  6620.000000   2534634   2533109   2531628   2530131   2528558  
  6610.000000   2526874   2525065   2523143   2521133   2519075  
  6600.000000   2517013   2514989   2513031   2511146   2509316  
  6590.000000   2507507   2505680   2503812   2501904   2499981  
  6580.000000   2498077   2496221   2494421   2492662   2490920  
  6570.000000   2489176   2487437   2485732   2484106   2482589  
  6560.000000   2481184   2479850   2478525   2477135   2475639  
  6550.000000   2474032   2472357   2470680   2469070   2467571  
  6540.000000   2466200   2464944   2463776   2462672   2461611  
  6530.000000   2460581   2459568   2458551   2457510   2456423  
  6520.000000   2455288   2454114   2452928   2451757   2450626  
  6510.000000   2449535   2448477   2447433   2446390   2445343  
  6500.000000   2444300   2443274   2442275   2441308   2440373  
  6490.000000   2439467   2438593   2437759   2436966   2436206  
  6480.000000   2435455   2434674   2433825   2432880   2431840  
  6470.000000   2430728   2429585   2428450   2427348   2426281  
  6460.000000   2425238   2424211   2423198   2422220   2421303  
  6450.000000   2420477   2419747   2419099   2418496   2417897  
  6440.000000   2417261   2416560   2415778   2414899   2413913  
  6430.000000   2412806   2411578   2410252   2408882   2407544  
  6420.000000   2406321   2405271   2404413   2403718   2403129  
  6410.000000   2402582   2402038   2401493   2400977   2400530  
  6400.000000   2400180   2399920   2399713   2399498   2399228  
  6390.000000   2398873   2398441   2397957   2397458   2396969  
  6380.000000   2396496   2396030   2395561   2395085   2394613  
  6370.000000   2394164   2393755   2393392   2393056   2392720  
  6360.000000   2392349   2391921   2391428   2390886   2390318  
  6350.000000   2389751   2389205   2388689   2388193   2387704  
  6340.000000   2387192   2386629   2385989   2385258   2384439  
  6330.000000   2383560   2382662   2381795   2380993   2380272  
  6320.000000   2379605   2378944   2378222   2377387   2376407  
  6310.000000   2375292   2374072   2372801   2371516   2370254  
  6300.000000   2369017   2367809   2366616   2365437   2364254  
  6290.000000   2363059   2361820   2360510   2359091   2357548  
  6280.000000   2355875   2354094   2352234   2350333   2348408  
  6270.000000   2346470   2344508   2342520   2340499   2338457  
  6260.000000   2336405   2334359   2332315   2330268   2328201  
  6250.000000   2326108   2323995   2321887   2319810   2317788  
  6240.000000   2315814   2313864   2311891   2309850   2307710  
  6230.000000   2305472   2303162   2300821   2298490   2296197  
  6220.000000   2293949   2291737   2289541   2287343   2285130  
  6210.000000   2282897   2280646   2278386   2276131   2273906  
  6200.000000   2271737   2269649   2267659   2265762   2263934  
  6190.000000   2262130   2260304   2258414   2256444   2254398  
  6180.000000   2252300   2250183   2248077   2246003   2243974  
  6170.000000   2241999   2240086   2238238   2236452   2234713  
  6160.000000   2232995   2231265   2229500   2227693   2225862  
  6150.000000   2224041   2222269   2220566   2218927   2217322  
  6140.000000   2215708   2214052   2212345   2210607   2208881  
  6130.000000   2207210   2205623   2204121   2202685   2201282  
  6120.000000   2199889   2198497   2197119   2195772   2194473  
  6110.000000   2193221   2192005   2190805   2189611   2188420  
  6100.000000   2187250   2186119   2185050   2184042   2183091  
  6090.000000   2182175   2181277   2180384   2179499   2178628  
  6080.000000   2177787   2176978   2176208   2175473   2174778  
  6070.000000   2174127   2173537   2173015   2172576   2172216  
  6060.000000   2171932   2171708   2171542   2171426   2171379  
  6050.000000   2171408   2171538   2171776   2172135   2172602  
  6040.000000   2173176   2173829   2174553   2175322   2176135  
  6030.000000   2176984   2177890   2178871   2179962   2181182  
  6020.000000   2182545   2184029   2185605   2187216   2188815  
  6010.000000   2190358   2191831   2193228   2194572   2195875  
  6000.000000   2197158   2198426   2199694   2200972   2202286  
  5990.000000   2203659   2205119   2206677   2208334   2210073  
  5980.000000   2211880   2213740   2215664   2217666   2219775  
  5970.000000   2222003   2224355   2226807   2229338   2231916  
  5960.000000   2234536   2237193   2239908   2242679   2245509  
  5950.000000   2248368   2251229   2254057   2256846   2259605  
  5940.000000   2262377   2265207   2268139   2271196   2274381  
  5930.000000   2277675   2281051   2284476   2287923   2291364  
  5920.000000   2294766   2298096   2301318   2304404   2307341  
  5910.000000   2310136   2312812   2315401   2317931   2320426  
  5900.000000   2322897   2325358   2327818   2330302   2332824  
  5890.000000   2335407   2338044   2340721   2343399   2346037  
  5880.000000   2348598   2351060   2353419   2355680   2357853  
  5870.000000   2359943   2361953   2363883   2365743   2367558  
  5860.000000   2369362   2371196   2373096   2375079   2377146  
  5850.000000   2379283   2381469   2383686   2385924   2388183  
  5840.000000   2390465   2392775   2395116   2397487   2399884  
  5830.000000   2402302   2404730   2407153   2409546   2411885  
  5820.000000   2414142   2416303   2418361   2420333   2422228  
  5810.000000   2424064   2425834   2427530   2429116   2430580  
  5800.000000   2431897   2433089   2434163   2435163   2436094  
  5790.000000   2436975   2437778   2438485   2439044   2439423  
  5780.000000   2439569   2439452   2439030   2438289   2437222  
  5770.000000   2435866   2434280   2432560   2430807   2429118  
  5760.000000   2427557   2426159   2424920   2423826   2422855  
  5750.000000   2422001   2421268   2420665   2420201   2419864  
  5740.000000   2419642   2419505   2419440   2419429   2419472  
  5730.000000   2419556   2419674   2419791   2419882   2419911  
  5720.000000   2419873   2419775   2419663   2419582   2419585  
  5710.000000   2419703   2419949   2420315   2420780   2421321  
  5700.000000   2421916   2422546   2423191   2423832   2424447  
  5690.000000   2425024   2425557   2426054   2426529   2426998  
  5680.000000   2427463   2427917   2428333   2428681   2428923  
  5670.000000   2429036   2428995   2428792   2428414   2427862  
  5660.000000   2427139   2426273   2425304   2424294   2423300  
  5650.000000   2422376   2421544   2420803   2420120   2419462  
  5640.000000   2418790   2418089   2417355   2416603   2415845  
  5630.000000   2415093   2414353   2413628   2412929   2412266  
  5620.000000   2411651   2411088   2410565   2410055   2409523  
  5610.000000   2408941   2408295   2407598   2406876   2406165  
  5600.000000   2405488   2404855   2404255   2403670   2403082  
  5590.000000   2402480   2401860   2401223   2400556   2399845  
  5580.000000   2399060   2398185   2397214   2396167   2395079  
  5570.000000   2393990   2392926   2391893   2390867   2389816  
  5560.000000   2388704   2387517   2386258   2384955   2383639  
  5550.000000   2382348   2381101   2379910   2378772   2377680  
  5540.000000   2376620   2375576   2374531   2373466   2372368  
  5530.000000   2371235   2370079   2368923   2367797   2366724  
  5520.000000   2365713   2364757   2363836   2362925   2362008  
  5510.000000   2361078   2360137   2359190   2358231   2357254  
  5500.000000   2356243   2355189   2354094   2352975   2351849  
  5490.000000   2350735   2349627   2348504   2347328   2346067  
  5480.000000   2344701   2343236   2341697   2340122   2338541  
  5470.000000   2336977   2335428   2333893   2332360   2330832  
  5460.000000   2329303   2327775   2326233   2324655   2323012  
  5450.000000   2321287   2319477   2317604   2315705   2313817  
  5440.000000   2311962   2310142   2308341   2306536   2304719  
  5430.000000   2302892   2301078   2299297   2297567   2295888  
  5420.000000   2294264   2292694   2291205   2289826   2288608  
  5410.000000   2287570   2286718   2286008   2285396   2284821  
  5400.000000   2284267   2283728   2283252   2282871   2282638  
  5390.000000   2282556   2282635   2282850   2283209   2283713  
  5380.000000   2284403   2285290   2286400   2287693   2289145  
  5370.000000   2290681   2292284   2293915   2295622   2297419  
  5360.000000   2299389   2301549   2303968   2306642   2309631  
  5350.000000   2312923   2316580   2320585   2324985   2329734  
  5340.000000   2334867   2340336   2346203   2352449   2359164  
  5330.000000   2366323   2373989   2382090   2390655   2399602  
  5320.000000   2408997   2418815   2429189   2440130   2451780  
  5310.000000   2464111   2477214   2491007   2505552   2520776  
  5300.000000   2536772   2553513   2571126   2589601   2609054  
  5290.000000   2629432   2650781   2672976   2695979   2719627  
  5280.000000   2743885   2768655   2794002   2819940   2846594  
  5270.000000   2873976   2902085   2930764   2959803   2988933  
  5260.000000   3017938   3046696   3075193   3103519   3131744  
  5250.000000   3159930   3187977   3215754   3242981   3269494  
  5240.000000   3295086   3319787   3343585   3366665   3389067  
  5230.000000   3410934   3432185   3452819   3472636   3491596  
  5220.000000   3509535   3526523   3542528   3557736   3572177  
  5210.000000   3586031   3599254   3611907   3623829   3635009  
  5200.000000   3645288   3654724   3663266   3671066   3678126  
  5190.000000   3684586   3690394   3695615   3700149   3704042  
  5180.000000   3707217   3709758   3711623   3712903   3713545  
  5170.000000   3713617   3713064   3711972   3710333   3708270  
  5160.000000   3705798   3703018   3699897   3696469   3692654  
  5150.000000   3688463   3683845   3678854   3673492   3667841  
  5140.000000   3661914   3655779   3649434   3642931   3636267  
  5130.000000   3629495   3622617   3615674   3608655   3601579  
  5120.000000   3594428   3587218   3579943   3572630   3565284  
  5110.000000   3557924   3550543   3543143   3535713   3528263  
  5100.000000   3520801   3513358   3505955   3498614   3491336  
  5090.000000   3484113   3476921   3469740   3462548   3455337  
  5080.000000   3448102   3440844   3433561   3426253   3418918  
  5070.000000   3411563   3404193   3396827   3389477   3382155  
  5060.000000   3374861   3367590   3360328   3353066   3345792  
  5050.000000   3338506   3331205   3323890   3316556   3309198  
  5040.000000   3301814   3294404   3286984   3279573   3272201  
  5030.000000   3264891   3257667   3250535   3243501   3236556  
  5020.000000   3229708   3222952   3216308   3209779   3203390  
  5010.000000   3197141   3191052   3185112   3179340   3173728  
  5000.000000   3168302   3163052   3158004   3153137   3148469  
  4990.000000   3143969   3139656   3135507   3131562   3127818  
  4980.000000   3124331   3121102   3118186   3115569   3113295  
  4970.000000   3111342   3109750   3108498   3107625   3107101  
  4960.000000   3106956   3107144   3107682   3108514   3109661  
  4950.000000   3111078   3112802   3114805   3117138   3119783  
  4940.000000   3122792   3126145   3129886   3133981   3138460  
  4930.000000   3143274   3148438   3153899   3159674   3165722  
  4920.000000   3172075   3178704   3185644   3192866   3200390  
  4910.000000   3208175   3216228   3224509   3233024   3241743  
  4900.000000   3250672   3259783   3269067   3278488   3288022  
  4890.000000   3297630   3307279   3316938   3326576   3336168  
  4880.000000   3345685   3355106   3364398   3373542   3382494  
  4870.000000   3391235   3399715   3407920   3415814   3423404  
  4860.000000   3430678   3437672   3444387   3450867   3457105  
  4850.000000   3463133   3468935   3474539   3479933   3485157  
  4840.000000   3490209   3495131   3499912   3504579   3509111  
  4830.000000   3513521   3517788   3521928   3525925   3529797  
  4820.000000   3533521   3537102   3540513   3543754   3546805  
  4810.000000   3549679   3552376   3554924   3557327   3559614  
  4800.000000   3561789   3563876   3565881   3567831   3569734  
  4790.000000   3571617   3573477   3575328   3577153   3578955  
  4780.000000   3580715   3582437   3584110   3585741   3587318  
  4770.000000   3588842   3590292   3591666   3592942   3594126  
  4760.000000   3595201   3596175   3597030   3597764   3598347  
  4750.000000   3598773   3599012   3599067   3598926   3598608  
  4740.000000   3598111   3597463   3596662   3595732   3594667  
  4730.000000   3593488   3592183   3590764   3589214   3587536  
  4720.000000   3585712   3583748   3581644   3579427   3577124  
  4710.000000   3574775   3572414   3570072   3567766   3565504  
  4700.000000   3563288   3561123   3559016   3556986   3555053  
  4690.000000   3553241   3551566   3550031   3548628   3547332  
  4680.000000   3546113   3544927   3543736   3542496   3541181  
  4670.000000   3539763   3538245   3536635   3534975   3533301  
  4660.000000   3531675   3530137   3528735   3527486   3526409  
  4650.000000   3525498   3524755   3524170   3523743   3523466  
  4640.000000   3523339   3523347   3523483   3523724   3524057  
  4630.000000   3524458   3524912   3525397   3525899   3526395  
  4620.000000   3526873   3527313   3527706   3528040   3528310  
  4610.000000   3528512   3528642   3528705   3528702   3528649  
  4600.000000   3528559   3528453   3528343   3528244   3528149  
  4590.000000   3528056   3527943   3527799   3527607   3527365  
  4580.000000   3527066   3526717   3526312   3525853   3525326  
  4570.000000   3524732   3524060   3523319   3522509   3521645  
  4560.000000   3520727   3519761   3518742   3517668   3516533  
  4550.000000   3515346   3514118   3512868   3511617   3510381  
  4540.000000   3509174   3508001   3506868   3505770   3504715  
  4530.000000   3503696   3502730   3501808   3500952   3500158  
  4520.000000   3499462   3498866   3498425   3498149   3498105  
  4510.000000   3498301   3498807   3499626   3500832   3502422  
  4500.000000   3504473   3506972   3509989   3513494   3517552  
  4490.000000   3522123   3527280   3532993   3539347   3546322  
  4480.000000   3553997   3562341   3571409   3581146   3591573  
  4470.000000   3602614   3614265   3626430   3639088   3652137  
  4460.000000   3665546   3679218   3693120   3707166   3721317  
  4450.000000   3735491   3749643   3763704   3777640   3791421  
  4440.000000   3805042   3818520   3831867   3845117   3858265  
  4430.000000   3871332   3884273   3897092   3909716   3922149  
  4420.000000   3934309   3946207   3957759   3968974   3979755  
  4410.000000   3990094   3999873   4009063   4017527   4025232  
  4400.000000   4032061   4038016   4043043   4047213   4050550  
  4390.000000   4053182   4055182   4056690   4057783   4058583  
  4380.000000   4059156   4059611   4060025   4060517   4061187  
  4370.000000   4062156   4063524   4065371   4067751   4070676  
  4360.000000   4074142   4078113   4082551   4087405   4092625  
  4350.000000   4098160   4103948   4109939   4116069   4122306  
  4340.000000   4128604   4134939   4141247   4147437   4153332  
  4330.000000   4158707   4163263   4166723   4168851   4169566  
  4320.000000   4168929   4167205   4164752   4162026   4159402  
  4310.000000   4157206   4155571   4154544   4154016   4153879  
  4300.000000   4153970   4154194   4154460   4154733   4154977  
  4290.000000   4155173   4155300   4155345   4155311   4155214  
  4280.000000   4155086   4154973   4154904   4154921   4155033  
  4270.000000   4155264   4155595   4156014   4156441   4156781  
  4260.000000   4156865   4156517   4155542   4153804   4151230  
  4250.000000   4147870   4143858   4139425   4134818   4130290  
  4240.000000   4126022   4122139   4118661   4115566   4112770  
  4230.000000   4110188   4107727   4105313   4102895   4100434  
  4220.000000   4097926   4095369   4092802   4090251   4087787  
  4210.000000   4085443   4083286   4081334   4079626   4078155  
  4200.000000   4076936   4075947   4075190   4074633   4074272  
  4190.000000   4074061   4073998   4074035   4074188   4074426  
  4180.000000   4074789   4075263   4075905   4076711   4077752  
  4170.000000   4079041   4080673   4082682   4085176   4088181  
  4160.000000   4091774   4095927   4100656   4105876   4111573  
  4150.000000   4117654   4124129   4130938   4138137   4145702  
  4140.000000   4153715   4162163   4171124   4180570   4190552  
  4130.000000   4201014   4211978   4223373   4235214   4247450  
  4120.000000   4260122   4273214   4286789   4300841   4315419  
  4110.000000   4330485   4346040   4362008   4378353   4394983  
  4100.000000   4411856   4428896   4446082   4463372   4480772  
  4090.000000   4498274   4515897   4533644   4551520   4569524  
  4080.000000   4587641   4605867   4624174   4642561   4660983  
  4070.000000   4679423   4697805   4716094   4734194   4752078  
  4060.000000   4769666   4786963   4803899   4820494   4836667  
  4050.000000   4852442   4867736   4882595   4896950   4910862  
  4040.000000   4924245   4937135   4949400   4961054   4971953  
  4030.000000   4982135   4991482   5000051   5007738   5014574  
  4020.000000   5020406   5025266   5029090   5031946   5033753  
  4010.000000   5034666   5034778   5034122   5032436   5029837  
  4000.000000   5026789  
##END= 
