##TITLE= Sample 029 By ssteindl date Montag, November 19 2018
##JCAMP-DX= 4.24
##DATA TYPE= INFRARED SPECTRUM
##ORIGIN= Exported PE Spectrum Data File
##OWNER= Sandra Steindl
##DATE= 18/11/19
##TIME= 17:58:03.00
##SPECTROMETER/DATA SYSTEM= PERKIN-ELMER Frontier FT-IR/NIR IR
##INSTRUMENT PARAMETERS=
  APODIZATION=stark
  DETECTOR=INGAAS
##RESOLUTION= 16.000000
##DELTAX= -2.000000
##XUNITS= 1/CM
##YUNITS= A
##XFACTOR= 1.00
##YFACTOR= 0.00000011920928955078
##FIRSTX= 10000.00
##LASTX= 4000.00
##NPOINTS= 3001
##FIRSTY= 0.208114
##MAXY= 0.651048
##MINY= 0.176200
##XYDATA= (X++(Y..Y))
 10000.000000   1745782   1744138   1741998   1738463   1733058  
  9990.000000   1725763   1716955   1707493   1698766   1692333  
  9980.000000   1689234   1689683   1693071   1698252   1703965  
  9970.000000   1709194   1713400   1716388   1718124   1718492  
  9960.000000   1717308   1714438   1710096   1704953   1700128  
  9950.000000   1696813   1695898   1697556   1701161   1705490  
  9940.000000   1709084   1710779   1709911   1706531   1701211  
  9930.000000   1694898   1688676   1683572   1680463   1679869  
  9920.000000   1681858   1685845   1690639   1694598   1696107  
  9910.000000   1694117   1688614   1680773   1672629   1666427  
  9900.000000   1663819   1665312   1670166   1676750   1683204  
  9890.000000   1688083   1690730   1691317   1690480   1688951  
  9880.000000   1687166   1685244   1683100   1680716   1678295  
  9870.000000   1676203   1674783   1674087   1673770   1673183  
  9860.000000   1671639   1668726   1664479   1659327   1653913  
  9850.000000   1648768   1644215   1640308   1637044   1634504  
  9840.000000   1632958   1632780   1634250   1637354   1641687  
  9830.000000   1646570   1651274   1655286   1658455   1660915  
  9820.000000   1662972   1664780   1666344   1667411   1667730  
  9810.000000   1667149   1665740   1663770   1661520   1659253  
  9800.000000   1657068   1655123   1653605   1652925   1653482  
  9790.000000   1655558   1658968   1663006   1666511   1668218  
  9780.000000   1667189   1663160   1656636   1648712   1640674  
  9770.000000   1633571   1627973   1623922   1621185   1619438  
  9760.000000   1618497   1618209   1618367   1618526   1618035  
  9750.000000   1616269   1612942   1608414   1603720   1600318  
  9740.000000   1599625   1602464   1608775   1617553   1627192  
  9730.000000   1635936   1642370   1645692   1645765   1642968  
  9720.000000   1638021   1631779   1625222   1619335   1615078  
  9710.000000   1613108   1613561   1615890   1618895   1621134  
  9700.000000   1621366   1619124   1614893   1610026   1606249  
  9690.000000   1605000   1606902   1611490   1617439   1623060  
  9680.000000   1626949   1628469   1627879   1626146   1624495  
  9670.000000   1623964   1625070   1627708   1631258   1634785  
  9660.000000   1637342   1638162   1636849   1633456   1628448  
  9650.000000   1622690   1617196   1612984   1610747   1610695  
  9640.000000   1612483   1615310   1618196   1620257   1620951  
  9630.000000   1620175   1618172   1615418   1612397   1609545  
  9620.000000   1607183   1605593   1605035   1605715   1607690  
  9610.000000   1610736   1614301   1617557   1619605   1619702  
  9600.000000   1617512   1613186   1607359   1600943   1594909  
  9590.000000   1590054   1586866   1585514   1585868   1587623  
  9580.000000   1590337   1593514   1596622   1599158   1600708  
  9570.000000   1601021   1600071   1598047   1595336   1592404  
  9560.000000   1589760   1587841   1586977   1587339   1588851  
  9550.000000   1591212   1593860   1596134   1597397   1597231  
  9540.000000   1595575   1592715   1589230   1585727   1582682  
  9530.000000   1580222   1578187   1576226   1574068   1571710  
  9520.000000   1569468   1567898   1567509   1568591   1571014  
  9510.000000   1574327   1577887   1581116   1583667   1585462  
  9500.000000   1586621   1587282   1587499   1587161   1586115  
  9490.000000   1584264   1581724   1578799   1575908   1573407  
  9480.000000   1571435   1569913   1568568   1567162   1565572  
  9470.000000   1563941   1562572   1561833   1561932   1562830  
  9460.000000   1564216   1565639   1566664   1567018   1566653  
  9450.000000   1565689   1564349   1562823   1561230   1559573  
  9440.000000   1557821   1555914   1553867   1551721   1549562  
  9430.000000   1547455   1545450   1543596   1541960   1540669  
  9420.000000   1539893   1539813   1540578   1542233   1544689  
  9410.000000   1547713   1550948   1554000   1556499   1558196  
  9400.000000   1558992   1558967   1558365   1557518   1556796  
  9390.000000   1556425   1556459   1556656   1556605   1555807  
  9380.000000   1553851   1550588   1546164   1541134   1536284  
  9370.000000   1532587   1530867   1531663   1535011   1540444  
  9360.000000   1547060   1553679   1559079   1562205   1562425  
  9350.000000   1559648   1554390   1547627   1540607   1534525  
  9340.000000   1530307   1528402   1528730   1530734   1533517  
  9330.000000   1536136   1537776   1538011   1536792   1534471  
  9320.000000   1531647   1529025   1527246   1526676   1527338  
  9310.000000   1528860   1530654   1532068   1532623   1532131  
  9300.000000   1530736   1528843   1526943   1525411   1524397  
  9290.000000   1523763   1523257   1522607   1521720   1520681  
  9280.000000   1519722   1519105   1518976   1519360   1520137  
  9270.000000   1521186   1522453   1524020   1526033   1528565  
  9260.000000   1531481   1534385   1536717   1537926   1537677  
  9250.000000   1535979   1533199   1529950   1526862   1524398  
  9240.000000   1522702   1521666   1521009   1520472   1519870  
  9230.000000   1519134   1518245   1517159   1515787   1513992  
  9220.000000   1511711   1508976   1505993   1503066   1500540  
  9210.000000   1498676   1497612   1497370   1497932   1499281  
  9200.000000   1501412   1504264   1507651   1511203   1514396  
  9190.000000   1516653   1517552   1517001   1515348   1513244  
  9180.000000   1511468   1510626   1511002   1512409   1514276  
  9170.000000   1515865   1516514   1515900   1514047   1511374  
  9160.000000   1508495   1506146   1504933   1505235   1507082  
  9150.000000   1510166   1513900   1517469   1519997   1520752  
  9140.000000   1519383   1515996   1511148   1505713   1500686  
  9130.000000   1496890   1494770   1494312   1495140   1496693  
  9120.000000   1498402   1499861   1500872   1501441   1501674  
  9110.000000   1501684   1501552   1501312   1501042   1500809  
  9100.000000   1500718   1500811   1501092   1501487   1501880  
  9090.000000   1502177   1502352   1502490   1502715   1503148  
  9080.000000   1503799   1504567   1505251   1505652   1505651  
  9070.000000   1505287   1504718   1504161   1503759   1503535  
  9060.000000   1503353   1503015   1502317   1501185   1499694  
  9050.000000   1498049   1496485   1495151   1494067   1493102  
  9040.000000   1492075   1490790   1489148   1487153   1484942  
  9030.000000   1482715   1480692   1479103   1478162   1478069  
  9020.000000   1478939   1480802   1483546   1486894   1490425  
  9010.000000   1493646   1496153   1497681   1498197   1497833  
  9000.000000   1496860   1495532   1494036   1492446   1490792  
  8990.000000   1489131   1487594   1486413   1485830   1486027  
  8980.000000   1486993   1488527   1490248   1491737   1492641  
  8970.000000   1492798   1492272   1491308   1490245   1489396  
  8960.000000   1488992   1489121   1489765   1490796   1492040  
  8950.000000   1493269   1494238   1494719   1494553   1493726  
  8940.000000   1492383   1490857   1489578   1488978   1489356  
  8930.000000   1490768   1493023   1495716   1498359   1500497  
  8920.000000   1501804   1502150   1501582   1500310   1498642  
  8910.000000   1496953   1495652   1495109   1495582   1497113  
  8900.000000   1499474   1502193   1504637   1506202   1506480  
  8890.000000   1505438   1503418   1501046   1498994   1497769  
  8880.000000   1497561   1498206   1499297   1500336   1500945  
  8870.000000   1500945   1500375   1499396   1498194   1496908  
  8860.000000   1495616   1494397   1493374   1492735   1492697  
  8850.000000   1493429   1494968   1497166   1499717   1502243  
  8840.000000   1504418   1506028   1507001   1507342   1507134  
  8830.000000   1506436   1505345   1503966   1502504   1501222  
  8820.000000   1500413   1500302   1500951   1502264   1504002  
  8810.000000   1505932   1507900   1509925   1512149   1514728  
  8800.000000   1517702   1520900   1523972   1526480   1528084  
  8790.000000   1528664   1528399   1527688   1527015   1526761  
  8780.000000   1527098   1527961   1529125   1530318   1531323  
  8770.000000   1532034   1532441   1532598   1532577   1532469  
  8760.000000   1532388   1532504   1533016   1534118   1535913  
  8750.000000   1538355   1541226   1544190   1546902   1549112  
  8740.000000   1550752   1551896   1552717   1553339   1553804  
  8730.000000   1554021   1553863   1553249   1552243   1551088  
  8720.000000   1550143   1549800   1550345   1551890   1554333  
  8710.000000   1557388   1560671   1563751   1566258   1567895  
  8700.000000   1568534   1568207   1567177   1565881   1564893  
  8690.000000   1564764   1565885   1568366   1571995   1576313  
  8680.000000   1580742   1584787   1588165   1590869   1593098  
  8670.000000   1595111   1597092   1599038   1600816   1602201  
  8660.000000   1603049   1603357   1603314   1603245   1603477  
  8650.000000   1604270   1605681   1607652   1609981   1612480  
  8640.000000   1614986   1617419   1619754   1621955   1623952  
  8630.000000   1625595   1626725   1627172   1626862   1625822  
  8620.000000   1624255   1622488   1620934   1620011   1620044  
  8610.000000   1621217   1623482   1626613   1630229   1633919  
  8600.000000   1637335   1640275   1642721   1644784   1646629  
  8590.000000   1648358   1649980   1651384   1652445   1653079  
  8580.000000   1653351   1653461   1653700   1654335   1655491  
  8570.000000   1657115   1658963   1660729   1662144   1663107  
  8560.000000   1663718   1664234   1664972   1666172   1667918  
  8550.000000   1670094   1672433   1674619   1676390   1677639  
  8540.000000   1678416   1678931   1679458   1680271   1681528  
  8530.000000   1683252   1685312   1687448   1689332   1690643  
  8520.000000   1691173   1690849   1689762   1688137   1686293  
  8510.000000   1684559   1683200   1682390   1682203   1682642  
  8500.000000   1683658   1685184   1687145   1689447   1691950  
  8490.000000   1694468   1696797   1698734   1700154   1701011  
  8480.000000   1701413   1701548   1701687   1702071   1702892  
  8470.000000   1704221   1706001   1708075   1710221   1712237  
  8460.000000   1713988   1715440   1716669   1717822   1719069  
  8450.000000   1720516   1722163   1723889   1725489   1726766  
  8440.000000   1727584   1727982   1728151   1728432   1729163  
  8430.000000   1730598   1732781   1735521   1738422   1740974  
  8420.000000   1742701   1743278   1742623   1740903   1738482  
  8410.000000   1735851   1733519   1731911   1731281   1731693  
  8400.000000   1733024   1734997   1737224   1739314   1740940  
  8390.000000   1741926   1742251   1742050   1741576   1741113  
  8380.000000   1740915   1741120   1741752   1742719   1743870  
  8370.000000   1745039   1746092   1746967   1747660   1748223  
  8360.000000   1748713   1749184   1749650   1750106   1750517  
  8350.000000   1750860   1751121   1751331   1751548   1751853  
  8340.000000   1752308   1752940   1753700   1754478   1755104  
  8330.000000   1755400   1755217   1754508   1753335   1751885  
  8320.000000   1750406   1749170   1748401   1748217   1748594  
  8310.000000   1749357   1750230   1750898   1751086   1750624  
  8300.000000   1749490   1747841   1745979   1744289   1743128  
  8290.000000   1742742   1743194   1744351   1745911   1747472  
  8280.000000   1748630   1749086   1748715   1747573   1745880  
  8270.000000   1743929   1742036   1740440   1739269   1738508  
  8260.000000   1738037   1737685   1737295   1736787   1736174  
  8250.000000   1735575   1735162   1735109   1735501   1736298  
  8240.000000   1737325   1738329   1739052   1739319   1739097  
  8230.000000   1738503   1737756   1737088   1736649   1736453  
  8220.000000   1736368   1736174   1735641   1734615   1733056  
  8210.000000   1731061   1728807   1726525   1724409   1722621  
  8200.000000   1721231   1720260   1719646   1719286   1719011  
  8190.000000   1718637   1717979   1716913   1715400   1713506  
  8180.000000   1711383   1709208   1707138   1705244   1703523  
  8170.000000   1701900   1700303   1698697   1697114   1695637  
  8160.000000   1694340   1693259   1692348   1691513   1690651  
  8150.000000   1689706   1688714   1687780   1687045   1686589  
  8140.000000   1686389   1686288   1686049   1685425   1684261  
  8130.000000   1682544   1680418   1678132   1675969   1674166  
  8120.000000   1672856   1672056   1671674   1671554   1671504  
  8110.000000   1671348   1670943   1670209   1669137   1667791  
  8100.000000   1666297   1664811   1663480   1662391   1661565  
  8090.000000   1660925   1660356   1659721   1658933   1657961  
  8080.000000   1656844   1655660   1654501   1653444   1652544  
  8070.000000   1651836   1651348   1651098   1651091   1651299  
  8060.000000   1651649   1652025   1652285   1652303   1652006  
  8050.000000   1651388   1650509   1649462   1648334   1647176  
  8040.000000   1645997   1644782   1643515   1642214   1640929  
  8030.000000   1639729   1638665   1637744   1636912   1636075  
  8020.000000   1635129   1634011   1632726   1631349   1630008  
  8010.000000   1628833   1627919   1627297   1626926   1626716  
  8000.000000   1626559   1626361   1626071   1625681   1625225  
  7990.000000   1624750   1624304   1623900   1623520   1623106  
  7980.000000   1622591   1621907   1621030   1619990   1618879  
  7970.000000   1617833   1616991   1616460   1616266   1616355  
  7960.000000   1616597   1616833   1616928   1616807   1616483  
  7950.000000   1616033   1615570   1615179   1614892   1614671  
  7940.000000   1614433   1614091   1613606   1613015   1612427  
  7930.000000   1611994   1611848   1612058   1612583   1613290  
  7920.000000   1613975   1614443   1614552   1614266   1613654  
  7910.000000   1612860   1612053   1611365   1610853   1610488  
  7900.000000   1610185   1609828   1609335   1608666   1607839  
  7890.000000   1606909   1605940   1604993   1604115   1603355  
  7880.000000   1602772   1602447   1602467   1602895   1603735  
  7870.000000   1604907   1606238   1607509   1608499   1609060  
  7860.000000   1609162   1608898   1608455   1608049   1607845  
  7850.000000   1607908   1608177   1608501   1608687   1608576  
  7840.000000   1608085   1607231   1606108   1604847   1603558  
  7830.000000   1602313   1601125   1599978   1598859   1597787  
  7820.000000   1596827   1596072   1595605   1595469   1595627  
  7810.000000   1595974   1596351   1596599   1596607   1596334  
  7800.000000   1595827   1595181   1594508   1593880   1593320  
  7790.000000   1592785   1592201   1591494   1590624   1589604  
  7780.000000   1588488   1587367   1586328   1585446   1584760  
  7770.000000   1584287   1584010   1583894   1583881   1583890  
  7760.000000   1583830   1583605   1583145   1582420   1581462  
  7750.000000   1580353   1579219   1578178   1577322   1576682  
  7740.000000   1576234   1575910   1575626   1575313   1574930  
  7730.000000   1574477   1573976   1573470   1573001   1572603  
  7720.000000   1572299   1572092   1571969   1571890   1571804  
  7710.000000   1571643   1571346   1570871   1570208   1569380  
  7700.000000   1568441   1567459   1566503   1565637   1564912  
  7690.000000   1564374   1564054   1563969   1564100   1564386  
  7680.000000   1564722   1564971   1565004   1564734   1564155  
  7670.000000   1563330   1562392   1561478   1560701   1560107  
  7660.000000   1559682   1559374   1559132   1558938   1558817  
  7650.000000   1558815   1558968   1559262   1559631   1559963  
  7640.000000   1560154   1560133   1559910   1559555   1559189  
  7630.000000   1558931   1558862   1559010   1559355   1559848  
  7620.000000   1560442   1561095   1561773   1562432   1563013  
  7610.000000   1563439   1563647   1563604   1563346   1562958  
  7600.000000   1562568   1562289   1562196   1562291   1562521  
  7590.000000   1562798   1563048   1563247   1563428   1563674  
  7580.000000   1564075   1564692   1565527   1566520   1567573  
  7570.000000   1568571   1569434   1570117   1570640   1571045  
  7560.000000   1571402   1571758   1572144   1572556   1572979  
  7550.000000   1573393   1573800   1574225   1574725   1575363  
  7540.000000   1576200   1577256   1578509   1579881   1581275  
  7530.000000   1582583   1583751   1584774   1585723   1586704  
  7520.000000   1587836   1589200   1590825   1592670   1594658  
  7510.000000   1596686   1598683   1600597   1602417   1604129  
  7500.000000   1605727   1607184   1608488   1609645   1610719  
  7490.000000   1611822   1613102   1614697   1616688   1619058  
  7480.000000   1621689   1624394   1626978   1629291   1631273  
  7470.000000   1632962   1634472   1635941   1637485   1639163  
  7460.000000   1640980   1642893   1644857   1646830   1648807  
  7450.000000   1650792   1652803   1654841   1656901   1658967  
  7440.000000   1661034   1663112   1665233   1667437   1669765  
  7430.000000   1672231   1674827   1677517   1680254   1682992  
  7420.000000   1685697   1688352   1690957   1693515   1696034  
  7410.000000   1698518   1700976   1703413   1705839   1708260  
  7400.000000   1710676   1713075   1715441   1717757   1720018  
  7390.000000   1722235   1724437   1726667   1728962   1731352  
  7380.000000   1733845   1736436   1739103   1741824   1744574  
  7370.000000   1747332   1750068   1752750   1755342   1757814  
  7360.000000   1760158   1762386   1764540   1766670   1768823  
  7350.000000   1771021   1773257   1775506   1777738   1779943  
  7340.000000   1782136   1784356   1786644   1789020   1791464  
  7330.000000   1793924   1796325   1798609   1800750   1802774  
  7320.000000   1804736   1806708   1808736   1810831   1812957  
  7310.000000   1815059   1817075   1818973   1820748   1822429  
  7300.000000   1824042   1825617   1827150   1828628   1830024  
  7290.000000   1831322   1832516   1833616   1834634   1835583  
  7280.000000   1836461   1837269   1838002   1838674   1839307  
  7270.000000   1839939   1840609   1841351   1842191   1843141  
  7260.000000   1844209   1845388   1846667   1848013   1849386  
  7250.000000   1850726   1851996   1853167   1854269   1855360  
  7240.000000   1856546   1857919   1859556   1861461   1863608  
  7230.000000   1865912   1868309   1870734   1873184   1875659  
  7220.000000   1878194   1880789   1883446   1886137   1888864  
  7210.000000   1891639   1894528   1897603   1900947   1904588  
  7200.000000   1908510   1912623   1916826   1921003   1925098  
  7190.000000   1929080   1932982   1936832   1940678   1944520  
  7180.000000   1948367   1952203   1956051   1959943   1963952  
  7170.000000   1968135   1972548   1977187   1982029   1987003  
  7160.000000   1992050   1997109   2002165   2007214   2012299  
  7150.000000   2017456   2022757   2028254   2034013   2040053  
  7140.000000   2046375   2052906   2059554   2066185   2072714  
  7130.000000   2079080   2085324   2091527   2097832   2104348  
  7120.000000   2111163   2118273   2125636   2133161   2140793  
  7110.000000   2148495   2156292   2164209   2172280   2180479  
  7100.000000   2188761   2197031   2205225   2213296   2221266  
  7090.000000   2229184   2237131   2245168   2253341   2261656  
  7080.000000   2270104   2278661   2287303   2295995   2304694  
  7070.000000   2313329   2321832   2330129   2338189   2346018  
  7060.000000   2353677   2361256   2368858   2376568   2384442  
  7050.000000   2392500   2400732   2409112   2417597   2426141  
  7040.000000   2434680   2443148   2451476   2459616   2467544  
  7030.000000   2475278   2482852   2490318   2497709   2505040  
  7020.000000   2512297   2519472   2526556   2533580   2540574  
  7010.000000   2547584   2554607   2561618   2568527   2575253  
  7000.000000   2581715   2587902   2593843   2599637   2605371  
  6990.000000   2611135   2616941   2622770   2628535   2634158  
  6980.000000   2639550   2644673   2649498   2654048   2658340  
  6970.000000   2662426   2666343   2670157   2673908   2677652  
  6960.000000   2681400   2685158   2688884   2692540   2696067  
  6950.000000   2699444   2702656   2705736   2708712   2711638  
  6940.000000   2714537   2717435   2720319   2723179   2725984  
  6930.000000   2728715   2731344   2733865   2736268   2738561  
  6920.000000   2740743   2742818   2744774   2746603   2748295  
  6910.000000   2749864   2751340   2752788   2754274   2755862  
  6900.000000   2757566   2759358   2761155   2762862   2764396  
  6890.000000   2765734   2766912   2768026   2769181   2770461  
  6880.000000   2771886   2773418   2774978   2776484   2777884  
  6870.000000   2779176   2780387   2781563   2782726   2783876  
  6860.000000   2784987   2786039   2787032   2788004   2789007  
  6850.000000   2790090   2791263   2792496   2793713   2794837  
  6840.000000   2795813   2796637   2797349   2798021   2798714  
  6830.000000   2799465   2800266   2801090   2801895   2802662  
  6820.000000   2803384   2804076   2804744   2805389   2805985  
  6810.000000   2806512   2806945   2807290   2807564   2807799  
  6800.000000   2808014   2808212   2808373   2808471   2808476  
  6790.000000   2808383   2808198   2807943   2807637   2807302  
  6780.000000   2806949   2806600   2806280   2806025   2805860  
  6770.000000   2805794   2805795   2805806   2805749   2805565  
  6760.000000   2805225   2804752   2804198   2803633   2803100  
  6750.000000   2802615   2802154   2801682   2801162   2800586  
  6740.000000   2799959   2799305   2798629   2797927   2797175  
  6730.000000   2796357   2795472   2794557   2793669   2792871  
  6720.000000   2792194   2791628   2791115   2790577   2789935  
  6710.000000   2789149   2788220   2787185   2786094   2784991  
  6700.000000   2783892   2782798   2781696   2780581   2779453  
  6690.000000   2778331   2777225   2776144   2775074   2774004  
  6680.000000   2772910   2771785   2770622   2769425   2768182  
  6670.000000   2766882   2765500   2764027   2762461   2760830  
  6660.000000   2759174   2757533   2755926   2754348   2752757  
  6650.000000   2751110   2749366   2747520   2745592   2743637  
  6640.000000   2741708   2739852   2738086   2736406   2734776  
  6630.000000   2733156   2731492   2729742   2727865   2725845  
  6620.000000   2723689   2721439   2719165   2716956   2714889  
  6610.000000   2713009   2711303   2709707   2708118   2706433  
  6600.000000   2704577   2702530   2700326   2698035   2695734  
  6590.000000   2693488   2691332   2689275   2687316   2685444  
  6580.000000   2683650   2681921   2680235   2678558   2676854  
  6570.000000   2675099   2673300   2671490   2669729   2668071  
  6560.000000   2666551   2665153   2663825   2662486   2661066  
  6550.000000   2659521   2657859   2656122   2654381   2652695  
  6540.000000   2651109   2649634   2648260   2646962   2645717  
  6530.000000   2644503   2643310   2642131   2640966   2639820  
  6520.000000   2638706   2637637   2636622   2635654   2634709  
  6510.000000   2633741   2632705   2631561   2630304   2628962  
  6500.000000   2627597   2626277   2625061   2623977   2623017  
  6490.000000   2622149   2621335   2620542   2619756   2618977  
  6480.000000   2618201   2617422   2616617   2615758   2614824  
  6470.000000   2613812   2612739   2611636   2610532   2609439  
  6460.000000   2608352   2607247   2606100   2604901   2603664  
  6450.000000   2602424   2601224   2600107   2599090   2598176  
  6440.000000   2597346   2596572   2595829   2595096   2594355  
  6430.000000   2593588   2592780   2591908   2590958   2589923  
  6420.000000   2588814   2587651   2586470   2585308   2584201  
  6410.000000   2583176   2582252   2581438   2580730   2580115  
  6400.000000   2579569   2579064   2578571   2578066   2577538  
  6390.000000   2576986   2576418   2575843   2575270   2574697  
  6380.000000   2574121   2573535   2572941   2572342   2571746  
  6370.000000   2571163   2570591   2570029   2569468   2568907  
  6360.000000   2568352   2567820   2567327   2566888   2566494  
  6350.000000   2566125   2565744   2565313   2564804   2564212  
  6340.000000   2563543   2562822   2562070   2561307   2560539  
  6330.000000   2559772   2559002   2558236   2557470   2556706  
  6320.000000   2555929   2555122   2554254   2553309   2552274  
  6310.000000   2551163   2549994   2548798   2547584   2546357  
  6300.000000   2545090   2543757   2542326   2540790   2539148  
  6290.000000   2537430   2535662   2533878   2532089   2530306  
  6280.000000   2528517   2526715   2524879   2522997   2521047  
  6270.000000   2519018   2516894   2514675   2512364   2509987  
  6260.000000   2507575   2505168   2502798   2500489   2498241  
  6250.000000   2496047   2493875   2491703   2489503   2487262  
  6240.000000   2484975   2482649   2480291   2477910   2475502  
  6230.000000   2473058   2470557   2467979   2465314   2462568  
  6220.000000   2459769   2456963   2454200   2451527   2448964  
  6210.000000   2446509   2444134   2441804   2439482   2437148  
  6200.000000   2434797   2432437   2430075   2427716   2425355  
  6190.000000   2422988   2420617   2418262   2415955   2413732  
  6180.000000   2411616   2409606   2407670   2405756   2403807  
  6170.000000   2401780   2399658   2397450   2395187   2392901  
  6160.000000   2390621   2388360   2386129   2383936   2381792  
  6150.000000   2379713   2377713   2375791   2373934   2372112  
  6140.000000   2370293   2368454   2366589   2364712   2362852  
  6130.000000   2361034   2359279   2357585   2355940   2354322  
  6120.000000   2352715   2351102   2349483   2347860   2346242  
  6110.000000   2344640   2343075   2341565   2340143   2338828  
  6100.000000   2337637   2336564   2335596   2334699   2333849  
  6090.000000   2333024   2332228   2331467   2330762   2330117  
  6080.000000   2329537   2329007   2328518   2328058   2327638  
  6070.000000   2327262   2326949   2326692   2326485   2326292  
  6060.000000   2326095   2325870   2325633   2325407   2325245  
  6050.000000   2325186   2325273   2325518   2325930   2326494  
  6040.000000   2327209   2328056   2329035   2330125   2331318  
  6030.000000   2332589   2333931   2335333   2336810   2338366  
  6020.000000   2340017   2341750   2343544   2345352   2347136  
  6010.000000   2348859   2350517   2352119   2353698   2355275  
  6000.000000   2356867   2358467   2360064   2361646   2363227  
  5990.000000   2364832   2366513   2368313   2370266   2372369  
  5980.000000   2374602   2376916   2379275   2381645   2384027  
  5970.000000   2386426   2388874   2391388   2393994   2396698  
  5960.000000   2399514   2402436   2405466   2408584   2411771  
  5950.000000   2414986   2418197   2421370   2424494   2427569  
  5940.000000   2430623   2433685   2436786   2439944   2443164  
  5930.000000   2446441   2449765   2453125   2456509   2459902  
  5920.000000   2463281   2466616   2469876   2473036   2476088  
  5910.000000   2479039   2481914   2484740   2487538   2490315  
  5900.000000   2493068   2495793   2498495   2501195   2503926  
  5890.000000   2506733   2509643   2512670   2515793   2518978  
  5880.000000   2522174   2525335   2528420   2531404   2534271  
  5870.000000   2537006   2539604   2542060   2544387   2546608  
  5860.000000   2548764   2550904   2553079   2555330   2557686  
  5850.000000   2560160   2562757   2565472   2568298   2571222  
  5840.000000   2574225   2577283   2580370   2583464   2586552  
  5830.000000   2589632   2592713   2595806   2598910   2602017  
  5820.000000   2605094   2608109   2611018   2613798   2616423  
  5810.000000   2618894   2621198   2623348   2625332   2627165  
  5800.000000   2628840   2630388   2631812   2633151   2634396  
  5790.000000   2635565   2636617   2637534   2638250   2638727  
  5780.000000   2638896   2638719   2638147   2637173   2635798  
  5770.000000   2634081   2632099   2629971   2627810   2625728  
  5760.000000   2623791   2622037   2620457   2619030   2617725  
  5750.000000   2616527   2615430   2614445   2613583   2612848  
  5740.000000   2612241   2611747   2611364   2611075   2610882  
  5730.000000   2610769   2610731   2610739   2610778   2610820  
  5720.000000   2610861   2610901   2610959   2611050   2611192  
  5710.000000   2611387   2611633   2611921   2612249   2612619  
  5700.000000   2613041   2613518   2614047   2614615   2615193  
  5690.000000   2615760   2616296   2616803   2617287   2617767  
  5680.000000   2618247   2618722   2619163   2619537   2619798  
  5670.000000   2619916   2619864   2619635   2619224   2618641  
  5660.000000   2617899   2617028   2616058   2615039   2614008  
  5650.000000   2613004   2612039   2611116   2610215   2609324  
  5640.000000   2608430   2607537   2606652   2605789   2604949  
  5630.000000   2604123   2603291   2602433   2601541   2600619  
  5620.000000   2599691   2598786   2597931   2597144   2596426  
  5610.000000   2595772   2595166   2594597   2594051   2593512  
  5600.000000   2592962   2592379   2591740   2591033   2590254  
  5590.000000   2589420   2588550   2587669   2586785   2585901  
  5580.000000   2585003   2584079   2583116   2582117   2581086  
  5570.000000   2580032   2578952   2577836   2576666   2575426  
  5560.000000   2574112   2572738   2571328   2569919   2568536  
  5550.000000   2567202   2565921   2564693   2563513   2562378  
  5540.000000   2561284   2560227   2559192   2558161   2557112  
  5530.000000   2556030   2554912   2553769   2552620   2551488  
  5520.000000   2550386   2549319   2548282   2547265   2546258  
  5510.000000   2545257   2544250   2543227   2542164   2541042  
  5500.000000   2539837   2538550   2537194   2535807   2534426  
  5490.000000   2533082   2531774   2530481   2529160   2527773  
  5480.000000   2526290   2524710   2523044   2521319   2519548  
  5470.000000   2517740   2515887   2513986   2512036   2510055  
  5460.000000   2508062   2506077   2504100   2502122   2500118  
  5450.000000   2498070   2495972   2493839   2491694   2489562  
  5440.000000   2487453   2485360   2483269   2481166   2479059  
  5430.000000   2476970   2474938   2472985   2471127   2469346  
  5420.000000   2467630   2465960   2464356   2462848   2461495  
  5410.000000   2460329   2459372   2458585   2457930   2457344  
  5400.000000   2456812   2456325   2455932   2455662   2455567  
  5390.000000   2455641   2455886   2456261   2456764   2457379  
  5380.000000   2458145   2459072   2460195   2461495   2462976  
  5370.000000   2464591   2466350   2468231   2470287   2472518  
  5360.000000   2474984   2477667   2480612   2483792   2487271  
  5350.000000   2491048   2495218   2499785   2504825   2510293  
  5340.000000   2516221   2522540   2529304   2536480   2544170  
  5330.000000   2552358   2561134   2570436   2580307   2590656  
  5320.000000   2601543   2612920   2624916   2637529   2650918  
  5310.000000   2665064   2680080   2695894   2712582   2730062  
  5300.000000   2748426   2767629   2787800   2808922   2831121  
  5290.000000   2854346   2878648   2903885   2930003   2956806  
  5280.000000   2984235   3012177   3040694   3069816   3099687  
  5270.000000   3130339   3161782   3193856   3226332   3258925  
  5260.000000   3291391   3323600   3355517   3387228   3418777  
  5250.000000   3450208   3481383   3512153   3542217   3571422  
  5240.000000   3599570   3626722   3652876   3678238   3702836  
  5230.000000   3726822   3750098   3772681   3794372   3815156  
  5220.000000   3834871   3853600   3871290   3888120   3904086  
  5210.000000   3919356   3933862   3947675   3960636   3972766  
  5200.000000   3983924   3994206   4003575   4012202   4020075  
  5190.000000   4027320   4033848   4039696   4044728   4048991  
  5180.000000   4052416   4055129   4057130   4058561   4059400  
  5170.000000   4059734   4059500   4058765   4057481   4055740  
  5160.000000   4053517   4050892   4047816   4044327   4040362  
  5150.000000   4035969   4031133   4025949   4020444   4014711  
  5140.000000   4008746   4002591   3996202   3989598   3982754  
  5130.000000   3975715   3968487   3961125   3953629   3946029  
  5120.000000   3938311   3930502   3922607   3914675   3906732  
  5110.000000   3898817   3890929   3883065   3875190   3867282  
  5100.000000   3859318   3851309   3843268   3835234   3827235  
  5090.000000   3819301   3811443   3803670   3795980   3788368  
  5080.000000   3780821   3773323   3765849   3758375   3750875  
  5070.000000   3743337   3735757   3728148   3720522   3712898  
  5060.000000   3705280   3697672   3690064   3682454   3674830  
  5050.000000   3667194   3659538   3651861   3644151   3636401  
  5040.000000   3628604   3620764   3612896   3605023   3597172  
  5030.000000   3589364   3581612   3573915   3566274   3558685  
  5020.000000   3551166   3543734   3536428   3529272   3522298  
  5010.000000   3515502   3508890   3502432   3496129   3489954  
  5000.000000   3483930   3478049   3472353   3466841   3461552  
  4990.000000   3456477   3451650   3447056   3442735   3438672  
  4980.000000   3434910   3431432   3428282   3425440   3422955  
  4970.000000   3420808   3419054   3417669   3416699   3416101  
  4960.000000   3415903   3416049   3416563   3417401   3418605  
  4950.000000   3420150   3422091   3424401   3427123   3430212  
  4940.000000   3433694   3437516   3441705   3446212   3451070  
  4930.000000   3456238   3461748   3467556   3473691   3480111  
  4920.000000   3486847   3493859   3501178   3508768   3516653  
  4910.000000   3524802   3533235   3541929   3550902   3560131  
  4900.000000   3569619   3579333   3589256   3599343   3609568  
  4890.000000   3619886   3630263   3640661   3651036   3661351  
  4880.000000   3671563   3681646   3691568   3701327   3710897  
  4870.000000   3720277   3729426   3738324   3746914   3755180  
  4860.000000   3763080   3770632   3777828   3784719   3791309  
  4850.000000   3797648   3803734   3809610   3815273   3820770  
  4840.000000   3826109   3831338   3836456   3841493   3846423  
  4830.000000   3851253   3855948   3860510   3864914   3869170  
  4820.000000   3873259   3877193   3880957   3884568   3888020  
  4810.000000   3891344   3894545   3897654   3900672   3903613  
  4800.000000   3906460   3909217   3911867   3914424   3916885  
  4790.000000   3919276   3921601   3923878   3926098   3928269  
  4780.000000   3930374   3932417   3934384   3936282   3938095  
  4770.000000   3939827   3941458   3942994   3944420   3945753  
  4760.000000   3946986   3948138   3949193   3950155   3950987  
  4750.000000   3951677   3952188   3952519   3952650   3952601  
  4740.000000   3952367   3951972   3951411   3950700   3949830  
  4730.000000   3948817   3947658   3946374   3944966   3943455  
  4720.000000   3941839   3940136   3938344   3936481   3934554  
  4710.000000   3932584   3930578   3928551   3926506   3924451  
  4700.000000   3922391   3920341   3918317   3916343   3914438  
  4690.000000   3912621   3910894   3909251   3907673   3906139  
  4680.000000   3904621   3903094   3901538   3899930   3898261  
  4670.000000   3896515   3894698   3892813   3890885   3888938  
  4660.000000   3887010   3885127   3883322   3881610   3880012  
  4650.000000   3878539   3877212   3876046   3875066   3874283  
  4640.000000   3873708   3873331   3873141   3873105   3873196  
  4630.000000   3873372   3873606   3873859   3874105   3874310  
  4620.000000   3874453   3874510   3874472   3874332   3874096  
  4610.000000   3873771   3873365   3872891   3872358   3871779  
  4600.000000   3871170   3870556   3869957   3869401   3868901  
  4590.000000   3868468   3868088   3867746   3867408   3867048  
  4580.000000   3866632   3866145   3865570   3864910   3864166  
  4570.000000   3863352   3862475   3861547   3860567   3859538  
  4560.000000   3858452   3857305   3856092   3854817   3853488  
  4550.000000   3852122   3850735   3849345   3847966   3846605  
  4540.000000   3845271   3843963   3842694   3841463   3840289  
  4530.000000   3839167   3838121   3837141   3836256   3835461  
  4520.000000   3834802   3834282   3833964   3833849   3834003  
  4510.000000   3834416   3835157   3836216   3837677   3839543  
  4500.000000   3841919   3844809   3848312   3852409   3857179  
  4490.000000   3862577   3868676   3875434   3882934   3891149  
  4480.000000   3900168   3909960   3920589   3931996   3944198  
  4470.000000   3957095   3970658   3984753   3999322   4014227  
  4460.000000   4029409   4044754   4060220   4075723   4091232  
  4450.000000   4106684   4122046   4137274   4152347   4167253  
  4440.000000   4181989   4196573   4210998   4225289   4239414  
  4430.000000   4253393   4267173   4280781   4294159   4307345  
  4420.000000   4320265   4332941   4345264   4357216   4368651  
  4410.000000   4379522   4389668   4399044   4407509   4415050  
  4400.000000   4421580   4427140   4431716   4435413   4438279  
  4390.000000   4440459   4442033   4443148   4443888   4444385  
  4380.000000   4444716   4445004   4445335   4445828   4446581  
  4370.000000   4447701   4449274   4451367   4454027   4457260  
  4360.000000   4461061   4465384   4470179   4475370   4480883  
  4350.000000   4486641   4492568   4498613   4504729   4510904  
  4340.000000   4517113   4523341   4529520   4535541   4541207  
  4330.000000   4546278   4550463   4553517   4555256   4555662  
  4320.000000   4554858   4553150   4550913   4548585   4546509  
  4310.000000   4544961   4544026   4543715   4543900   4544460  
  4300.000000   4545240   4546152   4547114   4548092   4549048  
  4290.000000   4549953   4550779   4551502   4552120   4552648  
  4280.000000   4553118   4553576   4554051   4554584   4555172  
  4270.000000   4555829   4556518   4557211   4557816   4558234  
  4260.000000   4558305   4557877   4556785   4554935   4552292  
  4250.000000   4548936   4545012   4540745   4536354   4532059  
  4240.000000   4527995   4524256   4520837   4517715   4514813  
  4230.000000   4512071   4509414   4506790   4504148   4501446  
  4220.000000   4498656   4495752   4492744   4489643   4486504  
  4210.000000   4483369   4480311   4477369   4474594   4472001  
  4200.000000   4469610   4467412   4465418   4463604   4461982  
  4190.000000   4460521   4459233   4458083   4457093   4456232  
  4180.000000   4455544   4455013   4454709   4454634   4454886  
  4170.000000   4455489   4456564   4458147   4460356   4463205  
  4160.000000   4466771   4471008   4475934   4481452   4487555  
  4150.000000   4494138   4501216   4508712   4516674   4525056  
  4140.000000   4533934   4543276   4553166   4563572   4574562  
  4130.000000   4586085   4598175   4610755   4623835   4637342  
  4120.000000   4651298   4665661   4680485   4695759   4711543  
  4110.000000   4727817   4744605   4761848   4779516   4797514  
  4100.000000   4815785   4834238   4852835   4871527   4890319  
  4090.000000   4909207   4928209   4947331   4966568   4985911  
  4080.000000   5005336   5024837   5044389   5063999   5083623  
  4070.000000   5103248   5122778   5142170   5161306   5180166  
  4060.000000   5198670   5216854   5234669   5252162   5269249  
  4050.000000   5285944   5302117   5317776   5332793   5347200  
  4040.000000   5360876   5373857   5386008   5397368   5407811  
  4030.000000   5417415   5426093   5433943   5440875   5446939  
  4020.000000   5451969   5455981   5458874   5460703   5461389  
  4010.000000   5461107   5459965   5458059   5455216   5451588  
  4000.000000   5447569  
##END= 
