##TITLE= Sample 015 By ssteindl date Donnerstag, November 22 2018
##JCAMP-DX= 4.24
##DATA TYPE= INFRARED SPECTRUM
##ORIGIN= Exported PE Spectrum Data File
##OWNER= Sandra Steindl
##DATE= 18/11/22
##TIME= 12:53:20.00
##SPECTROMETER/DATA SYSTEM= PERKIN-ELMER Frontier FT-IR/NIR IR
##INSTRUMENT PARAMETERS=
  APODIZATION=stark
  DETECTOR=INGAAS
##RESOLUTION= 16.000000
##DELTAX= -2.000000
##XUNITS= 1/CM
##YUNITS= A
##XFACTOR= 1.00
##YFACTOR= 0.00000011920928955078
##FIRSTX= 10000.00
##LASTX= 4000.00
##NPOINTS= 3001
##FIRSTY= 0.224609
##MAXY= 0.609768
##MINY= 0.190933
##XYDATA= (X++(Y..Y))
 10000.000000   1884153   1883151   1882354   1881433   1879363  
  9990.000000   1875094   1868573   1860629   1852404   1844975  
  9980.000000   1839302   1836088   1835570   1837609   1841824  
  9970.000000   1847679   1854495   1861494   1867927   1873137  
  9960.000000   1876687   1878416   1878444   1877137   1875048  
  9950.000000   1872813   1871090   1870414   1871094   1873103  
  9940.000000   1875988   1878923   1880815   1880610   1877609  
  9930.000000   1871762   1863783   1855028   1847095   1841399  
  9920.000000   1838661   1838810   1841022   1844200   1847381  
  9910.000000   1850115   1852465   1854778   1857297   1859835  
  9900.000000   1861746   1862081   1860118   1855646   1849282  
  9890.000000   1842213   1835884   1831445   1829402   1829564  
  9880.000000   1831171   1833361   1835407   1837004   1838165  
  9870.000000   1839091   1839987   1840893   1841782   1842509  
  9860.000000   1843013   1843199   1842973   1842143   1840423  
  9850.000000   1837673   1834008   1830128   1827147   1826437  
  9840.000000   1829023   1835144   1843913   1853404   1861162  
  9830.000000   1864877   1863155   1855856   1844205   1830303  
  9820.000000   1816624   1805298   1797739   1794434   1795008  
  9810.000000   1798500   1803592   1809009   1813681   1817049  
  9800.000000   1819029   1820064   1820858   1822126   1824322  
  9790.000000   1827358   1830721   1833516   1834965   1834598  
  9780.000000   1832527   1829323   1825737   1822400   1819518  
  9770.000000   1816949   1814333   1811468   1808473   1805857  
  9760.000000   1804245   1804114   1805451   1807748   1810114  
  9750.000000   1811682   1811901   1810762   1808704   1806358  
  9740.000000   1804239   1802521   1801084   1799634   1797976  
  9730.000000   1796066   1794037   1791993   1789896   1787516  
  9720.000000   1784546   1780857   1776650   1772576   1769510  
  9710.000000   1768298   1769353   1772480   1776894   1781496  
  9700.000000   1785266   1787535   1788149   1787285   1785288  
  9690.000000   1782392   1778743   1774418   1769670   1764959  
  9680.000000   1760961   1758327   1757446   1758264   1760247  
  9670.000000   1762632   1764656   1765923   1766436   1766592  
  9660.000000   1766908   1767802   1769438   1771675   1774214  
  9650.000000   1776642   1778628   1779846   1780067   1779056  
  9640.000000   1776668   1772922   1768098   1762837   1757993  
  9630.000000   1754534   1753162   1754211   1757460   1762315  
  9620.000000   1767926   1773450   1778155   1781472   1783012  
  9610.000000   1782507   1779907   1775357   1769318   1762493  
  9600.000000   1755753   1749953   1745703   1743290   1742585  
  9590.000000   1743256   1744813   1746872   1749057   1751073  
  9580.000000   1752543   1753059   1752261   1749950   1746314  
  9570.000000   1741817   1737228   1733205   1730169   1728017  
  9560.000000   1726259   1724206   1721337   1717610   1713525  
  9550.000000   1710036   1708145   1708583   1711493   1716421  
  9540.000000   1722486   1728641   1734011   1737985   1740339  
  9530.000000   1741070   1740361   1738444   1735631   1732304  
  9520.000000   1728963   1726152   1724356   1723862   1724619  
  9510.000000   1726284   1728237   1729865   1730655   1730417  
  9500.000000   1729257   1727543   1725755   1724313   1723465  
  9490.000000   1723195   1723253   1723239   1722754   1721547  
  9480.000000   1719604   1717196   1714749   1712781   1711645  
  9470.000000   1711468   1712027   1712857   1713414   1713253  
  9460.000000   1712224   1710399   1708058   1705414   1702587  
  9450.000000   1699473   1695912   1691791   1687240   1682708  
  9440.000000   1678860   1676478   1676135   1678123   1682275  
  9430.000000   1688094   1694832   1701658   1707788   1712499  
  9420.000000   1715234   1715544   1713261   1708489   1701789  
  9410.000000   1694057   1686464   1680136   1675897   1674079  
  9400.000000   1674411   1676241   1678666   1680950   1682628  
  9390.000000   1683672   1684347   1685023   1685997   1687297  
  9380.000000   1688764   1690015   1690692   1690472   1689282  
  9370.000000   1687272   1684836   1682524   1680870   1680333  
  9360.000000   1681096   1683109   1686013   1689294   1692363  
  9350.000000   1694749   1696169   1696577   1696089   1694884  
  9340.000000   1693120   1690856   1688132   1684973   1681543  
  9330.000000   1678087   1674936   1672366   1670504   1669319  
  9320.000000   1668627   1668258   1668117   1668323   1669121  
  9310.000000   1670801   1673497   1677079   1681148   1685103  
  9300.000000   1688333   1690343   1690909   1690075   1688118  
  9290.000000   1685426   1682395   1679378   1676646   1674423  
  9280.000000   1672835   1671923   1671560   1671497   1671356  
  9270.000000   1670765   1669441   1667298   1664489   1661344  
  9260.000000   1658296   1655691   1653747   1652486   1651824  
  9250.000000   1651615   1651739   1652143   1652831   1653848  
  9240.000000   1655197   1656823   1658606   1660387   1662020  
  9230.000000   1663361   1664315   1664787   1664741   1664162  
  9220.000000   1663089   1661604   1659824   1657925   1656093  
  9210.000000   1654533   1653405   1652840   1652888   1653533  
  9200.000000   1654621   1655899   1657024   1657658   1657540  
  9190.000000   1656580   1654905   1652833   1650798   1649194  
  9180.000000   1648258   1648002   1648225   1648599   1648770  
  9170.000000   1648505   1647751   1646637   1645388   1644236  
  9160.000000   1643337   1642710   1642256   1641788   1641125  
  9150.000000   1640133   1638779   1637149   1635434   1633893  
  9140.000000   1632769   1632248   1632393   1633118   1634198  
  9130.000000   1635307   1636135   1636440   1636134   1635243  
  9120.000000   1633892   1632254   1630503   1628788   1627222  
  9110.000000   1625935   1625091   1624871   1625400   1626673  
  9100.000000   1628508   1630529   1632224   1633059   1632652  
  9090.000000   1630883   1627989   1624472   1621030   1618324  
  9080.000000   1616858   1616810   1618020   1620047   1622302  
  9070.000000   1624229   1625445   1625869   1625721   1625451  
  9060.000000   1625564   1626453   1628271   1630861   1633820  
  9050.000000   1636606   1638728   1639879   1640010   1639306  
  9040.000000   1638074   1636636   1635224   1633953   1632847  
  9030.000000   1631882   1631056   1630388   1629908   1629619  
  9020.000000   1629449   1629298   1629044   1628669   1628263  
  9010.000000   1628047   1628279   1629168   1630773   1632949  
  9000.000000   1635366   1637602   1639255   1640047   1639862  
  8990.000000   1638764   1636964   1634755   1632447   1630330  
  8980.000000   1628639   1627514   1626944   1626778   1626728  
  8970.000000   1626473   1625718   1624345   1622439   1620315  
  8960.000000   1618402   1617092   1616604   1616880   1617635  
  8950.000000   1618404   1618743   1618336   1617117   1615250  
  8940.000000   1613066   1610952   1609252   1608211   1607953  
  8930.000000   1608483   1609713   1611460   1613480   1615450  
  8920.000000   1617030   1617909   1617915   1617039   1615484  
  8910.000000   1613582   1611748   1610324   1609514   1609334  
  8900.000000   1609651   1610267   1610986   1611708   1612424  
  8890.000000   1613217   1614181   1615366   1616732   1618136  
  8880.000000   1619386   1620278   1620697   1620611   1620128  
  8870.000000   1619422   1618713   1618193   1617981   1618108  
  8860.000000   1618517   1619119   1619812   1620551   1621321  
  8850.000000   1622167   1623124   1624217   1625400   1626580  
  8840.000000   1627628   1628403   1628812   1628797   1628387  
  8830.000000   1627635   1626626   1625434   1624108   1622693  
  8820.000000   1621223   1619781   1618497   1617580   1617269  
  8810.000000   1617773   1619195   1621444   1624223   1627041  
  8800.000000   1629337   1630595   1630544   1629232   1627094  
  8790.000000   1624803   1623104   1622574   1623453   1625579  
  8780.000000   1628446   1631401   1633854   1635479   1636282  
  8770.000000   1636541   1636664   1636981   1637643   1638539  
  8760.000000   1639407   1639936   1639936   1639424   1638624  
  8750.000000   1637921   1637702   1638300   1639862   1642362  
  8740.000000   1645577   1649140   1652600   1655477   1657357  
  8730.000000   1657952   1657191   1655263   1652620   1649885  
  8720.000000   1647709   1646593   1646763   1648123   1650289  
  8710.000000   1652743   1654979   1656667   1657701   1658197  
  8700.000000   1658374   1658462   1658605   1658847   1659173  
  8690.000000   1659564   1660059   1660737   1661688   1662930  
  8680.000000   1664352   1665712   1666689   1666997   1666504  
  8670.000000   1665280   1663620   1661935   1660646   1660044  
  8660.000000   1660213   1661034   1662245   1663579   1664864  
  8650.000000   1666073   1667323   1668771   1670546   1672619  
  8640.000000   1674820   1676840   1678378   1679214   1679339  
  8630.000000   1678950   1678424   1678222   1678743   1680242  
  8620.000000   1682733   1686030   1689783   1693577   1697010  
  8610.000000   1699762   1701650   1702620   1702752   1702205  
  8600.000000   1701209   1700003   1698813   1697834   1697206  
  8590.000000   1697041   1697385   1698278   1699685   1701567  
  8580.000000   1703794   1706201   1708559   1710630   1712217  
  8570.000000   1713166   1713451   1713092   1712219   1710954  
  8560.000000   1709454   1707831   1706214   1704742   1703597  
  8550.000000   1703006   1703180   1704295   1706393   1709395  
  8540.000000   1713059   1717055   1721020   1724636   1727704  
  8530.000000   1730134   1731980   1733330   1734313   1735004  
  8520.000000   1735450   1735642   1735567   1735240   1734741  
  8510.000000   1734234   1733921   1734020   1734672   1735912  
  8500.000000   1737613   1739546   1741427   1743025   1744240  
  8490.000000   1745139   1745929   1746880   1748203   1749977  
  8480.000000   1752103   1754357   1756471   1758245   1759612  
  8470.000000   1760634   1761445   1762151   1762773   1763207  
  8460.000000   1763289   1762873   1761938   1760622   1759186  
  8450.000000   1757957   1757210   1757125   1757734   1758978  
  8440.000000   1760738   1762895   1765323   1767870   1770339  
  8430.000000   1772482   1774056   1774887   1774956   1774433  
  8420.000000   1773661   1773042   1772898   1773382   1774427  
  8410.000000   1775802   1777173   1778260   1778885   1779028  
  8400.000000   1778753   1778169   1777367   1776405   1775321  
  8390.000000   1774161   1773000   1771926   1771006   1770257  
  8380.000000   1769632   1769056   1768470   1767892   1767425  
  8370.000000   1767225   1767426   1768064   1769032   1770100  
  8360.000000   1770984   1771471   1771493   1771168   1770738  
  8350.000000   1770473   1770556   1771001   1771650   1772205  
  8340.000000   1772336   1771787   1770460   1768437   1765944  
  8330.000000   1763304   1760855   1758897   1757612   1757056  
  8320.000000   1757143   1757685   1758427   1759104   1759506  
  8310.000000   1759510   1759115   1758391   1757469   1756455  
  8300.000000   1755431   1754412   1753397   1752388   1751439  
  8290.000000   1750670   1750225   1750254   1750839   1751967  
  8280.000000   1753490   1755155   1756641   1757632   1757891  
  8270.000000   1757306   1755933   1753980   1751781   1749708  
  8260.000000   1748073   1747058   1746659   1746712   1746929  
  8250.000000   1747020   1746751   1746049   1744975   1743703  
  8240.000000   1742414   1741242   1740219   1739294   1738368  
  8230.000000   1737364   1736263   1735115   1734002   1733001  
  8220.000000   1732126   1731331   1730518   1729582   1728455  
  8210.000000   1727125   1725639   1724080   1722539   1721096  
  8200.000000   1719801   1718688   1717760   1717006   1716375  
  8190.000000   1715799   1715190   1714479   1713634   1712674  
  8180.000000   1711667   1710681   1709757   1708862   1707896  
  8170.000000   1706720   1705221   1703387   1701330   1699288  
  8160.000000   1697534   1696307   1695705   1695670   1695990  
  8150.000000   1696377   1696539   1696255   1695418   1694021  
  8140.000000   1692145   1689908   1687466   1684978   1682625  
  8130.000000   1680566   1678930   1677765   1677021   1676549  
  8120.000000   1676135   1675570   1674714   1673554   1672205  
  8110.000000   1670870   1669772   1669066   1668798   1668880  
  8100.000000   1669131   1669326   1669274   1668857   1668069  
  8090.000000   1666998   1665798   1664634   1663642   1662889  
  8080.000000   1662363   1661980   1661622   1661175   1660573  
  8070.000000   1659824   1659006   1658247   1657669   1657348  
  8060.000000   1657276   1657357   1657441   1657370   1657034  
  8050.000000   1656405   1655538   1654552   1653569   1652691  
  8040.000000   1651949   1651329   1650771   1650223   1649646  
  8030.000000   1649043   1648434   1647839   1647252   1646626  
  8020.000000   1645881   1644928   1643708   1642216   1640531  
  8010.000000   1638785   1637148   1635768   1634732   1634044  
  8000.000000   1633632   1633374   1633158   1632914   1632643  
  7990.000000   1632393   1632235   1632205   1632284   1632390  
  7980.000000   1632423   1632300   1632021   1631657   1631345  
  7970.000000   1631204   1631290   1631540   1631804   1631893  
  7960.000000   1631669   1631117   1630352   1629600   1629086  
  7950.000000   1628979   1629294   1629930   1630691   1631389  
  7940.000000   1631899   1632191   1632298   1632262   1632077  
  7930.000000   1631659   1630892   1629667   1627983   1625941  
  7920.000000   1623764   1621700   1619960   1618649   1617756  
  7910.000000   1617205   1616911   1616865   1617132   1617833  
  7900.000000   1619059   1620800   1622902   1625077   1626992  
  7890.000000   1628348   1629001   1628968   1628444   1627691  
  7880.000000   1626973   1626459   1626193   1626116   1626109  
  7870.000000   1626075   1625968   1625835   1625765   1625874  
  7860.000000   1626221   1626809   1627541   1628278   1628862  
  7850.000000   1629173   1629175   1628902   1628461   1627965  
  7840.000000   1627502   1627087   1626672   1626164   1625488  
  7830.000000   1624630   1623669   1622772   1622144   1621968  
  7820.000000   1622330   1623198   1624413   1625745   1626956  
  7810.000000   1627867   1628395   1628554   1628432   1628137  
  7800.000000   1627765   1627372   1626983   1626604   1626249  
  7790.000000   1625945   1625718   1625584   1625517   1625463  
  7780.000000   1625337   1625074   1624639   1624065   1623425  
  7770.000000   1622821   1622335   1622005   1621802   1621661  
  7760.000000   1621492   1621231   1620856   1620391   1619891  
  7750.000000   1619399   1618924   1618424   1617813   1616998  
  7740.000000   1615921   1614590   1613104   1611625   1610348  
  7730.000000   1609432   1608956   1608886   1609078   1609324  
  7720.000000   1609419   1609223   1608720   1608015   1607308  
  7710.000000   1606819   1606716   1607051   1607745   1608604  
  7700.000000   1609392   1609895   1609998   1609712   1609166  
  7690.000000   1608560   1608093   1607905   1608032   1608405  
  7680.000000   1608878   1609274   1609445   1609300   1608823  
  7670.000000   1608064   1607112   1606073   1605048   1604113  
  7660.000000   1603319   1602689   1602224   1601910   1601728  
  7650.000000   1601659   1601694   1601829   1602061   1602375  
  7640.000000   1602740   1603095   1603378   1603519   1603491  
  7630.000000   1603305   1603034   1602780   1602655   1602733  
  7620.000000   1603023   1603463   1603943   1604335   1604553  
  7610.000000   1604569   1604435   1604248   1604119   1604120  
  7600.000000   1604266   1604514   1604789   1605033   1605231  
  7590.000000   1605436   1605744   1606262   1607055   1608109  
  7580.000000   1609322   1610520   1611516   1612147   1612337  
  7570.000000   1612095   1611524   1610770   1609992   1609316  
  7560.000000   1608817   1608526   1608441   1608554   1608858  
  7550.000000   1609355   1610041   1610895   1611864   1612869  
  7540.000000   1613826   1614649   1615298   1615762   1616082  
  7530.000000   1616314   1616528   1616771   1617078   1617461  
  7520.000000   1617934   1618514   1619234   1620124   1621201  
  7510.000000   1622451   1623826   1625248   1626635   1627917  
  7500.000000   1629068   1630094   1631044   1631967   1632911  
  7490.000000   1633895   1634921   1635979   1637065   1638187  
  7480.000000   1639363   1640608   1641916   1643258   1644572  
  7470.000000   1645788   1646845   1647713   1648416   1649011  
  7460.000000   1649589   1650238   1651029   1651994   1653128  
  7450.000000   1654390   1655726   1657084   1658435   1659779  
  7440.000000   1661151   1662605   1664197   1665953   1667858  
  7430.000000   1669835   1671770   1673533   1675033   1676247  
  7420.000000   1677245   1678169   1679202   1680494   1682115  
  7410.000000   1684022   1686082   1688105   1689920   1691421  
  7400.000000   1692614   1693585   1694479   1695430   1696536  
  7390.000000   1697834   1699311   1700936   1702687   1704574  
  7380.000000   1706621   1708853   1711260   1713791   1716353  
  7370.000000   1718831   1721117   1723128   1724832   1726229  
  7360.000000   1727361   1728282   1729066   1729787   1730521  
  7350.000000   1731342   1732309   1733467   1734825   1736367  
  7340.000000   1738047   1739820   1741640   1743477   1745312  
  7330.000000   1747133   1748929   1750680   1752364   1753961  
  7320.000000   1755466   1756883   1758230   1759528   1760800  
  7310.000000   1762062   1763325   1764593   1765864   1767137  
  7300.000000   1768402   1769648   1770858   1772025   1773150  
  7290.000000   1774255   1775373   1776542   1777789   1779115  
  7280.000000   1780491   1781865   1783176   1784373   1785436  
  7270.000000   1786379   1787248   1788104   1789014   1790027  
  7260.000000   1791178   1792473   1793903   1795432   1797017  
  7250.000000   1798597   1800121   1801544   1802869   1804131  
  7240.000000   1805416   1806815   1808416   1810248   1812297  
  7230.000000   1814480   1816710   1818905   1821044   1823151  
  7220.000000   1825308   1827591   1830064   1832727   1835548  
  7210.000000   1838449   1841371   1844269   1847151   1850047  
  7200.000000   1853008   1856064   1859230   1862486   1865815  
  7190.000000   1869185   1872593   1876020   1879463   1882886  
  7180.000000   1886252   1889511   1892642   1895653   1898612  
  7170.000000   1901610   1904759   1908133   1911766   1915614  
  7160.000000   1919596   1923602   1927554   1931412   1935204  
  7150.000000   1938989   1942861   1946880   1951090   1955465  
  7140.000000   1959956   1964474   1968960   1973369   1977720  
  7130.000000   1982059   1986474   1991040   1995833   2000878  
  7120.000000   2006176   2011675   2017320   2023030   2028749  
  7110.000000   2034419   2040019   2045530   2050966   2056349  
  7100.000000   2061736   2067188   2072787   2078589   2084628  
  7090.000000   2090885   2097294   2103755   2110160   2116424  
  7080.000000   2122511   2128431   2134239   2140000   2145773  
  7070.000000   2151583   2157427   2163275   2169093   2174859  
  7060.000000   2180565   2186216   2191821   2197391   2202925  
  7050.000000   2208431   2213915   2219398   2224903   2230453  
  7040.000000   2236052   2241686   2247323   2252924   2258451  
  7030.000000   2263892   2269246   2274539   2279792   2285033  
  7020.000000   2290265   2295490   2300686   2305837   2310913  
  7010.000000   2315897   2320757   2325479   2330041   2334443  
  7000.000000   2338685   2342788   2346763   2350634   2354409  
  6990.000000   2358101   2361712   2365265   2368771   2372259  
  6980.000000   2375734   2379202   2382638   2386024   2389333  
  6970.000000   2392574   2395767   2398961   2402194   2405494  
  6960.000000   2408839   2412182   2415440   2418541   2421424  
  6950.000000   2424076   2426507   2428760   2430870   2432875  
  6940.000000   2434787   2436625   2438391   2440109   2441793  
  6930.000000   2443470   2445145   2446825   2448493   2450144  
  6920.000000   2451760   2453340   2454875   2456363   2457789  
  6910.000000   2459138   2460397   2461565   2462652   2463687  
  6900.000000   2464693   2465692   2466687   2467676   2468651  
  6890.000000   2469616   2470586   2471585   2472630   2473719  
  6880.000000   2474822   2475891   2476878   2477761   2478554  
  6870.000000   2479314   2480114   2481022   2482068   2483235  
  6860.000000   2484463   2485678   2486811   2487829   2488739  
  6850.000000   2489581   2490407   2491264   2492176   2493142  
  6840.000000   2494139   2495125   2496053   2496876   2497559  
  6830.000000   2498090   2498480   2498778   2499048   2499372  
  6820.000000   2499808   2500386   2501080   2501830   2502546  
  6810.000000   2503147   2503569   2503792   2503824   2503700  
  6800.000000   2503459   2503140   2502775   2502399   2502049  
  6790.000000   2501769   2501592   2501543   2501616   2501789  
  6780.000000   2502018   2502261   2502485   2502670   2502808  
  6770.000000   2502898   2502941   2502935   2502890   2502823  
  6760.000000   2502770   2502763   2502831   2502972   2503159  
  6750.000000   2503345   2503486   2503565   2503603   2503656  
  6740.000000   2503793   2504063   2504472   2504977   2505498  
  6730.000000   2505947   2506260   2506417   2506442   2506389  
  6720.000000   2506317   2506269   2506265   2506311   2506403  
  6710.000000   2506547   2506748   2507015   2507339   2507693  
  6700.000000   2508025   2508284   2508419   2508406   2508244  
  6690.000000   2507959   2507586   2507164   2506727   2506307  
  6680.000000   2505926   2505602   2505335   2505114   2504900  
  6670.000000   2504644   2504289   2503804   2503178   2502446  
  6660.000000   2501661   2500891   2500181   2499553   2498988  
  6650.000000   2498449   2497885   2497257   2496544   2495747  
  6640.000000   2494880   2493968   2493031   2492089   2491151  
  6630.000000   2490221   2489291   2488349   2487371   2486338  
  6620.000000   2485237   2484076   2482874   2481673   2480510  
  6610.000000   2479417   2478399   2477441   2476506   2475556  
  6600.000000   2474550   2473468   2472300   2471051   2469734  
  6590.000000   2468368   2466977   2465585   2464216   2462885  
  6580.000000   2461589   2460307   2459002   2457638   2456187  
  6570.000000   2454651   2453058   2451459   2449901   2448419  
  6560.000000   2447015   2445664   2444329   2442977   2441597  
  6550.000000   2440203   2438826   2437499   2436239   2435042  
  6540.000000   2433883   2432732   2431564   2430369   2429152  
  6530.000000   2427923   2426695   2425474   2424259   2423046  
  6520.000000   2421836   2420633   2419444   2418277   2417134  
  6510.000000   2416018   2414927   2413863   2412829   2411825  
  6500.000000   2410845   2409868   2408861   2407788   2406622  
  6490.000000   2405354   2404000   2402597   2401185   2399799  
  6480.000000   2398455   2397154   2395882   2394628   2393389  
  6470.000000   2392170   2390978   2389814   2388669   2387523  
  6460.000000   2386356   2385153   2383915   2382652   2381386  
  6450.000000   2380134   2378917   2377748   2376645   2375628  
  6440.000000   2374718   2373923   2373234   2372605   2371980  
  6430.000000   2371289   2370490   2369573   2368581   2367585  
  6420.000000   2366670   2365898   2365301   2364867   2364568  
  6410.000000   2364366   2364235   2364155   2364112   2364076  
  6400.000000   2364004   2363840   2363544   2363106   2362565  
  6390.000000   2361995   2361490   2361120   2360919   2360863  
  6380.000000   2360890   2360923   2360898   2360790   2360608  
  6370.000000   2360392   2360179   2359999   2359857   2359743  
  6360.000000   2359643   2359544   2359440   2359328   2359195  
  6350.000000   2359025   2358790   2358470   2358055   2357556  
  6340.000000   2356995   2356405   2355806   2355215   2354628  
  6330.000000   2354040   2353439   2352827   2352203   2351577  
  6320.000000   2350947   2350311   2349657   2348975   2348251  
  6310.000000   2347478   2346645   2345746   2344772   2343721  
  6300.000000   2342601   2341443   2340288   2339186   2338174  
  6290.000000   2337266   2336441   2335654   2334842   2333954  
  6280.000000   2332958   2331852   2330656   2329405   2328131  
  6270.000000   2326862   2325614   2324400   2323225   2322094  
  6260.000000   2321000   2319924   2318837   2317708   2316513  
  6250.000000   2315248   2313935   2312610   2311311   2310061  
  6240.000000   2308859   2307683   2306500   2305291   2304055  
  6230.000000   2302815   2301604   2300447   2299348   2298287  
  6220.000000   2297227   2296128   2294968   2293742   2292472  
  6210.000000   2291187   2289916   2288679   2287489   2286354  
  6200.000000   2285280   2284276   2283347   2282484   2281667  
  6190.000000   2280862   2280038   2279168   2278253   2277307  
  6180.000000   2276364   2275454   2274601   2273815   2273097  
  6170.000000   2272446   2271861   2271343   2270887   2270477  
  6160.000000   2270080   2269654   2269160   2268574   2267897  
  6150.000000   2267153   2266380   2265606   2264849   2264102  
  6140.000000   2263352   2262586   2261806   2261032   2260292  
  6130.000000   2259607   2258985   2258410   2257859   2257301  
  6120.000000   2256725   2256134   2255548   2254988   2254475  
  6110.000000   2254011   2253598   2253234   2252934   2252717  
  6100.000000   2252614   2252640   2252796   2253052   2253364  
  6090.000000   2253674   2253946   2254154   2254307   2254421  
  6080.000000   2254529   2254654   2254821   2255043   2255340  
  6070.000000   2255720   2256199   2256769   2257425   2258138  
  6060.000000   2258888   2259650   2260430   2261238   2262113  
  6050.000000   2263081   2264172   2265387   2266730   2268177  
  6040.000000   2269724   2271355   2273074   2274868   2276735  
  6030.000000   2278651   2280606   2282584   2284592   2286643  
  6020.000000   2288767   2290981   2293298   2295703   2298175  
  6010.000000   2300672   2303169   2305638   2308079   2310488  
  6000.000000   2312881   2315259   2317640   2320034   2322468  
  5990.000000   2324963   2327555   2330257   2333085   2336027  
  5980.000000   2339070   2342190   2345378   2348625   2351937  
  5970.000000   2355310   2358745   2362223   2365731   2369245  
  5960.000000   2372767   2376291   2379841   2383424   2387058  
  5950.000000   2390740   2394474   2398256   2402094   2406001  
  5940.000000   2409997   2414093   2418289   2422570   2426904  
  5930.000000   2431254   2435581   2439858   2444055   2448151  
  5920.000000   2452118   2455930   2459561   2463003   2466259  
  5910.000000   2469354   2472315   2475174   2477940   2480621  
  5900.000000   2483208   2485711   2488143   2490550   2492970  
  5890.000000   2495451   2498000   2500612   2503239   2505835  
  5880.000000   2508348   2510750   2513023   2515166   2517177  
  5870.000000   2519051   2520777   2522353   2523793   2525133  
  5860.000000   2526427   2527736   2529108   2530575   2532144  
  5850.000000   2533809   2535559   2537389   2539300   2541292  
  5840.000000   2543366   2545508   2547705   2549938   2552206  
  5830.000000   2554510   2556869   2559288   2561773   2564301  
  5820.000000   2566849   2569388   2571915   2574438   2576989  
  5810.000000   2579598   2582278   2585022   2587790   2590544  
  5800.000000   2593237   2595872   2598449   2601016   2603585  
  5790.000000   2606176   2608737   2611215   2613487   2615452  
  5780.000000   2616976   2617970   2618339   2618052   2617095  
  5770.000000   2615539   2613480   2611085   2608515   2605948  
  5760.000000   2603494   2601236   2599174   2597297   2595551  
  5750.000000   2593916   2592363   2590901   2589527   2588240  
  5740.000000   2587024   2585852   2584699   2583539   2582363  
  5730.000000   2581161   2579933   2578670   2577368   2576023  
  5720.000000   2574645   2573250   2571867   2570520   2569225  
  5710.000000   2567981   2566777   2565602   2564453   2563344  
  5700.000000   2562298   2561343   2560492   2559741   2559066  
  5690.000000   2558439   2557827   2557218   2556604   2555994  
  5680.000000   2555381   2554757   2554088   2553343   2552479  
  5670.000000   2551467   2550276   2548884   2547264   2545397  
  5660.000000   2543267   2540889   2538300   2535580   2532820  
  5650.000000   2530118   2527542   2525129   2522867   2520728  
  5640.000000   2518667   2516654   2514679   2512746   2510873  
  5630.000000   2509073   2507356   2505720   2504170   2502702  
  5620.000000   2501331   2500054   2498876   2497777   2496741  
  5610.000000   2495734   2494740   2493746   2492765   2491809  
  5600.000000   2490904   2490059   2489284   2488571   2487913  
  5590.000000   2487296   2486710   2486141   2485574   2484988  
  5580.000000   2484363   2483682   2482941   2482146   2481313  
  5570.000000   2480459   2479596   2478728   2477854   2476973  
  5560.000000   2476087   2475209   2474351   2473525   2472731  
  5550.000000   2471961   2471195   2470418   2469618   2468796  
  5540.000000   2467957   2467106   2466240   2465348   2464417  
  5530.000000   2463440   2462423   2461395   2460387   2459432  
  5520.000000   2458546   2457723   2456935   2456148   2455329  
  5510.000000   2454458   2453528   2452547   2451522   2450464  
  5500.000000   2449379   2448281   2447182   2446103   2445059  
  5490.000000   2444052   2443061   2442050   2440971   2439792  
  5480.000000   2438492   2437090   2435620   2434132   2432665  
  5470.000000   2431241   2429857   2428496   2427132   2425740  
  5460.000000   2424303   2422807   2421237   2419581   2417836  
  5450.000000   2416009   2414130   2412244   2410407   2408666  
  5440.000000   2407047   2405554   2404173   2402880   2401659  
  5430.000000   2400494   2399375   2398280   2397187   2396058  
  5420.000000   2394879   2393649   2392417   2391246   2390227  
  5410.000000   2389409   2388819   2388415   2388147   2387942  
  5400.000000   2387776   2387637   2387571   2387609   2387795  
  5390.000000   2388125   2388593   2389160   2389824   2390581  
  5380.000000   2391477   2392535   2393800   2395259   2396908  
  5370.000000   2398695   2400612   2402621   2404755   2407001  
  5360.000000   2409407   2411955   2414686   2417586   2420724  
  5350.000000   2424126   2427900   2432081   2436755   2441894  
  5340.000000   2447518   2453542   2459976   2466749   2473906  
  5330.000000   2481401   2489295   2497540   2506196   2515222  
  5320.000000   2524714   2534670   2545228   2556395   2568296  
  5310.000000   2580889   2594245   2608272   2623025   2638429  
  5300.000000   2654577   2671444   2689157   2707713   2727229  
  5290.000000   2747660   2769050   2791270   2814264   2837847  
  5280.000000   2861950   2886452   2911396   2936796   2962788  
  5270.000000   2989415   3016721   3044592   3072862   3101294  
  5260.000000   3129686   3157921   3185984   3213954   3241900  
  5250.000000   3269876   3297781   3325477   3352688   3379239  
  5240.000000   3404932   3429787   3453805   3477168   3499930  
  5230.000000   3522233   3544013   3565266   3585809   3605595  
  5220.000000   3624478   3642524   3659725   3676268   3692207  
  5210.000000   3707712   3722744   3737329   3751283   3764551  
  5200.000000   3776952   3788521   3799213   3809188   3818474  
  5190.000000   3827225   3835411   3843098   3850185   3856706  
  5180.000000   3862576   3867862   3872514   3876607   3880078  
  5170.000000   3882978   3885242   3886944   3888069   3888733  
  5160.000000   3888949   3888816   3888298   3887426   3886123  
  5150.000000   3884404   3882223   3879643   3876664   3873370  
  5140.000000   3869763   3865907   3861790   3857467   3852939  
  5130.000000   3848265   3843450   3838531   3833485   3828314  
  5120.000000   3822985   3817510   3811895   3806191   3800438  
  5110.000000   3794692   3788975   3783306   3777680   3772096  
  5100.000000   3766552   3761057   3755619   3750249   3744943  
  5090.000000   3739695   3734492   3729329   3724208   3719141  
  5080.000000   3714140   3709213   3704351   3699538   3694742  
  5070.000000   3689934   3685084   3680178   3675193   3670124  
  5060.000000   3664950   3659664   3654249   3648708   3643037  
  5050.000000   3637257   3631373   3625407   3619355   3613228  
  5040.000000   3607017   3600734   3594375   3587953   3581468  
  5030.000000   3574925   3568318   3561649   3554924   3548161  
  5020.000000   3541390   3534646   3527964   3521366   3514870  
  5010.000000   3508474   3502184   3495999   3489941   3484024  
  5000.000000   3478282   3472722   3467365   3462193   3457209  
  4990.000000   3452386   3447737   3443247   3438950   3434838  
  4980.000000   3430947   3427261   3423809   3420569   3417573  
  4970.000000   3414806   3412310   3410068   3408118   3406434  
  4960.000000   3405049   3403932   3403130   3402624   3402474  
  4950.000000   3402669   3403261   3404222   3405589   3407320  
  4940.000000   3409447   3411932   3414814   3418058   3421701  
  4930.000000   3425697   3430073   3434777   3439839   3445220  
  4920.000000   3450963   3457039   3463487   3470274   3477420  
  4910.000000   3484885   3492682   3500783   3509201   3517909  
  4900.000000   3526902   3536137   3545573   3555152   3564810  
  4890.000000   3574497   3584148   3593724   3603152   3612386  
  4880.000000   3621335   3629952   3638139   3645868   3653057  
  4870.000000   3659705   3665742   3671181   3675966   3680126  
  4860.000000   3683627   3686529   3688822   3690587   3691823  
  4850.000000   3692606   3692931   3692865   3692413   3691650  
  4840.000000   3690606   3689370   3687986   3686537   3685061  
  4830.000000   3683617   3682224   3680916   3679701   3678592  
  4820.000000   3677593   3676708   3675941   3675299   3674796  
  4810.000000   3674441   3674254   3674232   3674381   3674676  
  4800.000000   3675105   3675629   3676238   3676911   3677660  
  4790.000000   3678484   3679409   3680436   3681581   3682832  
  4780.000000   3684188   3685630   3687151   3688733   3690364  
  4770.000000   3692022   3693686   3695328   3696928   3698466  
  4760.000000   3699943   3701366   3702760   3704150   3705564  
  4750.000000   3707019   3708521   3710066   3711638   3713223  
  4740.000000   3714804   3716373   3717922   3719452   3720961  
  4730.000000   3722443   3723895   3725303   3726664   3727972  
  4720.000000   3729240   3730480   3731727   3733003   3734348  
  4710.000000   3735780   3737331   3739010   3740846   3742849  
  4700.000000   3745050   3747462   3750113   3753005   3756148  
  4690.000000   3759528   3763134   3766932   3770900   3774984  
  4680.000000   3779143   3783306   3787425   3791434   3795310  
  4670.000000   3799028   3802618   3806108   3809565   3813038  
  4660.000000   3816585   3820241   3824044   3828016   3832184  
  4650.000000   3836570   3841189   3846044   3851115   3856369  
  4640.000000   3861749   3867202   3872669   3878113   3883494  
  4630.000000   3888793   3893974   3899016   3903869   3908502  
  4620.000000   3912858   3916913   3920621   3923976   3926949  
  4610.000000   3929558   3931798   3933721   3935356   3936789  
  4600.000000   3938065   3939267   3940409   3941527   3942581  
  4590.000000   3943559   3944390   3945050   3945477   3945664  
  4580.000000   3945577   3945231   3944617   3943769   3942699  
  4570.000000   3941457   3940069   3938585   3937021   3935405  
  4560.000000   3933725   3931985   3930162   3928255   3926248  
  4550.000000   3924152   3921964   3919703   3917374   3914998  
  4540.000000   3912588   3910166   3907750   3905354   3902984  
  4530.000000   3900633   3898286   3895917   3893513   3891058  
  4520.000000   3888573   3886066   3883590   3881166   3878853  
  4510.000000   3876660   3874644   3872807   3871222   3869901  
  4500.000000   3868944   3868374   3868299   3868733   3869774  
  4490.000000   3871413   3873736   3876717   3880430   3884834  
  4480.000000   3889987   3895827   3902392   3909607   3917503  
  4470.000000   3926002   3935130   3944805   3955040   3965742  
  4460.000000   3976909   3988445   4000341   4012513   4024958  
  4450.000000   4037610   4050474   4063506   4076718   4090089  
  4440.000000   4103633   4117344   4131221   4145249   4159391  
  4430.000000   4173611   4187835   4202015   4216059   4229924  
  4420.000000   4243517   4256808   4269710   4282202   4294198  
  4410.000000   4305680   4316559   4326818   4336377   4345239  
  4400.000000   4353362   4360803   4367583   4373823   4379597  
  4390.000000   4385059   4390293   4395432   4400525   4405651  
  4380.000000   4410806   4416021   4421262   4426540   4431831  
  4370.000000   4437155   4442509   4447918   4453381   4458903  
  4360.000000   4464454   4470015   4475530   4480982   4486301  
  4350.000000   4491498   4496503   4501366   4506041   4510625  
  4340.000000   4515108   4519588   4523997   4528269   4532096  
  4330.000000   4535097   4536703   4536382   4533655   4528327  
  4320.000000   4520494   4510629   4499444   4487809   4476525  
  4310.000000   4466249   4457347   4449955   4443974   4439221  
  4300.000000   4435471   4432546   4430329   4428736   4427730  
  4290.000000   4427232   4427205   4427548   4428245   4429232  
  4280.000000   4430529   4432112   4433982   4436101   4438418  
  4270.000000   4440873   4443389   4445898   4448285   4450410  
  4260.000000   4452054   4452962   4452846   4451480   4448722  
  4250.000000   4444613   4439335   4433241   4426730   4420234  
  4240.000000   4414078   4408508   4403591   4399316   4395554  
  4230.000000   4392169   4389005   4385942   4382896   4379814  
  4220.000000   4376698   4373552   4370445   4367420   4364585  
  4210.000000   4361998   4359762   4357907   4356492   4355500  
  4200.000000   4354932   4354734   4354877   4355289   4355942  
  4190.000000   4356770   4357759   4358855   4360059   4361326  
  4180.000000   4362664   4364031   4365447   4366883   4368381  
  4170.000000   4369944   4371647   4373518   4375644   4378053  
  4160.000000   4380816   4383938   4387466   4391381   4395717  
  4150.000000   4400439   4405567   4411050   4416900   4423058  
  4140.000000   4429552   4436344   4443500   4451013   4458971  
  4130.000000   4467367   4476269   4485639   4495509   4505820  
  4120.000000   4516600   4527806   4539492   4551651   4564354  
  4110.000000   4577606   4591458   4605882   4620875   4636349  
  4100.000000   4652238   4668418   4684799   4701277   4717798  
  4090.000000   4734320   4750830   4767324   4783790   4800220  
  4080.000000   4816568   4832819   4848906   4864820   4880488  
  4070.000000   4895899   4910957   4925638   4939830   4953521  
  4060.000000   4966617   4979138   4991013   5002288   5012900  
  4050.000000   5022915   5032298   5041154   5049480   5057399  
  4040.000000   5064885   5072007   5078670   5084879   5090511  
  4030.000000   5095579   5100001   5103835   5107049   5109714  
  4020.000000   5111784   5113333   5114367   5114966   5115102  
  4010.000000   5114880   5114352   5113504   5112127   5110238  
  4000.000000   5108084  
##END= 
