##TITLE= Sample 002 By ssteindl date Donnerstag, November 22 2018
##JCAMP-DX= 4.24
##DATA TYPE= INFRARED SPECTRUM
##ORIGIN= Exported PE Spectrum Data File
##OWNER= Sandra Steindl
##DATE= 18/11/22
##TIME= 12:37:44.00
##SPECTROMETER/DATA SYSTEM= PERKIN-ELMER Frontier FT-IR/NIR IR
##INSTRUMENT PARAMETERS=
  APODIZATION=stark
  DETECTOR=INGAAS
##RESOLUTION= 16.000000
##DELTAX= -2.000000
##XUNITS= 1/CM
##YUNITS= A
##XFACTOR= 1.00
##YFACTOR= 0.00000011920928955078
##FIRSTX= 10000.00
##LASTX= 4000.00
##NPOINTS= 3001
##FIRSTY= 0.290876
##MAXY= 0.630774
##MINY= 0.207083
##XYDATA= (X++(Y..Y))
 10000.000000   2440047   2444182   2449174   2455691   2462625  
  9990.000000   2468151   2471279   2472256   2471796   2470763  
  9980.000000   2469970   2469818   2469816   2468900   2466020  
  9970.000000   2460772   2453611   2445837   2439050   2434550  
  9960.000000   2432734   2433094   2434390   2435328   2435018  
  9950.000000   2433318   2430783   2428293   2426676   2426301  
  9940.000000   2427022   2428249   2429234   2429304   2428094  
  9930.000000   2425589   2422148   2418405   2415127   2413116  
  9920.000000   2412910   2414681   2417983   2421854   2425024  
  9910.000000   2426339   2425197   2421744   2416822   2411563  
  9900.000000   2406921   2403261   2400281   2397237   2393399  
  9890.000000   2388516   2382968   2377738   2373869   2372140  
  9880.000000   2372581   2374605   2377202   2379392   2380569  
  9870.000000   2380502   2379326   2377086   2373774   2369097  
  9860.000000   2362900   2355231   2346681   2338220   2331018  
  9850.000000   2326071   2323909   2324599   2327793   2333084  
  9840.000000   2340086   2348531   2358076   2368110   2377705  
  9830.000000   2385637   2390819   2392524   2390827   2386472  
  9820.000000   2380781   2375119   2370560   2367645   2366344  
  9810.000000   2366378   2367304   2368891   2370941   2373381  
  9800.000000   2375994   2378485   2380455   2381549   2381565  
  9790.000000   2380442   2378280   2375184   2371304   2366806  
  9780.000000   2361981   2357330   2353471   2351082   2350563  
  9770.000000   2351949   2354754   2358173   2361281   2363361  
  9760.000000   2364058   2363398   2361654   2359105   2355951  
  9750.000000   2352243   2348064   2343605   2339258   2335493  
  9740.000000   2332682   2330922   2329959   2329330   2328548  
  9730.000000   2327374   2325890   2324469   2323522   2323267  
  9720.000000   2323560   2323959   2323954   2323244   2321926  
  9710.000000   2320422   2319268   2318774   2318865   2319066  
  9700.000000   2318748   2317412   2314912   2311523   2307771  
  9690.000000   2304222   2301235   2298921   2297209   2296012  
  9680.000000   2295368   2295376   2296088   2297247   2298267  
  9670.000000   2298313   2296677   2293093   2287985   2282402  
  9660.000000   2277680   2275001   2274949   2277365   2281451  
  9650.000000   2286130   2290461   2293892   2296304   2297793  
  9640.000000   2298417   2298014   2296283   2292999   2288338  
  9630.000000   2282976   2277994   2274495   2273162   2274006  
  9620.000000   2276303   2278962   2280892   2281475   2280689  
  9610.000000   2279041   2277229   2275773   2274810   2274056  
  9600.000000   2273075   2271522   2269413   2267114   2265152  
  9590.000000   2263974   2263659   2263978   2264443   2264667  
  9580.000000   2264492   2264106   2263861   2264042   2264615  
  9570.000000   2265151   2264934   2263241   2259687   2254386  
  9560.000000   2248005   2241465   2235669   2231121   2227844  
  9550.000000   2225403   2223219   2220831   2218146   2215442  
  9540.000000   2213225   2212001   2212056   2213404   2215804  
  9530.000000   2218932   2222504   2226353   2230401   2234526  
  9520.000000   2238483   2241838   2244093   2244812   2243847  
  9510.000000   2241358   2237806   2233744   2229642   2225754  
  9500.000000   2222102   2218620   2215265   2212188   2209668  
  9490.000000   2208060   2207538   2208032   2209142   2210344  
  9480.000000   2211149   2211337   2210992   2210437   2210042  
  9470.000000   2210020   2210339   2210709   2210793   2210293  
  9460.000000   2209169   2207489   2205439   2203071   2200335  
  9450.000000   2197091   2193260   2189024   2184818   2181399  
  9440.000000   2179537   2179918   2182785   2187952   2194726  
  9430.000000   2202153   2209159   2214756   2218162   2218817  
  9420.000000   2216519   2211378   2203968   2195171   2186115  
  9410.000000   2177871   2171208   2166433   2163321   2161351  
  9400.000000   2159899   2158618   2157495   2156865   2157112  
  9390.000000   2158360   2160314   2162238   2163331   2162965  
  9380.000000   2161070   2158073   2154841   2152314   2151225  
  9370.000000   2151885   2154130   2157517   2161465   2165497  
  9360.000000   2169196   2172234   2174271   2175000   2174251  
  9350.000000   2172070   2168826   2165045   2161303   2157925  
  9340.000000   2154900   2151869   2148332   2143996   2138998  
  9330.000000   2134071   2130249   2128555   2129489   2132898  
  9320.000000   2137932   2143382   2148016   2150971   2151965  
  9310.000000   2151216   2149290   2146749   2144070   2141479  
  9300.000000   2139066   2136773   2134494   2132094   2129449  
  9290.000000   2126527   2123401   2120377   2117917   2116638  
  9280.000000   2117010   2119163   2122678   2126656   2130009  
  9270.000000   2131799   2131618   2129661   2126658   2123506  
  9260.000000   2120913   2119128   2117924   2116827   2115434  
  9250.000000   2113690   2111909   2110648   2110336   2111050  
  9240.000000   2112365   2113528   2113774   2112607   2110062  
  9230.000000   2106561   2102805   2099359   2096515   2094214  
  9220.000000   2092212   2090330   2088611   2087418   2087257  
  9210.000000   2088595   2091566   2095954   2101162   2106417  
  9200.000000   2110914   2114009   2115359   2114876   2112747  
  9190.000000   2109293   2104975   2100278   2095655   2091449  
  9180.000000   2087833   2084826   2082314   2080185   2078363  
  9170.000000   2076926   2076000   2075723   2076074   2076842  
  9160.000000   2077673   2078184   2078168   2077640   2076872  
  9150.000000   2076226   2075985   2076223   2076744   2077227  
  9140.000000   2077369   2077086   2076559   2076154   2076231  
  9130.000000   2076883   2077842   2078503   2078160   2076227  
  9120.000000   2072507   2067296   2061357   2055667   2051119  
  9110.000000   2048342   2047558   2048646   2051141   2054453  
  9100.000000   2057953   2061129   2063600   2065166   2065813  
  9090.000000   2065646   2064874   2063665   2062161   2060355  
  9080.000000   2058192   2055565   2052454   2048985   2045441  
  9070.000000   2042250   2039825   2038500   2038383   2039380  
  9060.000000   2041176   2043335   2045362   2046827   2047440  
  9050.000000   2047094   2045894   2044114   2042179   2040512  
  9040.000000   2039438   2039041   2039154   2039383   2039251  
  9030.000000   2038374   2036612   2034156   2031442   2029030  
  9020.000000   2027368   2026687   2026923   2027784   2028876  
  9010.000000   2029831   2030422   2030552   2030227   2029468  
  9000.000000   2028306   2026758   2024899   2022858   2020861  
  8990.000000   2019147   2017932   2017309   2017231   2017561  
  8980.000000   2018099   2018718   2019319   2019919   2020542  
  8970.000000   2021232   2021990   2022780   2023566   2024252  
  8960.000000   2024709   2024708   2023976   2022205   2019176  
  8950.000000   2014899   2009715   2004295   1999483   1996109  
  8940.000000   1994728   1995436   1997785   2000946   2003948  
  8930.000000   2005977   2006572   2005728   2003865   2001627  
  8920.000000   1999697   1998555   1998418   1999166   2000450  
  8910.000000   2001781   2002699   2002890   2002280   2001071  
  8900.000000   1999664   1998547   1998079   1998386   1999269  
  8890.000000   2000288   2000916   2000761   1999740   1998136  
  8880.000000   1996470   1995304   1994973   1995449   1996327  
  8870.000000   1996995   1996894   1995731   1993613   1990959  
  8860.000000   1988331   1986202   1984795   1984050   1983698  
  8850.000000   1983442   1983089   1982641   1982253   1982134  
  8840.000000   1982426   1983132   1984120   1985164   1986034  
  8830.000000   1986526   1986518   1985944   1984838   1983312  
  8820.000000   1981591   1979993   1978878   1978558   1979174  
  8810.000000   1980627   1982557   1984449   1985782   1986223  
  8800.000000   1985718   1984524   1983077   1981843   1981156  
  8790.000000   1981109   1981571   1982240   1982781   1982918  
  8780.000000   1982498   1981502   1980007   1978184   1976245  
  8770.000000   1974455   1973075   1972323   1972309   1972971  
  8760.000000   1974079   1975259   1976109   1976312   1975737  
  8750.000000   1974477   1972813   1971121   1969769   1969010  
  8740.000000   1968954   1969549   1970647   1972030   1973463  
  8730.000000   1974707   1975557   1975875   1975633   1974934  
  8720.000000   1974008   1973152   1972662   1972724   1973371  
  8710.000000   1974455   1975713   1976853   1977651   1978027  
  8700.000000   1978031   1977827   1977591   1977483   1977579  
  8690.000000   1977910   1978453   1979175   1980029   1980952  
  8680.000000   1981841   1982545   1982874   1982647   1981750  
  8670.000000   1980173   1978035   1975559   1973031   1970738  
  8660.000000   1968901   1967644   1966982   1966842   1967094  
  8650.000000   1967580   1968155   1968688   1969096   1969317  
  8640.000000   1969334   1969144   1968795   1968360   1967977  
  8630.000000   1967799   1967997   1968697   1969954   1971708  
  8620.000000   1973783   1975925   1977871   1979421   1980486  
  8610.000000   1981097   1981373   1981454   1981445   1981386  
  8600.000000   1981278   1981112   1980935   1980837   1980945  
  8590.000000   1981335   1981970   1982670   1983151   1983140  
  8580.000000   1982489   1981305   1979930   1978883   1978651  
  8570.000000   1979556   1981609   1984514   1987743   1990705  
  8560.000000   1992920   1994120   1994275   1993535   1992150  
  8550.000000   1990370   1988415   1986466   1984709   1983326  
  8540.000000   1982467   1982213   1982514   1983211   1984026  
  8530.000000   1984694   1985025   1984997   1984751   1984516  
  8520.000000   1984527   1984882   1985523   1986217   1986678  
  8510.000000   1986655   1986075   1985053   1983889   1982959  
  8500.000000   1982595   1982985   1984088   1985695   1987474  
  8490.000000   1989110   1990393   1991278   1991891   1992428  
  8480.000000   1993074   1993880   1994751   1995434   1995630  
  8470.000000   1995113   1993857   1992083   1990199   1988723  
  8460.000000   1988095   1988573   1990109   1992405   1994997  
  8450.000000   1997402   1999241   2000301   2000558   2000113  
  8440.000000   1999133   1997788   1996248   1994682   1993284  
  8430.000000   1992261   1991792   1991989   1992820   1994132  
  8420.000000   1995625   1996997   1997983   1998477   1998507  
  8410.000000   1998218   1997792   1997356   1996950   1996497  
  8400.000000   1995892   1995021   1993837   1992364   1990698  
  8390.000000   1988967   1987286   1985762   1984483   1983550  
  8380.000000   1983049   1983060   1983604   1984632   1986003  
  8370.000000   1987506   1988898   1989973   1990605   1990763  
  8360.000000   1990503   1989924   1989136   1988225   1987245  
  8350.000000   1986233   1985223   1984260   1983383   1982610  
  8340.000000   1981908   1981209   1980402   1979402   1978138  
  8330.000000   1976632   1974973   1973326   1971875   1970774  
  8320.000000   1970115   1969888   1969993   1970223   1970317  
  8310.000000   1970004   1969086   1967490   1965304   1962782  
  8300.000000   1960303   1958290   1957093   1956886   1957604  
  8290.000000   1958962   1960535   1961870   1962619   1962604  
  8280.000000   1961858   1960572   1959006   1957397   1955894  
  8270.000000   1954552   1953371   1952344   1951511   1950940  
  8260.000000   1950699   1950789   1951095   1951393   1951381  
  8250.000000   1950790   1949478   1947516   1945190   1942929  
  8240.000000   1941171   1940243   1940243   1941037   1942285  
  8230.000000   1943559   1944464   1944748   1944344   1943356  
  8220.000000   1941983   1940433   1938859   1937322   1935806  
  8210.000000   1934258   1932637   1930962   1929303   1927782  
  8200.000000   1926493   1925504   1924786   1924258   1923781  
  8190.000000   1923217   1922455   1921433   1920147   1918629  
  8180.000000   1916942   1915141   1913281   1911395   1909518  
  8170.000000   1907683   1905926   1904296   1902824   1901551  
  8160.000000   1900486   1899642   1899012   1898579   1898319  
  8150.000000   1898171   1898058   1897839   1897350   1896397  
  8140.000000   1894827   1892567   1889685   1886409   1883103  
  8130.000000   1880204   1878106   1877082   1877175   1878215  
  8120.000000   1879817   1881509   1882830   1883443   1883208  
  8110.000000   1882166   1880515   1878484   1876304   1874102  
  8100.000000   1871947   1869832   1867764   1865784   1863987  
  8090.000000   1862519   1861496   1861009   1861034   1861493  
  8080.000000   1862232   1863093   1863929   1864624   1865093  
  8070.000000   1865252   1865029   1864338   1863124   1861361  
  8060.000000   1859105   1856477   1853669   1850898   1848369  
  8050.000000   1846241   1844594   1843442   1842723   1842344  
  8040.000000   1842180   1842114   1842037   1841872   1841576  
  8030.000000   1841145   1840616   1840045   1839497   1839018  
  8020.000000   1838632   1838322   1838053   1837772   1837433  
  8010.000000   1836997   1836432   1835715   1834821   1833737  
  8000.000000   1832461   1831027   1829504   1827999   1826633  
  7990.000000   1825514   1824700   1824187   1823902   1823727  
  7980.000000   1823532   1823218   1822741   1822119   1821429  
  7970.000000   1820769   1820232   1819870   1819679   1819593  
  7960.000000   1819510   1819312   1818911   1818268   1817416  
  7950.000000   1816452   1815503   1814693   1814093   1813701  
  7940.000000   1813439   1813185   1812820   1812273   1811548  
  7930.000000   1810719   1809895   1809171   1808593   1808133  
  7920.000000   1807718   1807260   1806710   1806075   1805432  
  7910.000000   1804881   1804516   1804379   1804452   1804668  
  7900.000000   1804944   1805213   1805445   1805640   1805810  
  7890.000000   1805953   1806045   1806047   1805926   1805678  
  7880.000000   1805342   1804988   1804687   1804490   1804395  
  7870.000000   1804359   1804304   1804167   1803909   1803533  
  7860.000000   1803066   1802537   1801955   1801298   1800531  
  7850.000000   1799622   1798577   1797444   1796313   1795285  
  7840.000000   1794443   1793836   1793455   1793267   1793214  
  7830.000000   1793252   1793350   1793498   1793687   1793904  
  7820.000000   1794117   1794272   1794310   1794168   1793807  
  7810.000000   1793205   1792379   1791366   1790232   1789053  
  7800.000000   1787908   1786869   1785983   1785286   1784779  
  7790.000000   1784460   1784307   1784295   1784385   1784523  
  7780.000000   1784636   1784633   1784427   1783948   1783180  
  7770.000000   1782163   1781003   1779845   1778833   1778076  
  7760.000000   1777612   1777408   1777367   1777370   1777303  
  7750.000000   1777096   1776720   1776193   1775548   1774815  
  7740.000000   1774008   1773113   1772109   1770966   1769680  
  7730.000000   1768271   1766790   1765318   1763943   1762761  
  7720.000000   1761843   1761236   1760942   1760926   1761113  
  7710.000000   1761405   1761692   1761867   1761845   1761564  
  7700.000000   1761008   1760186   1759157   1757995   1756797  
  7690.000000   1755647   1754612   1753724   1752979   1752356  
  7680.000000   1751825   1751376   1751016   1750769   1750655  
  7670.000000   1750663   1750743   1750802   1750740   1750476  
  7660.000000   1749987   1749320   1748586   1747921   1747443  
  7650.000000   1747216   1747230   1747415   1747667   1747886  
  7640.000000   1747998   1747968   1747788   1747476   1747052  
  7630.000000   1746547   1746000   1745462   1744992   1744641  
  7620.000000   1744431   1744342   1744313   1744253   1744076  
  7610.000000   1743721   1743178   1742473   1741668   1740819  
  7600.000000   1739979   1739177   1738448   1737827   1737369  
  7590.000000   1737136   1737175   1737502   1738082   1738837  
  7580.000000   1739669   1740487   1741230   1741871   1742412  
  7570.000000   1742850   1743172   1743334   1743295   1743029  
  7560.000000   1742563   1741969   1741363   1740865   1740562  
  7550.000000   1740488   1740612   1740862   1741154   1741429  
  7540.000000   1741670   1741898   1742159   1742493   1742917  
  7530.000000   1743412   1743934   1744423   1744834   1745141  
  7520.000000   1745360   1745529   1745714   1745975   1746359  
  7510.000000   1746881   1747521   1748227   1748936   1749579  
  7500.000000   1750117   1750537   1750870   1751171   1751507  
  7490.000000   1751939   1752509   1753232   1754105   1755103  
  7480.000000   1756192   1757330   1758477   1759585   1760615  
  7470.000000   1761536   1762340   1763042   1763684   1764326  
  7460.000000   1765037   1765876   1766890   1768095   1769476  
  7450.000000   1770990   1772563   1774105   1775518   1776723  
  7440.000000   1777683   1778424   1779031   1779636   1780376  
  7430.000000   1781352   1782591   1784036   1785560   1787010  
  7420.000000   1788262   1789257   1790013   1790606   1791139  
  7410.000000   1791693   1792316   1793016   1793793   1794654  
  7400.000000   1795635   1796787   1798151   1799731   1801478  
  7390.000000   1803299   1805091   1806776   1808330   1809787  
  7380.000000   1811212   1812666   1814178   1815725   1817257  
  7370.000000   1818720   1820086   1821368   1822609   1823851  
  7360.000000   1825110   1826362   1827550   1828614   1829520  
  7350.000000   1830289   1830989   1831718   1832558   1833552  
  7340.000000   1834681   1835881   1837068   1838172   1839160  
  7330.000000   1840037   1840838   1841611   1842408   1843266  
  7320.000000   1844211   1845252   1846388   1847600   1848854  
  7310.000000   1850107   1851314   1852448   1853509   1854524  
  7300.000000   1855542   1856614   1857774   1859022   1860325  
  7290.000000   1861629   1862877   1864033   1865081   1866037  
  7280.000000   1866929   1867790   1868643   1869504   1870373  
  7270.000000   1871244   1872105   1872938   1873725   1874443  
  7260.000000   1875076   1875613   1876063   1876453   1876837  
  7250.000000   1877279   1877864   1878663   1879742   1881129  
  7240.000000   1882824   1884776   1886908   1889114   1891305  
  7230.000000   1893404   1895398   1897300   1899172   1901064  
  7220.000000   1903030   1905069   1907172   1909298   1911435  
  7210.000000   1913588   1915812   1918168   1920728   1923515  
  7200.000000   1926520   1929679   1932926   1936195   1939468  
  7190.000000   1942752   1946092   1949521   1953066   1956709  
  7180.000000   1960429   1964184   1967962   1971752   1975570  
  7170.000000   1979409   1983261   1987072   1990804   1994405  
  7160.000000   1997880   2001256   2004611   2008022   2011582  
  7150.000000   2015363   2019437   2023853   2028662   2033875  
  7140.000000   2039475   2045367   2051419   2057441   2063279  
  7130.000000   2068803   2074003   2078933   2083759   2088650  
  7120.000000   2093785   2099254   2105085   2111210   2117532  
  7110.000000   2123932   2130323   2136649   2142901   2149094  
  7100.000000   2155280   2161512   2167860   2174363   2181044  
  7090.000000   2187866   2194762   2201627   2208372   2214939  
  7080.000000   2221343   2227659   2234004   2240481   2247148  
  7070.000000   2253983   2260897   2267767   2274486   2281005  
  7060.000000   2287343   2293577   2299807   2306114   2312537  
  7050.000000   2319060   2325631   2332183   2338656   2345019  
  7040.000000   2351265   2357416   2363504   2369579   2375684  
  7030.000000   2381862   2388131   2394483   2400867   2407211  
  7020.000000   2413418   2419416   2425158   2430656   2435951  
  7010.000000   2441127   2446252   2451385   2456545   2461728  
  7000.000000   2466895   2472007   2477011   2481873   2486552  
  6990.000000   2491047   2495365   2499561   2503697   2507860  
  6980.000000   2512102   2516448   2520854   2525242   2529501  
  6970.000000   2533546   2537314   2540805   2544039   2547070  
  6960.000000   2549929   2552656   2555272   2557827   2560374  
  6950.000000   2562998   2565754   2568674   2571707   2574762  
  6940.000000   2577692   2580385   2582764   2584844   2586690  
  6930.000000   2588408   2590078   2591745   2593394   2594989  
  6920.000000   2596489   2597895   2599236   2600578   2601966  
  6910.000000   2603427   2604931   2606427   2607844   2609139  
  6900.000000   2610294   2611335   2612304   2613249   2614201  
  6890.000000   2615175   2616164   2617150   2618111   2619024  
  6880.000000   2619871   2620648   2621362   2622044   2622736  
  6870.000000   2623492   2624346   2625312   2626358   2627434  
  6860.000000   2628473   2629428   2630279   2631041   2631741  
  6850.000000   2632402   2633022   2633578   2634035   2634376  
  6840.000000   2634613   2634794   2634981   2635224   2635532  
  6830.000000   2635882   2636215   2636488   2636682   2636829  
  6820.000000   2636987   2637217   2637543   2637942   2638341  
  6810.000000   2638661   2638834   2638842   2638711   2638500  
  6800.000000   2638264   2638045   2637844   2637649   2637436  
  6790.000000   2637195   2636920   2636612   2636257   2635831  
  6780.000000   2635298   2634644   2633882   2633066   2632274  
  6770.000000   2631586   2631043   2630644   2630337   2630055  
  6760.000000   2629734   2629343   2628883   2628373   2627829  
  6750.000000   2627249   2626617   2625922   2625177   2624435  
  6740.000000   2623776   2623279   2622981   2622860   2622824  
  6730.000000   2622750   2622519   2622069   2621409   2620614  
  6720.000000   2619791   2619037   2618400   2617876   2617414  
  6710.000000   2616952   2616439   2615860   2615223   2614556  
  6700.000000   2613874   2613181   2612454   2611658   2610755  
  6690.000000   2609720   2608547   2607256   2605882   2604481  
  6680.000000   2603108   2601819   2600646   2599600   2598659  
  6670.000000   2597781   2596907   2595991   2595000   2593928  
  6660.000000   2592787   2591601   2590385   2589150   2587896  
  6650.000000   2586629   2585359   2584108   2582899   2581744  
  6640.000000   2580628   2579511   2578333   2577035   2575575  
  6630.000000   2573943   2572162   2570281   2568353   2566429  
  6620.000000   2564545   2562733   2561010   2559396   2557900  
  6610.000000   2556522   2555235   2553998   2552754   2551448  
  6600.000000   2550041   2548519   2546889   2545177   2543411  
  6590.000000   2541616   2539813   2538019   2536254   2534536  
  6580.000000   2532878   2531280   2529723   2528181   2526622  
  6570.000000   2525035   2523430   2521843   2520317   2518887  
  6560.000000   2517560   2516308   2515085   2513839   2512536  
  6550.000000   2511176   2509784   2508400   2507053   2505751  
  6540.000000   2504478   2503201   2501890   2500526   2499113  
  6530.000000   2497664   2496197   2494719   2493229   2491724  
  6520.000000   2490205   2488690   2487207   2485793   2484476  
  6510.000000   2483268   2482158   2481122   2480131   2479157  
  6500.000000   2478186   2477208   2476220   2475218   2474196  
  6490.000000   2473146   2472065   2470953   2469813   2468654  
  6480.000000   2467481   2466301   2465124   2463964   2462837  
  6470.000000   2461762   2460748   2459789   2458862   2457934  
  6460.000000   2456972   2455960   2454904   2453834   2452788  
  6450.000000   2451800   2450888   2450048   2449261   2448499  
  6440.000000   2447743   2446975   2446190   2445376   2444519  
  6430.000000   2443604   2442628   2441604   2440574   2439598  
  6420.000000   2438742   2438049   2437533   2437161   2436877  
  6410.000000   2436615   2436324   2435977   2435576   2435136  
  6400.000000   2434679   2434220   2433772   2433344   2432957  
  6390.000000   2432634   2432399   2432261   2432201   2432176  
  6380.000000   2432121   2431974   2431691   2431265   2430717  
  6370.000000   2430095   2429448   2428819   2428229   2427686  
  6360.000000   2427182   2426707   2426243   2425770   2425259  
  6350.000000   2424684   2424021   2423266   2422434   2421564  
  6340.000000   2420707   2419909   2419194   2418566   2418001  
  6330.000000   2417469   2416939   2416393   2415822   2415225  
  6320.000000   2414596   2413927   2413205   2412426   2411593  
  6310.000000   2410729   2409862   2409021   2408216   2407446  
  6300.000000   2406685   2405908   2405086   2404206   2403253  
  6290.000000   2402226   2401112   2399905   2398595   2397190  
  6280.000000   2395706   2394184   2392660   2391172   2389728  
  6270.000000   2388324   2386929   2385518   2384068   2382577  
  6260.000000   2381051   2379502   2377935   2376347   2374726  
  6250.000000   2373069   2371385   2369701   2368054   2366482  
  6240.000000   2365004   2363617   2362299   2361013   2359725  
  6230.000000   2358410   2357052   2355645   2354186   2352672  
  6220.000000   2351105   2349496   2347866   2346248   2344676  
  6210.000000   2343178   2341759   2340408   2339097   2337798  
  6200.000000   2336489   2335164   2333827   2332486   2331146  
  6190.000000   2329804   2328458   2327110   2325773   2324470  
  6180.000000   2323227   2322058   2320962   2319917   2318896  
  6170.000000   2317875   2316848   2315827   2314838   2313901  
  6160.000000   2313018   2312167   2311310   2310404   2309427  
  6150.000000   2308381   2307297   2306218   2305186   2304224  
  6140.000000   2303331   2302489   2301675   2300869   2300062  
  6130.000000   2299252   2298442   2297627   2296802   2295960  
  6120.000000   2295101   2294236   2293391   2292588   2291854  
  6110.000000   2291195   2290610   2290080   2289589   2289119  
  6100.000000   2288669   2288238   2287840   2287483   2287180  
  6090.000000   2286933   2286750   2286624   2286552   2286513  
  6080.000000   2286492   2286463   2286422   2286369   2286333  
  6070.000000   2286348   2286463   2286702   2287083   2287585  
  6060.000000   2288182   2288831   2289512   2290206   2290929  
  6050.000000   2291691   2292517   2293413   2294387   2295431  
  6040.000000   2296551   2297743   2299023   2300394   2301862  
  6030.000000   2303413   2305030   2306685   2308357   2310026  
  6020.000000   2311692   2313349   2315006   2316657   2318306  
  6010.000000   2319948   2321593   2323248   2324939   2326679  
  6000.000000   2328486   2330361   2332301   2334293   2336331  
  5990.000000   2338404   2340517   2342665   2344853   2347070  
  5980.000000   2349312   2351563   2353828   2356109   2358427  
  5970.000000   2360800   2363254   2365794   2368428   2371139  
  5960.000000   2373916   2376732   2379573   2382415   2385252  
  5950.000000   2388079   2390911   2393769   2396694   2399721  
  5940.000000   2402885   2406197   2409650   2413210   2416829  
  5930.000000   2420458   2424053   2427582   2431025   2434370  
  5920.000000   2437602   2440705   2443661   2446461   2449103  
  5910.000000   2451603   2453982   2456265   2458469   2460609  
  5900.000000   2462686   2464714   2466703   2468686   2470687  
  5890.000000   2472735   2474836   2476984   2479152   2481314  
  5880.000000   2483445   2485537   2487592   2489620   2491629  
  5870.000000   2493617   2495578   2497499   2499382   2501237  
  5860.000000   2503092   2504976   2506922   2508948   2511062  
  5850.000000   2513259   2515534   2517878   2520293   2522777  
  5840.000000   2525332   2527955   2530644   2533392   2536203  
  5830.000000   2539073   2542002   2544973   2547964   2550935  
  5820.000000   2553852   2556682   2559418   2562074   2564682  
  5810.000000   2567279   2569889   2572525   2575170   2577814  
  5800.000000   2580428   2583023   2585591   2588166   2590739  
  5790.000000   2593316   2595840   2598263   2600474   2602388  
  5780.000000   2603879   2604866   2605259   2605030   2604172  
  5770.000000   2602757   2600879   2598696   2596350   2593996  
  5760.000000   2591723   2589602   2587635   2585827   2584149  
  5750.000000   2582601   2581170   2579860   2578658   2577545  
  5740.000000   2576496   2575484   2574502   2573545   2572632  
  5730.000000   2571768   2570957   2570179   2569413   2568629  
  5720.000000   2567822   2567001   2566203   2565460   2564808  
  5710.000000   2564256   2563798   2563412   2563076   2562774  
  5700.000000   2562504   2562264   2562054   2561864   2561674  
  5690.000000   2561470   2561238   2560987   2560727   2560484  
  5680.000000   2560264   2560068   2559865   2559621   2559283  
  5670.000000   2558815   2558173   2557332   2556266   2554966  
  5660.000000   2553428   2551676   2549749   2547712   2545633  
  5650.000000   2543582   2541600   2539713   2537916   2536200  
  5640.000000   2534547   2532955   2531423   2529955   2528550  
  5630.000000   2527195   2525879   2524585   2523313   2522072  
  5620.000000   2520882   2519756   2518704   2517714   2516768  
  5610.000000   2515844   2514934   2514037   2513174   2512360  
  5600.000000   2511606   2510905   2510239   2509578   2508902  
  5590.000000   2508200   2507473   2506730   2505977   2505214  
  5580.000000   2504436   2503639   2502822   2501998   2501182  
  5570.000000   2500387   2499615   2498855   2498081   2497269  
  5560.000000   2496399   2495469   2494488   2493472   2492435  
  5550.000000   2491384   2490317   2489235   2488138   2487041  
  5540.000000   2485959   2484911   2483904   2482938   2482003  
  5530.000000   2481092   2480200   2479336   2478507   2477717  
  5520.000000   2476953   2476190   2475393   2474528   2473577  
  5510.000000   2472542   2471439   2470294   2469124   2467940  
  5500.000000   2466743   2465535   2464321   2463119   2461942  
  5490.000000   2460803   2459686   2458567   2457402   2456159  
  5480.000000   2454820   2453395   2451911   2450406   2448906  
  5470.000000   2447424   2445948   2444462   2442944   2441387  
  5460.000000   2439788   2438150   2436473   2434752   2432981  
  5450.000000   2431162   2429313   2427465   2425657   2423922  
  5440.000000   2422272   2420700   2419187   2417714   2416277  
  5430.000000   2414882   2413546   2412271   2411050   2409853  
  5420.000000   2408661   2407457   2406273   2405151   2404167  
  5410.000000   2403360   2402752   2402301   2401964   2401678  
  5400.000000   2401433   2401234   2401144   2401210   2401482  
  5390.000000   2401948   2402590   2403345   2404194   2405122  
  5380.000000   2406178   2407397   2408844   2410516   2412413  
  5370.000000   2414469   2416661   2418934   2421314   2423795  
  5360.000000   2426448   2429282   2432368   2435701   2439346  
  5350.000000   2443300   2447638   2452356   2457523   2463106  
  5340.000000   2469152   2475606   2482520   2489851   2497669  
  5330.000000   2505928   2514691   2523886   2533560   2543644  
  5320.000000   2554224   2565277   2576947   2589240   2602309  
  5310.000000   2616131   2630811   2646272   2662580   2679648  
  5300.000000   2697554   2716243   2735832   2756306   2777796  
  5290.000000   2800275   2823811   2848285   2873644   2899684  
  5280.000000   2926324   2953419   2981013   3009123   3037903  
  5270.000000   3067403   3097670   3128575   3159924   3191453  
  5260.000000   3222942   3254275   3285449   3316573   3347727  
  5250.000000   3378970   3410175   3441166   3471613   3501305  
  5240.000000   3530009   3557746   3584512   3610517   3635819  
  5230.000000   3660586   3684746   3708308   3731063   3752960  
  5220.000000   3773816   3793686   3812522   3830511   3847686  
  5210.000000   3864240   3880136   3895445   3909997   3923777  
  5200.000000   3936604   3948537   3959514   3969701   3979097  
  5190.000000   3987851   3995903   4003313   4009967   4015912  
  5180.000000   4021076   4025561   4029340   4032524   4035064  
  5170.000000   4037027   4038349   4039106   4039278   4038987  
  5160.000000   4038236   4037128   4035614   4033727   4031379  
  5150.000000   4028594   4025327   4021654   4017584   4013203  
  5140.000000   4008505   4003538   3998275   3992757   3986982  
  5130.000000   3981021   3974894   3968664   3962324   3955891  
  5120.000000   3949330   3942650   3935842   3928948   3921990  
  5110.000000   3915013   3908022   3901030   3894016   3886982  
  5100.000000   3879925   3872870   3865840   3858867   3851961  
  5090.000000   3845127   3838348   3831615   3824909   3818231  
  5080.000000   3811571   3804928   3798285   3791625   3784921  
  5070.000000   3778162   3771338   3764458   3757524   3750547  
  5060.000000   3743518   3736434   3729276   3722046   3714742  
  5050.000000   3707389   3699999   3692593   3685168   3677718  
  5040.000000   3670217   3662655   3655021   3647331   3639608  
  5030.000000   3631884   3624187   3616537   3608942   3601404  
  5020.000000   3593924   3586504   3579157   3571894   3564736  
  5010.000000   3557689   3550772   3543979   3537322   3530787  
  5000.000000   3524386   3518102   3511953   3505926   3500053  
  4990.000000   3494332   3488809   3483492   3478427   3473609  
  4980.000000   3469069   3464781   3460767   3456998   3453508  
  4970.000000   3450283   3447374   3444767   3442509   3440569  
  4960.000000   3438976   3437693   3436753   3436129   3435874  
  4950.000000   3435970   3436465   3437323   3438567   3440139  
  4940.000000   3442049   3444243   3446749   3449533   3452641  
  4930.000000   3456047   3459795   3463851   3468247   3472945  
  4920.000000   3477971   3483286   3488909   3494801   3500973  
  4910.000000   3507391   3514065   3520971   3528123   3535499  
  4900.000000   3543096   3550879   3558822   3566875   3575000  
  4890.000000   3583154   3591298   3599399   3607413   3615306  
  4880.000000   3623021   3630526   3637763   3644713   3651331  
  4870.000000   3657615   3663529   3669082   3674243   3679038  
  4860.000000   3683452   3687527   3691260   3694697   3697828  
  4850.000000   3700684   3703248   3705551   3707587   3709406  
  4840.000000   3711025   3712506   3713871   3715169   3716409  
  4830.000000   3717623   3718813   3720002   3721193   3722398  
  4820.000000   3723610   3724828   3726038   3727239   3728434  
  4810.000000   3729643   3730892   3732210   3733616   3735112  
  4800.000000   3736686   3738310   3739956   3741598   3743225  
  4790.000000   3744836   3746441   3748053   3749688   3751358  
  4780.000000   3753072   3754840   3756664   3758544   3760468  
  4770.000000   3762420   3764369   3766292   3768161   3769965  
  4760.000000   3771692   3773347   3774928   3776437   3777861  
  4750.000000   3779194   3780421   3781543   3782554   3783468  
  4740.000000   3784289   3785028   3785680   3786247   3786719  
  4730.000000   3787100   3787388   3787601   3787752   3787864  
  4720.000000   3787956   3788049   3788159   3788304   3788502  
  4710.000000   3788764   3789099   3789505   3789980   3790512  
  4700.000000   3791096   3791729   3792423   3793189   3794054  
  4690.000000   3795034   3796151   3797405   3798797   3800305  
  4680.000000   3801905   3803548   3805195   3806788   3808293  
  4670.000000   3809677   3810947   3812121   3813259   3814412  
  4660.000000   3815650   3817012   3818532   3820212   3822048  
  4650.000000   3824022   3826124   3828343   3830674   3833107  
  4640.000000   3835628   3838214   3840841   3843486   3846131  
  4630.000000   3848766   3851382   3853976   3856534   3859037  
  4620.000000   3861452   3863747   3865879   3867818   3869526  
  4610.000000   3870990   3872194   3873158   3873898   3874473  
  4600.000000   3874931   3875351   3875774   3876250   3876768  
  4590.000000   3877320   3877842   3878290   3878593   3878719  
  4580.000000   3878626   3878316   3877780   3877040   3876103  
  4570.000000   3874999   3873742   3872369   3870898   3869361  
  4560.000000   3867761   3866115   3864406   3862633   3860777  
  4550.000000   3858841   3856820   3854729   3852578   3850383  
  4540.000000   3848153   3845900   3843632   3841357   3839086  
  4530.000000   3836825   3834586   3832369   3830190   3828046  
  4520.000000   3825969   3823966   3822088   3820344   3818793  
  4510.000000   3817434   3816321   3815442   3814864   3814581  
  4500.000000   3814681   3815168   3816141   3817599   3819633  
  4490.000000   3822230   3825476   3829351   3833938   3839207  
  4480.000000   3845217   3851909   3859311   3867336   3875992  
  4470.000000   3885190   3894945   3905177   3915902   3927041  
  4460.000000   3938596   3950477   3962667   3975079   3987695  
  4450.000000   4000447   4013333   4026315   4039404   4052591  
  4440.000000   4065885   4079284   4092777   4106351   4119959  
  4430.000000   4133573   4147121   4160573   4173849   4186927  
  4420.000000   4199724   4212222   4224328   4236020   4247199  
  4410.000000   4257843   4267861   4277243   4285920   4293909  
  4400.000000   4301174   4307767   4313698   4319060   4323907  
  4390.000000   4328368   4332521   4336499   4340372   4344244  
  4380.000000   4348153   4352162   4356287   4360570   4365026  
  4370.000000   4369690   4374575   4379695   4385042   4390598  
  4360.000000   4396332   4402216   4408210   4414301   4420436  
  4350.000000   4426608   4432732   4438799   4444721   4450526  
  4340.000000   4456166   4461703   4467072   4472214   4476866  
  4330.000000   4480692   4483185   4483871   4482322   4478375  
  4320.000000   4472131   4464042   4454769   4445119   4435821  
  4310.000000   4427476   4420401   4414705   4410274   4406917  
  4300.000000   4404401   4402540   4401207   4400316   4399839  
  4290.000000   4399717   4399945   4400461   4401279   4402366  
  4280.000000   4403753   4405434   4407418   4409690   4412220  
  4270.000000   4414980   4417914   4420964   4424007   4426876  
  4260.000000   4429311   4431016   4431671   4431029   4428957  
  4250.000000   4425513   4420913   4415539   4409817   4404191  
  4240.000000   4398985   4394427   4390566   4387365   4384675  
  4230.000000   4382344   4380202   4378124   4376018   4373824  
  4220.000000   4371541   4369170   4366785   4364439   4362258  
  4210.000000   4360318   4358741   4357574   4356879   4356634  
  4200.000000   4356824   4357370   4358218   4359272   4360489  
  4190.000000   4361799   4363202   4364667   4366238   4367909  
  4180.000000   4369737   4371711   4373876   4376209   4378754  
  4170.000000   4381500   4384511   4387801   4391447   4395460  
  4160.000000   4399900   4404747   4410035   4415725   4421853  
  4150.000000   4428387   4435372   4442776   4450638   4458907  
  4140.000000   4467607   4476680   4486162   4496009   4506276  
  4130.000000   4516932   4528030   4539527   4551461   4563785  
  4120.000000   4576537   4589694   4603313   4617395   4631996  
  4110.000000   4647104   4662741   4678850   4695399   4712292  
  4100.000000   4729463   4746806   4764259   4781753   4799266  
  4090.000000   4816787   4834328   4851909   4869543   4887246  
  4080.000000   4905001   4922812   4940634   4958461   4976220  
  4070.000000   4993885   5011345   5028552   5045383   5061808  
  4060.000000   5077728   5093155   5108015   5122338   5136052  
  4050.000000   5149198   5161717   5173693   5185106   5196074  
  4040.000000   5206570   5216678   5226304   5235467   5244024  
  4030.000000   5251981   5259212   5265748   5271505   5276530  
  4020.000000   5280736   5284192   5286892   5288927   5290262  
  4010.000000   5291034   5291313   5291113   5290212   5288666  
  4000.000000   5286795  
##END= 
