##TITLE= Sample 001 By ssteindl date Donnerstag, November 22 2018
##JCAMP-DX= 4.24
##DATA TYPE= INFRARED SPECTRUM
##ORIGIN= Exported PE Spectrum Data File
##OWNER= Sandra Steindl
##DATE= 18/11/22
##TIME= 10:08:54.00
##SPECTROMETER/DATA SYSTEM= PERKIN-ELMER Frontier FT-IR/NIR IR
##INSTRUMENT PARAMETERS=
  APODIZATION=stark
  DETECTOR=INGAAS
##RESOLUTION= 16.000000
##DELTAX= -2.000000
##XUNITS= 1/CM
##YUNITS= A
##XFACTOR= 1.00
##YFACTOR= 0.00000011920928955078
##FIRSTX= 10000.00
##LASTX= 4000.00
##NPOINTS= 3001
##FIRSTY= 0.233482
##MAXY= 0.595567
##MINY= 0.193517
##XYDATA= (X++(Y..Y))
 10000.000000   1958591   1952351   1946731   1942709   1940779  
  9990.000000   1940713   1942071   1944410   1947463   1950932  
  9980.000000   1954416   1957189   1958377   1957239   1953684  
  9970.000000   1948476   1943147   1939521   1938966   1941849  
  9960.000000   1947297   1953573   1958696   1961240   1960725  
  9950.000000   1957657   1953080   1948004   1942990   1938027  
  9940.000000   1932818   1927114   1921037   1915070   1909846  
  9930.000000   1905828   1903083   1901338   1900164   1899329  
  9920.000000   1898884   1899126   1900290   1902256   1904489  
  9910.000000   1906155   1906581   1905555   1903547   1901477  
  9900.000000   1900301   1900508   1901846   1903452   1904240  
  9890.000000   1903496   1901177   1897979   1894930   1892881  
  9880.000000   1892085   1892056   1891867   1890527   1887516  
  9870.000000   1882878   1877226   1871340   1865886   1861242  
  9860.000000   1857519   1854841   1853435   1853766   1856269  
  9850.000000   1861133   1868040   1876115   1884158   1890904  
  9840.000000   1895446   1897311   1896576   1893569   1888821  
  9830.000000   1882845   1876246   1869751   1864240   1860671  
  9820.000000   1859766   1861819   1866395   1872502   1878728  
  9810.000000   1883772   1886757   1887485   1886401   1884281  
  9800.000000   1881968   1880009   1878621   1877690   1876949  
  9790.000000   1876142   1875136   1873987   1872911   1872240  
  9780.000000   1872300   1873329   1875294   1877860   1880353  
  9770.000000   1881942   1881894   1879898   1876262   1871941  
  9760.000000   1868239   1866396   1867079   1870104   1874465  
  9750.000000   1878681   1881345   1881584   1879287   1875030  
  9740.000000   1869702   1864195   1859092   1854715   1851230  
  9730.000000   1848850   1847868   1848517   1850720   1853894  
  9720.000000   1856945   1858566   1857677   1853886   1847707  
  9710.000000   1840404   1833577   1828552   1826004   1825794  
  9700.000000   1827200   1829292   1831279   1832723   1833470  
  9690.000000   1833523   1832871   1831467   1829335   1826670  
  9680.000000   1823919   1821597   1820116   1819483   1819328  
  9670.000000   1818994   1817937   1815994   1813522   1811269  
  9660.000000   1809968   1810018   1811201   1812839   1814104  
  9650.000000   1814492   1814122   1813697   1814154   1816101  
  9640.000000   1819420   1823163   1825895   1826266   1823600  
  9630.000000   1818199   1811246   1804359   1798992   1795987  
  9620.000000   1795396   1796633   1798815   1801090   1802843  
  9610.000000   1803712   1803505   1802139   1799639   1796248  
  9600.000000   1792493   1789169   1787174   1787181   1789372  
  9590.000000   1793274   1797870   1801952   1804508   1805098  
  9580.000000   1803916   1801642   1799122   1796990   1795523  
  9570.000000   1794560   1793740   1792637   1791015   1788835  
  9560.000000   1786265   1783579   1781057   1778986   1777586  
  9550.000000   1777087   1777638   1779300   1781957   1785305  
  9540.000000   1788914   1792301   1795091   1797030   1798063  
  9530.000000   1798207   1797559   1796186   1794171   1791641  
  9520.000000   1788801   1786020   1783722   1782399   1782381  
  9510.000000   1783831   1786584   1790246   1794194   1797732  
  9500.000000   1800145   1800820   1799356   1795646   1790003  
  9490.000000   1783113   1775977   1769615   1764838   1761984  
  9480.000000   1760864   1760863   1761172   1761118   1760332  
  9470.000000   1758921   1757286   1756001   1755509   1756018  
  9460.000000   1757471   1759601   1762080   1764538   1766647  
  9450.000000   1768046   1768395   1767374   1764836   1760880  
  9440.000000   1755972   1750834   1746292   1742977   1741128  
  9430.000000   1740539   1740663   1740899   1740788   1740259  
  9420.000000   1739583   1739289   1739884   1741628   1744392  
  9410.000000   1747666   1750757   1752960   1753827   1753189  
  9400.000000   1751237   1748373   1745134   1742039   1739493  
  9390.000000   1737736   1736806   1736587   1736849   1737349  
  9380.000000   1737877   1738350   1738763   1739210   1739760  
  9370.000000   1740438   1741181   1741863   1742384   1742686  
  9360.000000   1742821   1742874   1742911   1742881   1742614  
  9350.000000   1741880   1740525   1738579   1736313   1734165  
  9340.000000   1732594   1731915   1732146   1733014   1734030  
  9330.000000   1734730   1734840   1734407   1733738   1733263  
  9320.000000   1733331   1734077   1735347   1736768   1737872  
  9310.000000   1738271   1737787   1736473   1734569   1732397  
  9300.000000   1730251   1728327   1726666   1725179   1723705  
  9290.000000   1722064   1720160   1717995   1715709   1713524  
  9280.000000   1711677   1710343   1709548   1709205   1709140  
  9270.000000   1709223   1709419   1709854   1710723   1712205  
  9260.000000   1714288   1716709   1718983   1720511   1720828  
  9250.000000   1719683   1717200   1713715   1709707   1705566  
  9240.000000   1701538   1697711   1694108   1690841   1688153  
  9230.000000   1686467   1686197   1687629   1690700   1695023  
  9220.000000   1699926   1704639   1708485   1711000   1712062  
  9210.000000   1711771   1710446   1708430   1706093   1703735  
  9200.000000   1701586   1699804   1698444   1697512   1696953  
  9190.000000   1696746   1696881   1697415   1698361   1699680  
  9180.000000   1701145   1702376   1702878   1702233   1700312  
  9170.000000   1697366   1694056   1691187   1689486   1689248  
  9160.000000   1690248   1691746   1692782   1692558   1690745  
  9150.000000   1687629   1683969   1680815   1679129   1679516  
  9140.000000   1682013   1686174   1691241   1696330   1700596  
  9130.000000   1703372   1704270   1703222   1700455   1696479  
  9120.000000   1692022   1687882   1684738   1682938   1682402  
  9110.000000   1682664   1683023   1682827   1681651   1679497  
  9100.000000   1676706   1673854   1671469   1669878   1669131  
  9090.000000   1669029   1669271   1669553   1669692   1669591  
  9080.000000   1669229   1668591   1667682   1666530   1665248  
  9070.000000   1664031   1663147   1662808   1663088   1663853  
  9060.000000   1664813   1665630   1666050   1666013   1665657  
  9050.000000   1665248   1665032   1665112   1665419   1665737  
  9040.000000   1665854   1665629   1665077   1664321   1663515  
  9030.000000   1662763   1662047   1661313   1660532   1659813  
  9020.000000   1659392   1659586   1660640   1662578   1665105  
  9010.000000   1667668   1669604   1670358   1669664   1667641  
  9000.000000   1664773   1661720   1659115   1657380   1656642  
  8990.000000   1656732   1657259   1657779   1657933   1657549  
  8980.000000   1656660   1655474   1654318   1653513   1653285  
  8970.000000   1653667   1654502   1655465   1656201   1656433  
  8960.000000   1656115   1655450   1654847   1654790   1655638  
  8950.000000   1657495   1660116   1663001   1665543   1667240  
  8940.000000   1667843   1667425   1666335   1665034   1663923  
  8930.000000   1663192   1662815   1662555   1662122   1661252  
  8920.000000   1659850   1657992   1655902   1653910   1652347  
  8910.000000   1651541   1651709   1652994   1655403   1658810  
  8900.000000   1662939   1667379   1671654   1675262   1677796  
  8890.000000   1678990   1678812   1677424   1675165   1672473  
  8880.000000   1669831   1667674   1666301   1665864   1666324  
  8870.000000   1667512   1669101   1670731   1672031   1672750  
  8860.000000   1672759   1672119   1671029   1669778   1668664  
  8850.000000   1667901   1667590   1667676   1667995   1668305  
  8840.000000   1668387   1668076   1667324   1666174   1664776  
  8830.000000   1663316   1661990   1660948   1660270   1659982  
  8820.000000   1660060   1660491   1661272   1662456   1664119  
  8810.000000   1666316   1669012   1672024   1675026   1677579  
  8800.000000   1679254   1679711   1678855   1676859   1674184  
  8790.000000   1671440   1669234   1668010   1667938   1668904  
  8780.000000   1670559   1672467   1674229   1675610   1676549  
  8770.000000   1677141   1677523   1677815   1678058   1678231  
  8760.000000   1678317   1678329   1678376   1678597   1679135  
  8750.000000   1680028   1681177   1682350   1683257   1683667  
  8740.000000   1683511   1682923   1682204   1681702   1681697  
  8730.000000   1682295   1683406   1684801   1686203   1687409  
  8720.000000   1688351   1689110   1689839   1690691   1691738  
  8710.000000   1692940   1694189   1695323   1696221   1696785  
  8700.000000   1696984   1696802   1696255   1695388   1694307  
  8690.000000   1693213   1692378   1692124   1692709   1694252  
  8680.000000   1696647   1699588   1702646   1705388   1707519  
  8670.000000   1708926   1709705   1710053   1710187   1710225  
  8660.000000   1710180   1709990   1709631   1709187   1708874  
  8650.000000   1708997   1709816   1711456   1713790   1716485  
  8640.000000   1719055   1721058   1722220   1722530   1722226  
  8630.000000   1721681   1721282   1721271   1721694   1722390  
  8620.000000   1723092   1723537   1723581   1723240   1722688  
  8610.000000   1722179   1721952   1722166   1722848   1723910  
  8600.000000   1725200   1726548   1727851   1729067   1730237  
  8590.000000   1731429   1732714   1734113   1735591   1737058  
  8580.000000   1738420   1739605   1740620   1741529   1742461  
  8570.000000   1743541   1744858   1746424   1748165   1749949  
  8560.000000   1751622   1753071   1754258   1755236   1756118  
  8550.000000   1757046   1758128   1759416   1760884   1762454  
  8540.000000   1764017   1765473   1766755   1767840   1768740  
  8530.000000   1769486   1770098   1770588   1770952   1771194  
  8520.000000   1771336   1771434   1771575   1771863   1772390  
  8510.000000   1773202   1774271   1775495   1776717   1777765  
  8500.000000   1778515   1778922   1779052   1779055   1779134  
  8490.000000   1779472   1780171   1781230   1782548   1783976  
  8480.000000   1785369   1786635   1787763   1788801   1789814  
  8470.000000   1790827   1791799   1792619   1793161   1793329  
  8460.000000   1793132   1792689   1792222   1791983   1792171  
  8450.000000   1792876   1794043   1795516   1797077   1798538  
  8440.000000   1799803   1800883   1801875   1802894   1804026  
  8430.000000   1805278   1806576   1807790   1808785   1809498  
  8420.000000   1809953   1810278   1810642   1811220   1812120  
  8410.000000   1813347   1814775   1816189   1817333   1817982  
  8400.000000   1817988   1817327   1816106   1814559   1812980  
  8390.000000   1811682   1810916   1810840   1811454   1812623  
  8380.000000   1814068   1815463   1816480   1816892   1816609  
  8370.000000   1815718   1814446   1813087   1811904   1811044  
  8360.000000   1810503   1810140   1809740   1809116   1808192  
  8350.000000   1807051   1805894   1804977   1804484   1804462  
  8340.000000   1804769   1805131   1805241   1804864   1803942  
  8330.000000   1802590   1801064   1799645   1798532   1797778  
  8320.000000   1797284   1796873   1796382   1795752   1795058  
  8310.000000   1794472   1794164   1794225   1794591   1795066  
  8300.000000   1795381   1795303   1794731   1793724   1792479  
  8290.000000   1791230   1790164   1789335   1788668   1788001  
  8280.000000   1787182   1786142   1784944   1783750   1782753  
  8270.000000   1782093   1781792   1781760   1781828   1781842  
  8260.000000   1781722   1781500   1781286   1781215   1781362  
  8250.000000   1781711   1782145   1782492   1782594   1782354  
  8240.000000   1781770   1780900   1779826   1778611   1777266  
  8230.000000   1775790   1774187   1772538   1770977   1769692  
  8220.000000   1768830   1768459   1768494   1768734   1768880  
  8210.000000   1768646   1767826   1766368   1764369   1762038  
  8200.000000   1759631   1757376   1755434   1753868   1752652  
  8190.000000   1751690   1750832   1749924   1748821   1747450  
  8180.000000   1745816   1744035   1742291   1740810   1739773  
  8170.000000   1739251   1739158   1739257   1739230   1738779  
  8160.000000   1737732   1736087   1734011   1731758   1729582  
  8150.000000   1727636   1725948   1724422   1722935   1721391  
  8140.000000   1719790   1718218   1716791   1715600   1714645  
  8130.000000   1713860   1713131   1712384   1711624   1710946  
  8120.000000   1710493   1710377   1710604   1711038   1711426  
  8110.000000   1711470   1710932   1709701   1707839   1705535  
  8100.000000   1703057   1700661   1698532   1696756   1695327  
  8090.000000   1694185   1693246   1692443   1691726   1691071  
  8080.000000   1690470   1689929   1689465   1689096   1688841  
  8070.000000   1688686   1688603   1688518   1688361   1688063  
  8060.000000   1687608   1687037   1686445   1685961   1685701  
  8050.000000   1685735   1686058   1686598   1687224   1687799  
  8040.000000   1688190   1688313   1688125   1687635   1686881  
  8030.000000   1685921   1684819   1683631   1682394   1681135  
  8020.000000   1679862   1678584   1677313   1676084   1674939  
  8010.000000   1673933   1673099   1672441   1671919   1671454  
  8000.000000   1670955   1670342   1669582   1668689   1667728  
  7990.000000   1666785   1665948   1665276   1664800   1664514  
  7980.000000   1664392   1664394   1664471   1664571   1664639  
  7970.000000   1664627   1664516   1664313   1664067   1663835  
  7960.000000   1663666   1663556   1663448   1663235   1662807  
  7950.000000   1662106   1661162   1660111   1659158   1658511  
  7940.000000   1658308   1658562   1659151   1659853   1660426  
  7930.000000   1660671   1660504   1659951   1659141   1658240  
  7920.000000   1657414   1656785   1656426   1656361   1656579  
  7910.000000   1657052   1657726   1658542   1659422   1660297  
  7900.000000   1661099   1661785   1662327   1662706   1662897  
  7890.000000   1662858   1662551   1661942   1661052   1659958  
  7880.000000   1658796   1657736   1656924   1656451   1656306  
  7870.000000   1656400   1656585   1656723   1656722   1656574  
  7860.000000   1656342   1656127   1656025   1656076   1656261  
  7850.000000   1656495   1656674   1656702   1656536   1656183  
  7840.000000   1655714   1655218   1654783   1654469   1654287  
  7830.000000   1654213   1654196   1654195   1654191   1654209  
  7820.000000   1654298   1654523   1654922   1655490   1656155  
  7810.000000   1656796   1657268   1657434   1657212   1656587  
  7800.000000   1655616   1654407   1653092   1651803   1650645  
  7790.000000   1649701   1649011   1648589   1648399   1648377  
  7780.000000   1648420   1648424   1648294   1647982   1647493  
  7770.000000   1646874   1646200   1645520   1644851   1644160  
  7760.000000   1643400   1642535   1641587   1640641   1639820  
  7750.000000   1639254   1639010   1639080   1639371   1639748  
  7740.000000   1640083   1640293   1640359   1640295   1640116  
  7730.000000   1639799   1639291   1638525   1637485   1636233  
  7720.000000   1634925   1633763   1632927   1632509   1632463  
  7710.000000   1632641   1632835   1632889   1632742   1632463  
  7700.000000   1632204   1632128   1632324   1632752   1633257  
  7690.000000   1633602   1633574   1633033   1631985   1630552  
  7680.000000   1628950   1627414   1626142   1625270   1624852  
  7670.000000   1624890   1625331   1626096   1627074   1628133  
  7660.000000   1629121   1629887   1630302   1630287   1629836  
  7650.000000   1629007   1627925   1626739   1625605   1624646  
  7640.000000   1623942   1623515   1623341   1623366   1623516  
  7630.000000   1623731   1623966   1624205   1624448   1624703  
  7620.000000   1624977   1625260   1625537   1625780   1625980  
  7610.000000   1626132   1626256   1626371   1626495   1626627  
  7600.000000   1626747   1626825   1626832   1626758   1626621  
  7590.000000   1626462   1626337   1626300   1626386   1626604  
  7580.000000   1626938   1627355   1627812   1628264   1628674  
  7570.000000   1629011   1629263   1629430   1629543   1629639  
  7560.000000   1629772   1629977   1630272   1630642   1631050  
  7550.000000   1631452   1631821   1632167   1632532   1632990  
  7540.000000   1633605   1634418   1635424   1636567   1637761  
  7530.000000   1638901   1639899   1640681   1641216   1641489  
  7520.000000   1641524   1641356   1641058   1640721   1640465  
  7510.000000   1640410   1640658   1641270   1642250   1643546  
  7500.000000   1645059   1646664   1648241   1649692   1650963  
  7490.000000   1652035   1652934   1653707   1654436   1655195  
  7480.000000   1656062   1657082   1658274   1659615   1661058  
  7470.000000   1662535   1663984   1665353   1666619   1667778  
  7460.000000   1668846   1669850   1670834   1671848   1672958  
  7450.000000   1674227   1675709   1677427   1679360   1681434  
  7440.000000   1683541   1685556   1687382   1688960   1690292  
  7430.000000   1691413   1692397   1693321   1694256   1695259  
  7420.000000   1696375   1697641   1699080   1700698   1702471  
  7410.000000   1704351   1706274   1708180   1710033   1711826  
  7400.000000   1713582   1715325   1717067   1718785   1720439  
  7390.000000   1721987   1723424   1724795   1726187   1727712  
  7380.000000   1729451   1731425   1733573   1735778   1737907  
  7370.000000   1739858   1741586   1743106   1744466   1745712  
  7360.000000   1746867   1747921   1748863   1749698   1750479  
  7350.000000   1751296   1752257   1753452   1754901   1756565  
  7340.000000   1758356   1760188   1762007   1763812   1765642  
  7330.000000   1767536   1769498   1771475   1773368   1775070  
  7320.000000   1776513   1777703   1778722   1779708   1780807  
  7310.000000   1782129   1783700   1785467   1787305   1789074  
  7300.000000   1790652   1791971   1793029   1793882   1794628  
  7290.000000   1795373   1796207   1797176   1798282   1799485  
  7280.000000   1800718   1801915   1803029   1804047   1804996  
  7270.000000   1805931   1806912   1807986   1809173   1810462  
  7260.000000   1811828   1813232   1814647   1816049   1817428  
  7250.000000   1818768   1820062   1821300   1822497   1823684  
  7240.000000   1824928   1826295   1827852   1829619   1831582  
  7230.000000   1833675   1835826   1837960   1840055   1842115  
  7220.000000   1844195   1846341   1848605   1850991   1853496  
  7210.000000   1856087   1858750   1861474   1864281   1867186  
  7200.000000   1870214   1873359   1876610   1879929   1883289  
  7190.000000   1886660   1890038   1893414   1896803   1900201  
  7180.000000   1903613   1907026   1910434   1913816   1917164  
  7170.000000   1920457   1923697   1926885   1930062   1933270  
  7160.000000   1936580   1940040   1943691   1947527   1951528  
  7150.000000   1955643   1959843   1964107   1968458   1972921  
  7140.000000   1977536   1982296   1987175   1992094   1996993  
  7130.000000   2001814   2006566   2011287   2016066   2020973  
  7120.000000   2026070   2031356   2036803   2042345   2047935  
  7110.000000   2053527   2059114   2064691   2070270   2075843  
  7100.000000   2081419   2086994   2092598   2098261   2104033  
  7090.000000   2109942   2115998   2122174   2128427   2134706  
  7080.000000   2140975   2147217   2153432   2159620   2165769  
  7070.000000   2171841   2177792   2183576   2189182   2194624  
  7060.000000   2199958   2205250   2210562   2215935   2221385  
  7050.000000   2226912   2232505   2238165   2243887   2249673  
  7040.000000   2255505   2261356   2267180   2272938   2278596  
  7030.000000   2284147   2289591   2294944   2300209   2305383  
  7020.000000   2310450   2315404   2320241   2324984   2329653  
  7010.000000   2334278   2338863   2343405   2347876   2352259  
  7000.000000   2356538   2360733   2364862   2368961   2373037  
  6990.000000   2377095   2381106   2385054   2388914   2392688  
  6980.000000   2396378   2399999   2403541   2406991   2410314  
  6970.000000   2413490   2416501   2419364   2422106   2424775  
  6960.000000   2427404   2430025   2432642   2435263   2437873  
  6950.000000   2440474   2443044   2445573   2448025   2450375  
  6940.000000   2452593   2454678   2456636   2458503   2460300  
  6930.000000   2462046   2463726   2465316   2466777   2468099  
  6920.000000   2469294   2470414   2471517   2472665   2473880  
  6910.000000   2475156   2476453   2477727   2478936   2480068  
  6900.000000   2481125   2482127   2483089   2484026   2484940  
  6890.000000   2485844   2486754   2487699   2488700   2489768  
  6880.000000   2490885   2492011   2493094   2494089   2494973  
  6870.000000   2495750   2496451   2497115   2497779   2498466  
  6860.000000   2499189   2499953   2500759   2501605   2502478  
  6850.000000   2503352   2504183   2504926   2505545   2506036  
  6840.000000   2506426   2506776   2507149   2507596   2508133  
  6830.000000   2508752   2509416   2510101   2510786   2511476  
  6820.000000   2512172   2512867   2513523   2514087   2514494  
  6810.000000   2514711   2514735   2514614   2514414   2514210  
  6800.000000   2514046   2513941   2513875   2513828   2513778  
  6790.000000   2513724   2513670   2513618   2513552   2513442  
  6780.000000   2513250   2512953   2512554   2512088   2511613  
  6770.000000   2511181   2510828   2510558   2510355   2510194  
  6760.000000   2510057   2509945   2509869   2509839   2509856  
  6750.000000   2509910   2509983   2510067   2510166   2510290  
  6740.000000   2510450   2510633   2510801   2510899   2510880  
  6730.000000   2510728   2510476   2510205   2510009   2509963  
  6720.000000   2510089   2510353   2510673   2510965   2511170  
  6710.000000   2511278   2511316   2511330   2511348   2511368  
  6700.000000   2511355   2511267   2511077   2510794   2510451  
  6690.000000   2510097   2509761   2509444   2509111   2508724  
  6680.000000   2508247   2507686   2507066   2506438   2505830  
  6670.000000   2505251   2504665   2504027   2503289   2502436  
  6660.000000   2501485   2500482   2499478   2498517   2497615  
  6650.000000   2496772   2495974   2495207   2494456   2493705  
  6640.000000   2492922   2492068   2491093   2489969   2488693  
  6630.000000   2487311   2485901   2484561   2483365   2482346  
  6620.000000   2481476   2480683   2479866   2478936   2477830  
  6610.000000   2476539   2475091   2473550   2471981   2470444  
  6600.000000   2468974   2467583   2466252   2464947   2463627  
  6590.000000   2462258   2460822   2459328   2457801   2456286  
  6580.000000   2454814   2453410   2452070   2450777   2449507  
  6570.000000   2448247   2446993   2445758   2444549   2443359  
  6560.000000   2442162   2440912   2439568   2438106   2436540  
  6550.000000   2434915   2433290   2431720   2430230   2428809  
  6540.000000   2427427   2426048   2424659   2423273   2421927  
  6530.000000   2420657   2419483   2418391   2417341   2416281  
  6520.000000   2415175   2414009   2412800   2411580   2410376  
  6510.000000   2409199   2408040   2406877   2405693   2404479  
  6500.000000   2403245   2402003   2400758   2399504   2398218  
  6490.000000   2396882   2395491   2394067   2392654   2391305  
  6480.000000   2390058   2388919   2387854   2386803   2385697  
  6470.000000   2384484   2383148   2381708   2380215   2378730  
  6460.000000   2377310   2375988   2374781   2373676   2372650  
  6450.000000   2371668   2370698   2369713   2368700   2367665  
  6440.000000   2366634   2365640   2364726   2363915   2363215  
  6430.000000   2362604   2362047   2361494   2360911   2360272  
  6420.000000   2359581   2358850   2358106   2357369   2356661  
  6410.000000   2355992   2355373   2354806   2354300   2353854  
  6400.000000   2353469   2353144   2352877   2352670   2352531  
  6390.000000   2352464   2352468   2352529   2352614   2352680  
  6380.000000   2352679   2352574   2352347   2352004   2351575  
  6370.000000   2351100   2350619   2350166   2349764   2349423  
  6360.000000   2349142   2348915   2348718   2348529   2348309  
  6350.000000   2348031   2347672   2347231   2346723   2346178  
  6340.000000   2345625   2345083   2344550   2344006   2343424  
  6330.000000   2342779   2342058   2341266   2340414   2339522  
  6320.000000   2338601   2337665   2336723   2335799   2334919  
  6310.000000   2334116   2333409   2332793   2332228   2331654  
  6300.000000   2330996   2330200   2329243   2328145   2326958  
  6290.000000   2325748   2324567   2323451   2322398   2321398  
  6280.000000   2320424   2319459   2318484   2317490   2316454  
  6270.000000   2315357   2314170   2312879   2311480   2310000  
  6260.000000   2308477   2306955   2305469   2304031   2302628  
  6250.000000   2301238   2299831   2298395   2296929   2295455  
  6240.000000   2293995   2292576   2291210   2289904   2288655  
  6230.000000   2287454   2286291   2285153   2284024   2282884  
  6220.000000   2281713   2280492   2279207   2277859   2276459  
  6210.000000   2275029   2273603   2272216   2270902   2269686  
  6200.000000   2268582   2267581   2266659   2265772   2264874  
  6190.000000   2263923   2262900   2261810   2260684   2259564  
  6180.000000   2258487   2257473   2256521   2255609   2254715  
  6170.000000   2253824   2252940   2252086   2251290   2250569  
  6160.000000   2249921   2249323   2248734   2248110   2247425  
  6150.000000   2246668   2245849   2244990   2244117   2243246  
  6140.000000   2242391   2241556   2240743   2239951   2239174  
  6130.000000   2238403   2237626   2236830   2236019   2235209  
  6120.000000   2234441   2233759   2233208   2232803   2232532  
  6110.000000   2232346   2232185   2231990   2231731   2231411  
  6100.000000   2231074   2230774   2230567   2230480   2230516  
  6090.000000   2230640   2230812   2230987   2231141   2231265  
  6080.000000   2231379   2231504   2231673   2231899   2232194  
  6070.000000   2232545   2232939   2233348   2233759   2234160  
  6060.000000   2234567   2235000   2235506   2236119   2236882  
  6050.000000   2237802   2238881   2240086   2241390   2242756  
  6040.000000   2244174   2245634   2247158   2248757   2250457  
  6030.000000   2252255   2254157   2256140   2258192   2260285  
  6020.000000   2262405   2264530   2266652   2268760   2270863  
  6010.000000   2272966   2275096   2277272   2279520   2281849  
  6000.000000   2284262   2286742   2289277   2291842   2294432  
  5990.000000   2297039   2299677   2302350   2305076   2307860  
  5980.000000   2310716   2313647   2316669   2319784   2323008  
  5970.000000   2326332   2329756   2333254   2336811   2340394  
  5960.000000   2343991   2347580   2351163   2354732   2358302  
  5950.000000   2361882   2365500   2369182   2372963   2376872  
  5940.000000   2380925   2385123   2389445   2393858   2398314  
  5930.000000   2402770   2407178   2411501   2415697   2419733  
  5920.000000   2423574   2427198   2430597   2433787   2436800  
  5910.000000   2439685   2442484   2445233   2447942   2450617  
  5900.000000   2453245   2455834   2458392   2460954   2463542  
  5890.000000   2466186   2468882   2471621   2474364   2477084  
  5880.000000   2479744   2482329   2484820   2487201   2489448  
  5870.000000   2491534   2493434   2495140   2496667   2498055  
  5860.000000   2499362   2500649   2501967   2503351   2504821  
  5850.000000   2506393   2508075   2509881   2511820   2513890  
  5840.000000   2516075   2518339   2520644   2522948   2525232  
  5830.000000   2527485   2529718   2531936   2534143   2536326  
  5820.000000   2538474   2540571   2542626   2544658   2546704  
  5810.000000   2548804   2550981   2553246   2555582   2557979  
  5800.000000   2560409   2562880   2565381   2567928   2570495  
  5790.000000   2573064   2575558   2577916   2580031   2581829  
  5780.000000   2583212   2584120   2584483   2584279   2583495  
  5770.000000   2582184   2580421   2578341   2576074   2573771  
  5760.000000   2571527   2569424   2567474   2565691   2564047  
  5750.000000   2562542   2561155   2559887   2558716   2557625  
  5740.000000   2556579   2555548   2554513   2553463   2552402  
  5730.000000   2551334   2550265   2549186   2548087   2546956  
  5720.000000   2545793   2544606   2543415   2542239   2541092  
  5710.000000   2539975   2538882   2537806   2536750   2535722  
  5700.000000   2534737   2533806   2532927   2532090   2531271  
  5690.000000   2530457   2529637   2528829   2528046   2527311  
  5680.000000   2526620   2525960   2525287   2524556   2523716  
  5670.000000   2522731   2521571   2520218   2518653   2516870  
  5660.000000   2514861   2512647   2510265   2507779   2505261  
  5650.000000   2502783   2500389   2498102   2495915   2493808  
  5640.000000   2491759   2489758   2487808   2485918   2484103  
  5630.000000   2482369   2480724   2479164   2477693   2476307  
  5620.000000   2475007   2473775   2472595   2471430   2470255  
  5610.000000   2469047   2467813   2466572   2465368   2464234  
  5600.000000   2463206   2462292   2461491   2460787   2460162  
  5590.000000   2459598   2459076   2458573   2458064   2457522  
  5580.000000   2456927   2456275   2455579   2454868   2454172  
  5570.000000   2453506   2452863   2452213   2451513   2450724  
  5560.000000   2449827   2448833   2447770   2446682   2445601  
  5550.000000   2444549   2443528   2442532   2441556   2440600  
  5540.000000   2439670   2438771   2437897   2437037   2436172  
  5530.000000   2435287   2434380   2433460   2432546   2431655  
  5520.000000   2430791   2429947   2429105   2428247   2427364  
  5510.000000   2426458   2425536   2424607   2423664   2422696  
  5500.000000   2421683   2420620   2419511   2418383   2417262  
  5490.000000   2416170   2415102   2414033   2412918   2411724  
  5480.000000   2410431   2409053   2407621   2406178   2404750  
  5470.000000   2403348   2401956   2400554   2399121   2397659  
  5460.000000   2396176   2394688   2393201   2391709   2390190  
  5450.000000   2388623   2386998   2385320   2383616   2381917  
  5440.000000   2380252   2378638   2377082   2375584   2374150  
  5430.000000   2372783   2371492   2370265   2369088   2367924  
  5420.000000   2366753   2365563   2364387   2363274   2362301  
  5410.000000   2361510   2360925   2360509   2360214   2359972  
  5400.000000   2359758   2359564   2359433   2359403   2359523  
  5390.000000   2359795   2360219   2360756   2361398   2362132  
  5380.000000   2362991   2363991   2365170   2366516   2368031  
  5370.000000   2369668   2371427   2373275   2375245   2377330  
  5360.000000   2379580   2381984   2384587   2387377   2390422  
  5350.000000   2393736   2397413   2401473   2405994   2410948  
  5340.000000   2416370   2422198   2428468   2435126   2442225  
  5330.000000   2449713   2457631   2465902   2474558   2483535  
  5320.000000   2492918   2502704   2513044   2523967   2535622  
  5310.000000   2547988   2561149   2575018   2589638   2604920  
  5300.000000   2620929   2637619   2655100   2673361   2692522  
  5290.000000   2712550   2733505   2755274   2777812   2800937  
  5280.000000   2824580   2848613   2873073   2897973   2923452  
  5270.000000   2949559   2976345   3003704   3031472   3059409  
  5260.000000   3087306   3115033   3142558   3169948   3197258  
  5250.000000   3224538   3251691   3278592   3304987   3330727  
  5240.000000   3355638   3379758   3403099   3425842   3448036  
  5230.000000   3469815   3491104   3511891   3531986   3551336  
  5220.000000   3569785   3587387   3604115   3620135   3635488  
  5210.000000   3650339   3664655   3678482   3691664   3704170  
  5200.000000   3715837   3726707   3736738   3746085   3754774  
  5190.000000   3762956   3770602   3777771   3784360   3790393  
  5180.000000   3795777   3800581   3804763   3808413   3811490  
  5170.000000   3814056   3816048   3817524   3818444   3818895  
  5160.000000   3818866   3818443   3817596   3816370   3814706  
  5150.000000   3812641   3810140   3807270   3804037   3800518  
  5140.000000   3796713   3792674   3788376   3783857   3779101  
  5130.000000   3774160   3769040   3763795   3758431   3752982  
  5120.000000   3747441   3741835   3736163   3730459   3724732  
  5110.000000   3719003   3713266   3707518   3701739   3695924  
  5100.000000   3690070   3684199   3678334   3672509   3666744  
  5090.000000   3661054   3655437   3649889   3644397   3638954  
  5080.000000   3633546   3628168   3622800   3617433   3612042  
  5070.000000   3606618   3601143   3595615   3590024   3584371  
  5060.000000   3578644   3572842   3566953   3560981   3554923  
  5050.000000   3548794   3542597   3536349   3530050   3523710  
  5040.000000   3517324   3510902   3504448   3497979   3491507  
  5030.000000   3485049   3478616   3472213   3465842   3459500  
  5020.000000   3453188   3446901   3440647   3434427   3428258  
  5010.000000   3422147   3416122   3410197   3404404   3398755  
  5000.000000   3393275   3387957   3382811   3377809   3372956  
  4990.000000   3368226   3363641   3359192   3354924   3350839  
  4980.000000   3346985   3343356   3339987   3336859   3334003  
  4970.000000   3331399   3329088   3327056   3325348   3323943  
  4960.000000   3322874   3322103   3321650   3321470   3321589  
  4950.000000   3321972   3322664   3323640   3324952   3326577  
  4940.000000   3328561   3330870   3333544   3336547   3339918  
  4930.000000   3343624   3347707   3352137   3356956   3362130  
  4920.000000   3367697   3373618   3379917   3386551   3393536  
  4910.000000   3400826   3408431   3416314   3424479   3432891  
  4900.000000   3441545   3450407   3459453   3468648   3477950  
  4890.000000   3487317   3496685   3505997   3515163   3524124  
  4880.000000   3532783   3541100   3548995   3556458   3563424  
  4870.000000   3569896   3575804   3581149   3585859   3589951  
  4860.000000   3593382   3596209   3598426   3600121   3601301  
  4850.000000   3602051   3602372   3602335   3601944   3601270  
  4840.000000   3600336   3599225   3597971   3596654   3595304  
  4830.000000   3593974   3592675   3591431   3590238   3589102  
  4820.000000   3588022   3587007   3586073   3585238   3584531  
  4810.000000   3583968   3583567   3583320   3583222   3583244  
  4800.000000   3583370   3583572   3583853   3584207   3584658  
  4790.000000   3585211   3585890   3586689   3587611   3588636  
  4780.000000   3589755   3590944   3592196   3593490   3594819  
  4770.000000   3596166   3597520   3598867   3600200   3601512  
  4760.000000   3602809   3604090   3605361   3606621   3607868  
  4750.000000   3609095   3610299   3611476   3612627   3613758  
  4740.000000   3614874   3615988   3617106   3618238   3619390  
  4730.000000   3620564   3621761   3622973   3624190   3625390  
  4720.000000   3626563   3627693   3628789   3629860   3630946  
  4710.000000   3632077   3633307   3634659   3636168   3637835  
  4700.000000   3639674   3641678   3643860   3646224   3648795  
  4690.000000   3651583   3654604   3657847   3661302   3664921  
  4680.000000   3668665   3672467   3676283   3680049   3683742  
  4670.000000   3687326   3690810   3694196   3697530   3700846  
  4660.000000   3704210   3707672   3711293   3715107   3719146  
  4650.000000   3723413   3727900   3732581   3737424   3742392  
  4640.000000   3747447   3752558   3757689   3762819   3767910  
  4630.000000   3772940   3777869   3782670   3787302   3791741  
  4620.000000   3795940   3799877   3803503   3806800   3809726  
  4610.000000   3812286   3814469   3816322   3817871   3819199  
  4600.000000   3820344   3821387   3822345   3823270   3824147  
  4590.000000   3824994   3825766   3826453   3826986   3827333  
  4580.000000   3827418   3827209   3826655   3825763   3824534  
  4570.000000   3823024   3821280   3819377   3817366   3815305  
  4560.000000   3813217   3811136   3809060   3807004   3804955  
  4550.000000   3802917   3800871   3798817   3796738   3794639  
  4540.000000   3792518   3790387   3788256   3786131   3784013  
  4530.000000   3781891   3779752   3777573   3775354   3773086  
  4520.000000   3770799   3768505   3766256   3764067   3761989  
  4510.000000   3760026   3758233   3756613   3755244   3754147  
  4500.000000   3753425   3753104   3753284   3753967   3755231  
  4490.000000   3757048   3759481   3762493   3766154   3770432  
  4480.000000   3775404   3781033   3787387   3794412   3802155  
  4470.000000   3810544   3819604   3829248   3839484   3850211  
  4460.000000   3861426   3873028   3885011   3897289   3909862  
  4450.000000   3922669   3935719   3948976   3962452   3976126  
  4440.000000   3990000   4004048   4018245   4032553   4046917  
  4430.000000   4061289   4075594   4089789   4103790   4117561  
  4420.000000   4131015   4144126   4156812   4169061   4180798  
  4410.000000   4192020   4202650   4212682   4222038   4230717  
  4400.000000   4238667   4245933   4252523   4258547   4264073  
  4390.000000   4269250   4274163   4278950   4283670   4288416  
  4380.000000   4293203   4298072   4303000   4307995   4313018  
  4370.000000   4318069   4323122   4328185   4333247   4338322  
  4360.000000   4343399   4348489   4353562   4358630   4363637  
  4350.000000   4368599   4373443   4378201   4382804   4387317  
  4340.000000   4391696   4396004   4400152   4404065   4407457  
  4330.000000   4409992   4411166   4410518   4407635   4402354  
  4320.000000   4394776   4385336   4374690   4363640   4352935  
  4310.000000   4343193   4334767   4327793   4322182   4317752  
  4300.000000   4314274   4311557   4309477   4307946   4306942  
  4290.000000   4306409   4306345   4306675   4307393   4308429  
  4280.000000   4309781   4311397   4313256   4315315   4317531  
  4270.000000   4319874   4322295   4324749   4327132   4329297  
  4260.000000   4331007   4331990   4331944   4330641   4327952  
  4250.000000   4323930   4318769   4312822   4306475   4300140  
  4240.000000   4294119   4288639   4283763   4279489   4275709  
  4230.000000   4272308   4269149   4266123   4263143   4260144  
  4220.000000   4257115   4254047   4251003   4248030   4245242  
  4210.000000   4242704   4240520   4238720   4237351   4236386  
  4200.000000   4235817   4235583   4235657   4235975   4236519  
  4190.000000   4237230   4238103   4239084   4240177   4241335  
  4180.000000   4242573   4243859   4245226   4246667   4248238  
  4170.000000   4249955   4251893   4254073   4256565   4259371  
  4160.000000   4262537   4266039   4269901   4274088   4278627  
  4150.000000   4283482   4288691   4294222   4300117   4306346  
  4140.000000   4312961   4319934   4327325   4335105   4343326  
  4130.000000   4351944   4360994   4370425   4380276   4390516  
  4120.000000   4401213   4412367   4424057   4436282   4449093  
  4110.000000   4462453   4476367   4490764   4505614   4520829  
  4100.000000   4536361   4552121   4568059   4584109   4600239  
  4090.000000   4616423   4632652   4648923   4665219   4681535  
  4080.000000   4697823   4714067   4730196   4746190   4761961  
  4070.000000   4777478   4792627   4807366   4821572   4835222  
  4060.000000   4848223   4860603   4872305   4883392   4893825  
  4050.000000   4903685   4912946   4921712   4929968   4937820  
  4040.000000   4945229   4952260   4958825   4964951   4970535  
  4030.000000   4975611   4980100   4984051   4987408   4990212  
  4020.000000   4992398   4994028   4995120   4995771   4995979  
  4010.000000   4995869   4995499   4994850   4993691   4992018  
  4000.000000   4990079  
##END= 
