##TITLE= Sample 037 By ssteindl date Donnerstag, November 22 2018
##JCAMP-DX= 4.24
##DATA TYPE= INFRARED SPECTRUM
##ORIGIN= Exported PE Spectrum Data File
##OWNER= Sandra Steindl
##DATE= 18/11/22
##TIME= 11:27:19.00
##SPECTROMETER/DATA SYSTEM= PERKIN-ELMER Frontier FT-IR/NIR IR
##INSTRUMENT PARAMETERS=
  APODIZATION=stark
  DETECTOR=INGAAS
##RESOLUTION= 16.000000
##DELTAX= -2.000000
##XUNITS= 1/CM
##YUNITS= A
##XFACTOR= 1.00
##YFACTOR= 0.00000011920928955078
##FIRSTX= 10000.00
##LASTX= 4000.00
##NPOINTS= 3001
##FIRSTY= 0.307150
##MAXY= 0.651708
##MINY= 0.231358
##XYDATA= (X++(Y..Y))
 10000.000000   2576561   2579877   2582023   2581669   2578989  
  9990.000000   2575216   2571281   2567467   2563835   2560184  
  9980.000000   2555859   2550022   2542208   2532597   2521976  
  9970.000000   2511650   2503111   2497636   2495840   2497578  
  9960.000000   2501981   2507784   2513712   2518778   2522473  
  9950.000000   2524711   2525743   2525933   2525693   2525340  
  9940.000000   2525133   2525186   2525507   2525939   2526212  
  9930.000000   2526000   2525025   2523202   2520652   2517735  
  9920.000000   2514838   2512255   2509966   2507677   2504956  
  9910.000000   2501501   2497401   2493151   2489557   2487343  
  9900.000000   2486865   2487867   2489550   2490876   2490958  
  9890.000000   2489474   2486766   2483777   2481674   2481445  
  9880.000000   2483573   2487882   2493633   2499667   2504724  
  9870.000000   2507599   2507476   2503992   2497469   2488804  
  9860.000000   2479417   2470920   2464743   2461787   2462099  
  9850.000000   2464979   2469178   2473477   2477070   2479897  
  9840.000000   2482487   2485598   2489657   2494374   2498746  
  9830.000000   2501356   2501063   2497446   2491177   2483763  
  9820.000000   2477070   2472627   2471085   2472106   2474571  
  9810.000000   2477130   2478711   2478856   2477731   2475910  
  9800.000000   2473982   2472367   2471177   2470426   2470163  
  9790.000000   2470616   2472137   2474975   2479048   2483801  
  9780.000000   2488260   2491308   2492028   2490015   2485535  
  9770.000000   2479408   2472782   2466745   2462051   2458988  
  9760.000000   2457351   2456683   2456388   2456046   2455418  
  9750.000000   2454584   2453746   2453188   2453053   2453275  
  9740.000000   2453583   2453512   2452647   2450652   2447475  
  9730.000000   2443280   2438421   2433322   2428348   2423818  
  9720.000000   2419968   2417061   2415358   2415096   2416362  
  9710.000000   2418917   2422168   2425151   2426854   2426418  
  9700.000000   2423559   2418577   2412400   2406220   2401191  
  9690.000000   2398120   2397295   2398618   2401690   2406123  
  9680.000000   2411529   2417597   2423932   2429989   2435096  
  9670.000000   2438502   2439675   2438321   2434610   2428955  
  9660.000000   2422028   2414500   2407061   2400378   2395103  
  9650.000000   2391938   2391388   2393766   2398787   2405735  
  9640.000000   2413363   2420393   2425762   2429019   2430381  
  9630.000000   2430503   2430159   2429711   2429018   2427366  
  9620.000000   2423949   2418204   2410234   2400834   2391280  
  9610.000000   2382947   2376828   2373350   2372290   2373019  
  9600.000000   2374793   2377010   2379359   2381715   2384003  
  9590.000000   2386062   2387624   2388512   2388760   2388797  
  9580.000000   2389326   2391125   2394715   2400084   2406611  
  9570.000000   2413130   2418252   2420666   2419506   2414496  
  9560.000000   2406014   2394951   2382557   2370248   2359429  
  9550.000000   2351322   2346750   2346006   2348687   2353814  
  9540.000000   2359929   2365542   2369425   2371000   2370457  
  9530.000000   2368630   2366762   2365959   2366906   2369515  
  9520.000000   2373045   2376333   2378253   2378163   2376080  
  9510.000000   2372746   2369239   2366671   2365702   2366364  
  9500.000000   2368027   2369592   2369908   2368062   2363719  
  9490.000000   2357128   2349056   2340558   2332695   2326387  
  9480.000000   2322233   2320538   2321260   2324101   2328501  
  9470.000000   2333753   2339062   2343692   2347086   2348940  
  9460.000000   2349264   2348265   2346309   2343713   2340755  
  9450.000000   2337592   2334367   2331241   2328444   2326259  
  9440.000000   2324903   2324448   2324683   2325185   2325369  
  9430.000000   2324735   2322999   2320224   2316801   2313322  
  9420.000000   2310436   2308628   2308153   2308920   2310592  
  9410.000000   2312614   2314377   2315334   2315127   2313703  
  9400.000000   2311306   2308487   2305944   2304387   2304341  
  9390.000000   2305956   2308972   2312703   2316276   2318791  
  9380.000000   2319589   2318351   2315161   2310473   2305021  
  9370.000000   2299705   2295425   2292950   2292742   2294899  
  9360.000000   2299045   2304429   2309993   2314676   2317642  
  9350.000000   2318519   2317469   2315032   2311959   2308876  
  9340.000000   2306182   2303913   2301859   2299722   2297309  
  9330.000000   2294726   2292308   2290571   2289905   2290513  
  9320.000000   2292253   2294726   2297339   2299441   2300493  
  9310.000000   2300127   2298284   2295146   2291164   2286921  
  9300.000000   2283055   2280091   2278319   2277724   2278016  
  9290.000000   2278770   2279569   2280183   2280564   2280866  
  9280.000000   2281261   2281846   2282532   2283083   2283243  
  9270.000000   2282862   2281997   2280872   2279761   2278813  
  9260.000000   2277959   2276927   2275396   2273156   2270258  
  9250.000000   2266997   2263802   2261045   2258864   2257148  
  9240.000000   2255611   2254002   2252284   2250711   2249734  
  9230.000000   2249785   2250996   2253126   2255539   2257488  
  9220.000000   2258327   2257825   2256230   2254149   2252300  
  9210.000000   2251139   2250737   2250675   2250255   2248655  
  9200.000000   2245249   2239820   2232699   2224680   2216836  
  9190.000000   2210318   2206118   2204842   2206522   2210586  
  9180.000000   2216018   2221570   2226093   2228779   2229394  
  9170.000000   2228307   2226368   2224565   2223725   2224286  
  9160.000000   2226286   2229384   2233013   2236569   2239546  
  9150.000000   2241633   2242636   2242505   2241253   2239014  
  9140.000000   2235992   2232464   2228730   2225036   2221566  
  9130.000000   2218379   2215474   2212846   2210535   2208651  
  9120.000000   2207271   2206424   2206004   2205839   2205757  
  9110.000000   2205701   2205816   2206389   2207745   2210025  
  9100.000000   2213065   2216349   2219164   2220846   2221058  
  9090.000000   2219925   2218017   2216112   2214911   2214731  
  9080.000000   2215403   2216358   2216883   2216409   2214715  
  9070.000000   2212025   2208879   2205957   2203795   2202707  
  9060.000000   2202703   2203603   2205084   2206806   2208440  
  9050.000000   2209709   2210372   2210275   2209368   2207746  
  9040.000000   2205637   2203334   2201143   2199232   2197622  
  9030.000000   2196144   2194550   2192620   2190241   2187496  
  9020.000000   2184584   2181824   2179521   2177936   2177227  
  9010.000000   2177418   2178412   2179950   2181683   2183144  
  9000.000000   2183886   2183531   2181932   2179219   2175825  
  8990.000000   2172400   2169669   2168250   2168498   2170412  
  8980.000000   2173644   2177586   2181513   2184732   2186712  
  8970.000000   2187180   2186152   2183906   2180920   2177755  
  8960.000000   2174969   2172971   2171971   2171953   2172702  
  8950.000000   2173897   2175140   2176120   2176603   2176524  
  8940.000000   2175916   2174919   2173745   2172613   2171713  
  8930.000000   2171114   2170754   2170414   2169790   2168598  
  8920.000000   2166694   2164173   2161365   2158772   2156886  
  8910.000000   2156017   2156131   2156873   2157680   2157991  
  8900.000000   2157466   2156087   2154182   2152231   2150695  
  8890.000000   2149782   2149422   2149283   2148969   2148174  
  8880.000000   2146843   2145177   2143567   2142443   2142133  
  8870.000000   2142769   2144275   2146405   2148848   2151264  
  8860.000000   2153377   2154958   2155884   2156127   2155790  
  8850.000000   2155085   2154294   2153715   2153579   2154006  
  8840.000000   2154968   2156334   2157900   2159479   2160893  
  8830.000000   2162005   2162674   2162760   2162148   2160783  
  8820.000000   2158743   2156236   2153616   2151256   2149458  
  8810.000000   2148351   2147852   2147744   2147760   2147746  
  8800.000000   2147701   2147809   2148317   2149432   2151197  
  8790.000000   2153449   2155864   2158032   2159595   2160321  
  8780.000000   2160174   2159259   2157798   2156033   2154202  
  8770.000000   2152497   2151050   2149923   2149104   2148523  
  8760.000000   2148057   2147589   2147038   2146419   2145835  
  8750.000000   2145456   2145434   2145834   2146597   2147536  
  8740.000000   2148416   2149024   2149272   2149209   2149020  
  8730.000000   2148918   2149085   2149564   2150282   2151047  
  8720.000000   2151660   2151951   2151856   2151410   2150742  
  8710.000000   2150035   2149489   2149293   2149593   2150472  
  8700.000000   2151928   2153855   2156055   2158256   2160166  
  8690.000000   2161559   2162305   2162434   2162070   2161456  
  8680.000000   2160847   2160495   2160576   2161169   2162253  
  8670.000000   2163673   2165167   2166351   2166795   2166089  
  8660.000000   2163976   2160464   2155904   2150964   2146499  
  8650.000000   2143357   2142154   2143127   2146033   2150241  
  8640.000000   2154876   2159088   2162248   2164075   2164651  
  8630.000000   2164308   2163524   2162712   2162161   2161929  
  8620.000000   2161938   2161997   2161928   2161613   2161038  
  8610.000000   2160308   2159595   2159127   2159092   2159611  
  8600.000000   2160669   2162118   2163705   2165136   2166175  
  8590.000000   2166713   2166827   2166746   2166788   2167231  
  8580.000000   2168218   2169679   2171368   2172922   2174018  
  8570.000000   2174465   2174289   2173712   2173078   2172728  
  8560.000000   2172877   2173574   2174698   2176050   2177424  
  8550.000000   2178718   2179951   2181239   2182701   2184386  
  8540.000000   2186208   2187951   2189304   2189972   2189778  
  8530.000000   2188732   2187050   2185108   2183342   2182134  
  8520.000000   2181683   2181974   2182773   2183713   2184398  
  8510.000000   2184534   2184015   2182951   2181618   2180367  
  8500.000000   2179514   2179247   2179594   2180424   2181542  
  8490.000000   2182731   2183844   2184793   2185559   2186145  
  8480.000000   2186559   2186807   2186916   2186951   2187040  
  8470.000000   2187337   2187981   2189027   2190405   2191934  
  8460.000000   2193369   2194499   2195212   2195544   2195652  
  8450.000000   2195747   2195992   2196430   2196970   2197425  
  8440.000000   2197601   2197378   2196759   2195886   2194973  
  8430.000000   2194262   2193916   2194029   2194583   2195501  
  8420.000000   2196639   2197836   2198919   2199720   2200097  
  8410.000000   2199956   2199296   2198212   2196886   2195522  
  8400.000000   2194286   2193257   2192415   2191682   2190964  
  8390.000000   2190241   2189568   2189084   2188912   2189105  
  8380.000000   2189575   2190107   2190430   2190299   2189603  
  8370.000000   2188391   2186870   2185317   2183972   2182975  
  8360.000000   2182338   2181984   2181811   2181738   2181739  
  8350.000000   2181815   2181957   2182088   2182056   2181668  
  8340.000000   2180774   2179341   2177507   2175555   2173851  
  8330.000000   2172738   2172424   2172927   2174050   2175472  
  8320.000000   2176829   2177829   2178303   2178232   2177714  
  8310.000000   2176907   2175965   2174989   2174022   2173061  
  8300.000000   2172097   2171134   2170201   2169343   2168589  
  8290.000000   2167941   2167352   2166745   2166030   2165147  
  8280.000000   2164082   2162890   2161669   2160543   2159614  
  8270.000000   2158950   2158570   2158447   2158519   2158686  
  8260.000000   2158823   2158780   2158407   2157563   2156165  
  8250.000000   2154213   2151830   2149240   2146736   2144603  
  8240.000000   2143044   2142137   2141810   2141896   2142168  
  8230.000000   2142437   2142574   2142531   2142313   2141929  
  8220.000000   2141371   2140598   2139570   2138275   2136763  
  8210.000000   2135146   2133566   2132169   2131029   2130168  
  8200.000000   2129521   2129005   2128525   2128018   2127430  
  8190.000000   2126713   2125792   2124574   2122972   2120947  
  8180.000000   2118560   2115963   2113382   2111045   2109104  
  8170.000000   2107589   2106389   2105314   2104174   2102868  
  8160.000000   2101428   2099994   2098751   2097827   2097232  
  8150.000000   2096826   2096373   2095624   2094439   2092842  
  8140.000000   2091036   2089324   2087994   2087217   2086973  
  8130.000000   2087083   2087258   2087226   2086821   2086026  
  8120.000000   2084967   2083827   2082766   2081835   2080965  
  8110.000000   2079989   2078739   2077111   2075133   2072964  
  8100.000000   2070842   2069015   2067647   2066789   2066358  
  8090.000000   2066199   2066142   2066062   2065909   2065688  
  8080.000000   2065421   2065113   2064720   2064177   2063427  
  8070.000000   2062467   2061371   2060272   2059322   2058612  
  8060.000000   2058133   2057742   2057204   2056264   2054739  
  8050.000000   2052604   2050012   2047279   2044781   2042871  
  8040.000000   2041761   2041484   2041877   2042648   2043449  
  8030.000000   2043965   2043990   2043441   2042369   2040901  
  8020.000000   2039214   2037464   2035778   2034230   2032861  
  8010.000000   2031688   2030723   2029992   2029520   2029332  
  8000.000000   2029421   2029739   2030179   2030589   2030795  
  7990.000000   2030638   2030025   2028946   2027502   2025866  
  7980.000000   2024251   2022853   2021796   2021110   2020732  
  7970.000000   2020533   2020370   2020117   2019699   2019085  
  7960.000000   2018282   2017312   2016205   2014995   2013743  
  7950.000000   2012544   2011530   2010846   2010613   2010879  
  7940.000000   2011587   2012571   2013597   2014410   2014820  
  7930.000000   2014736   2014201   2013350   2012373   2011450  
  7920.000000   2010711   2010218   2009975   2009959   2010133  
  7910.000000   2010469   2010928   2011454   2011951   2012301  
  7900.000000   2012380   2012098   2011436   2010445   2009257  
  7890.000000   2008019   2006872   2005891   2005087   2004412  
  7880.000000   2003792   2003176   2002550   2001966   2001510  
  7870.000000   2001287   2001374   2001803   2002538   2003486  
  7860.000000   2004511   2005455   2006178   2006564   2006559  
  7850.000000   2006166   2005453   2004528   2003524   2002562  
  7840.000000   2001732   2001080   2000599   2000257   2000001  
  7830.000000   1999800   1999626   1999485   1999376   1999307  
  7820.000000   1999257   1999200   1999092   1998899   1998603  
  7810.000000   1998207   1997730   1997190   1996594   1995920  
  7800.000000   1995125   1994158   1992980   1991594   1990051  
  7790.000000   1988462   1986960   1985696   1984784   1984290  
  7780.000000   1984208   1984468   1984943   1985479   1985918  
  7770.000000   1986120   1985988   1985476   1984604   1983444  
  7760.000000   1982123   1980783   1979565   1978569   1977834  
  7750.000000   1977335   1976989   1976699   1976376   1975982  
  7740.000000   1975529   1975073   1974665   1974330   1974031  
  7730.000000   1973684   1973182   1972450   1971482   1970363  
  7720.000000   1969246   1968298   1967640   1967296   1967176  
  7710.000000   1967104   1966884   1966362   1965487   1964318  
  7700.000000   1963012   1961762   1960738   1960040   1959676  
  7690.000000   1959577   1959630   1959724   1959787   1959798  
  7680.000000   1959782   1959782   1959830   1959923   1960012  
  7670.000000   1960014   1959842   1959422   1958736   1957813  
  7660.000000   1956740   1955622   1954557   1953601   1952759  
  7650.000000   1951993   1951247   1950487   1949721   1949009  
  7640.000000   1948445   1948122   1948091   1948337   1948773  
  7630.000000   1949263   1949664   1949861   1949805   1949503  
  7620.000000   1949019   1948428   1947806   1947202   1946640  
  7610.000000   1946128   1945662   1945245   1944886   1944601  
  7600.000000   1944408   1944321   1944347   1944472   1944663  
  7590.000000   1944855   1944964   1944895   1944578   1943990  
  7580.000000   1943183   1942283   1941467   1940916   1940767  
  7570.000000   1941065   1941746   1942647   1943558   1944275  
  7560.000000   1944659   1944664   1944340   1943811   1943240  
  7550.000000   1942792   1942592   1942712   1943153   1943855  
  7540.000000   1944717   1945612   1946422   1947055   1947463  
  7530.000000   1947642   1947629   1947475   1947235   1946948  
  7520.000000   1946652   1946383   1946192   1946137   1946270  
  7510.000000   1946614   1947139   1947769   1948393   1948914  
  7500.000000   1949283   1949528   1949747   1950061   1950566  
  7490.000000   1951276   1952126   1952974   1953675   1954125  
  7480.000000   1954324   1954358   1954377   1954531   1954926  
  7470.000000   1955587   1956473   1957501   1958592   1959691  
  7460.000000   1960778   1961848   1962897   1963909   1964867  
  7450.000000   1965760   1966615   1967482   1968440   1969538  
  7440.000000   1970792   1972147   1973512   1974774   1975854  
  7430.000000   1976735   1977468   1978163   1978947   1979927  
  7420.000000   1981162   1982658   1984365   1986209   1988100  
  7410.000000   1989953   1991698   1993278   1994658   1995823  
  7400.000000   1996783   1997566   1998219   1998784   1999311  
  7390.000000   1999838   2000404   2001049   2001815   2002748  
  7380.000000   2003879   2005221   2006743   2008394   2010101  
  7370.000000   2011800   2013442   2015003   2016485   2017887  
  7360.000000   2019208   2020424   2021512   2022446   2023228  
  7350.000000   2023883   2024467   2025058   2025730   2026548  
  7340.000000   2027548   2028746   2030124   2031648   2033255  
  7330.000000   2034862   2036377   2037714   2038821   2039696  
  7320.000000   2040397   2041019   2041675   2042446   2043370  
  7310.000000   2044423   2045536   2046630   2047642   2048555  
  7300.000000   2049389   2050195   2051022   2051901   2052838  
  7290.000000   2053823   2054844   2055898   2056995   2058147  
  7280.000000   2059357   2060607   2061857   2063055   2064154  
  7270.000000   2065123   2065954   2066653   2067243   2067744  
  7260.000000   2068181   2068573   2068954   2069363   2069850  
  7250.000000   2070455   2071214   2072134   2073211   2074420  
  7240.000000   2075745   2077174   2078713   2080370   2082166  
  7230.000000   2084101   2086179   2088376   2090674   2093029  
  7220.000000   2095407   2097756   2100044   2102237   2104344  
  7210.000000   2106389   2108443   2110578   2112871   2115360  
  7200.000000   2118056   2120924   2123929   2127031   2130222  
  7190.000000   2133506   2136899   2140385   2143922   2147422  
  7180.000000   2150795   2153961   2156910   2159682   2162392  
  7170.000000   2165159   2168100   2171264   2174655   2178203  
  7160.000000   2181835   2185470   2189073   2192636   2196197  
  7150.000000   2199800   2203509   2207367   2211422   2215687  
  7140.000000   2220169   2224836   2229656   2234574   2239567  
  7130.000000   2244615   2249746   2254982   2260370   2265902  
  7120.000000   2271558   2277255   2282919   2288475   2293917  
  7110.000000   2299279   2304659   2310159   2315873   2321836  
  7100.000000   2328038   2334412   2340883   2347366   2353811  
  7090.000000   2360178   2366465   2372670   2378809   2384898  
  7080.000000   2390973   2397062   2403203   2409412   2415693  
  7070.000000   2422035   2428421   2434846   2441320   2447866  
  7060.000000   2454498   2461201   2467918   2474557   2481017  
  7050.000000   2487216   2493133   2498805   2504318   2509776  
  7040.000000   2515258   2520816   2526455   2532171   2537956  
  7030.000000   2543824   2549784   2555835   2561927   2567978  
  7020.000000   2573868   2579505   2584835   2589890   2594755  
  7010.000000   2599552   2604379   2609290   2614269   2619272  
  7000.000000   2624233   2629125   2633939   2638704   2643424  
  6990.000000   2648094   2652652   2657033   2661169   2665045  
  6980.000000   2668686   2672170   2675577   2678977   2682388  
  6970.000000   2685798   2689156   2692427   2695576   2698614  
  6960.000000   2701549   2704418   2707234   2710024   2712790  
  6950.000000   2715549   2718299   2721043   2723754   2726407  
  6940.000000   2728957   2731381   2733666   2735835   2737915  
  6930.000000   2739944   2741926   2743851   2745679   2747382  
  6920.000000   2748942   2750386   2751755   2753098   2754431  
  6910.000000   2755742   2756974   2758080   2759027   2759840  
  6900.000000   2760588   2761368   2762261   2763304   2764468  
  6890.000000   2765677   2766832   2767853   2768698   2769382  
  6880.000000   2769954   2770484   2771039   2771670   2772414  
  6870.000000   2773292   2774307   2775445   2776666   2777909  
  6860.000000   2779096   2780156   2781039   2781746   2782315  
  6850.000000   2782826   2783361   2783987   2784735   2785597  
  6840.000000   2786529   2787473   2788365   2789154   2789804  
  6830.000000   2790299   2790644   2790866   2791007   2791123  
  6820.000000   2791264   2791469   2791743   2792075   2792429  
  6810.000000   2792777   2793098   2793395   2793674   2793946  
  6800.000000   2794196   2794398   2794505   2794485   2794325  
  6790.000000   2794053   2793720   2793388   2793098   2792865  
  6780.000000   2792663   2792450   2792180   2791831   2791407  
  6770.000000   2790933   2790447   2789977   2789538   2789132  
  6760.000000   2788750   2788385   2788034   2787699   2787383  
  6750.000000   2787096   2786848   2786666   2786580   2786626  
  6740.000000   2786825   2787168   2787609   2788060   2788423  
  6730.000000   2788602   2788544   2788244   2787747   2787125  
  6720.000000   2786459   2785813   2785229   2784732   2784331  
  6710.000000   2784036   2783846   2783756   2783732   2783734  
  6700.000000   2783704   2783598   2783390   2783088   2782712  
  6690.000000   2782296   2781849   2781372   2780838   2780233  
  6680.000000   2779549   2778814   2778061   2777330   2776626  
  6670.000000   2775927   2775172   2774299   2773254   2772028  
  6660.000000   2770649   2769183   2767694   2766243   2764855  
  6650.000000   2763537   2762273   2761052   2759854   2758669  
  6640.000000   2757476   2756256   2754983   2753647   2752249  
  6630.000000   2750819   2749392   2748010   2746690   2745424  
  6620.000000   2744179   2742913   2741585   2740171   2738664  
  6610.000000   2737062   2735363   2733557   2731636   2729607  
  6600.000000   2727506   2725409   2723407   2721593   2720021  
  6590.000000   2718694   2717558   2716524   2715494   2714390  
  6580.000000   2713165   2711806   2710320   2708717   2707006  
  6570.000000   2705196   2703304   2701370   2699449   2697606  
  6560.000000   2695891   2694326   2692891   2691542   2690214  
  6550.000000   2688858   2687443   2685967   2684447   2682905  
  6540.000000   2681354   2679800   2678239   2676667   2675088  
  6530.000000   2673510   2671950   2670416   2668915   2667444  
  6520.000000   2665997   2664565   2663146   2661735   2660333  
  6510.000000   2658936   2657545   2656165   2654812   2653514  
  6500.000000   2652303   2651208   2650240   2649386   2648602  
  6490.000000   2647829   2647001   2646060   2644974   2643729  
  6480.000000   2642339   2640831   2639243   2637611   2635977  
  6470.000000   2634377   2632841   2631395   2630050   2628807  
  6460.000000   2627656   2626582   2625569   2624606   2623683  
  6450.000000   2622795   2621936   2621093   2620251   2619388  
  6440.000000   2618486   2617526   2616500   2615404   2614251  
  6430.000000   2613062   2611872   2610719   2609644   2608669  
  6420.000000   2607804   2607032   2606325   2605646   2604975  
  6410.000000   2604311   2603681   2603123   2602673   2602345  
  6400.000000   2602126   2601969   2601817   2601613   2601323  
  6390.000000   2600937   2600477   2599976   2599475   2599007  
  6380.000000   2598598   2598267   2598023   2597872   2597803  
  6370.000000   2597799   2597819   2597825   2597770   2597628  
  6360.000000   2597386   2597049   2596629   2596134   2595560  
  6350.000000   2594894   2594120   2593235   2592254   2591214  
  6340.000000   2590160   2589138   2588177   2587292   2586473  
  6330.000000   2585712   2584993   2584311   2583658   2583028  
  6320.000000   2582402   2581756   2581058   2580283   2579418  
  6310.000000   2578462   2577424   2576321   2575166   2573974  
  6300.000000   2572758   2571543   2570352   2569211   2568128  
  6290.000000   2567095   2566071   2565010   2563860   2562595  
  6280.000000   2561215   2559754   2558258   2556772   2555320  
  6270.000000   2553903   2552504   2551102   2549684   2548254  
  6260.000000   2546820   2545399   2543989   2542583   2541160  
  6250.000000   2539710   2538227   2536726   2535224   2533732  
  6240.000000   2532245   2530746   2529207   2527612   2525967  
  6230.000000   2524301   2522660   2521085   2519595   2518181  
  6220.000000   2516803   2515413   2513967   2512444   2510851  
  6210.000000   2509215   2507576   2505966   2504408   2502906  
  6200.000000   2501457   2500047   2498662   2497287   2495910  
  6190.000000   2494529   2493152   2491800   2490502   2489286  
  6180.000000   2488167   2487131   2486140   2485139   2484073  
  6170.000000   2482911   2481655   2480343   2479035   2477785  
  6160.000000   2476629   2475567   2474574   2473609   2472638  
  6150.000000   2471645   2470636   2469626   2468633   2467661  
  6140.000000   2466703   2465738   2464751   2463731   2462682  
  6130.000000   2461610   2460530   2459448   2458370   2457304  
  6120.000000   2456267   2455278   2454366   2453551   2452842  
  6110.000000   2452227   2451685   2451181   2450694   2450206  
  6100.000000   2449726   2449263   2448841   2448472   2448173  
  6090.000000   2447944   2447792   2447712   2447707   2447765  
  6080.000000   2447879   2448028   2448201   2448380   2448572  
  6070.000000   2448774   2449006   2449272   2449590   2449959  
  6060.000000   2450394   2450901   2451508   2452232   2453098  
  6050.000000   2454104   2455241   2456472   2457766   2459088  
  6040.000000   2460438   2461822   2463278   2464832   2466513  
  6030.000000   2468313   2470220   2472192   2474206   2476228  
  6020.000000   2478258   2480289   2482335   2484400   2486498  
  6010.000000   2488634   2490824   2493078   2495413   2497827  
  6000.000000   2500313   2502837   2505368   2507863   2510306  
  5990.000000   2512689   2515037   2517378   2519754   2522190  
  5980.000000   2524711   2527321   2530029   2532829   2535729  
  5970.000000   2538718   2541796   2544942   2548140   2551367  
  5960.000000   2554614   2557871   2561149   2564448   2567782  
  5950.000000   2571152   2574564   2578019   2581530   2585110  
  5940.000000   2588780   2592550   2596419   2600371   2604375  
  5930.000000   2608397   2612405   2616379   2620304   2624173  
  5920.000000   2627967   2631661   2635211   2638575   2641716  
  5910.000000   2644618   2647286   2649756   2652074   2654302  
  5900.000000   2656493   2658705   2660974   2663338   2665809  
  5890.000000   2668398   2671084   2673843   2676632   2679408  
  5880.000000   2682123   2684741   2687232   2689575   2691762  
  5870.000000   2693792   2695683   2697467   2699193   2700913  
  5860.000000   2702682   2704534   2706484   2708523   2710632  
  5850.000000   2712789   2714987   2717226   2719523   2721892  
  5840.000000   2724344   2726867   2729452   2732074   2734725  
  5830.000000   2737396   2740094   2742819   2745572   2748339  
  5820.000000   2751104   2753849   2756572   2759281   2761994  
  5810.000000   2764729   2767489   2770269   2773034   2775767  
  5800.000000   2778429   2781031   2783563   2786062   2788519  
  5790.000000   2790950   2793302   2795537   2797552   2799261  
  5780.000000   2800535   2801279   2801386   2800811   2799540  
  5770.000000   2797647   2795246   2792523   2789649   2786801  
  5760.000000   2784078   2781550   2779204   2777030   2774989  
  5750.000000   2773082   2771306   2769685   2768220   2766902  
  5740.000000   2765699   2764564   2763463   2762368   2761283  
  5730.000000   2760209   2759167   2758156   2757180   2756222  
  5720.000000   2755280   2754348   2753435   2752548   2751694  
  5710.000000   2750871   2750074   2749297   2748541   2747813  
  5700.000000   2747125   2746489   2745904   2745361   2744844  
  5690.000000   2744345   2743856   2743394   2742965   2742580  
  5680.000000   2742217   2741845   2741404   2740844   2740114  
  5670.000000   2739193   2738068   2736745   2735219   2733490  
  5660.000000   2731549   2729405   2727076   2724615   2722082  
  5650.000000   2719550   2717075   2714699   2712441   2710310  
  5640.000000   2708309   2706443   2704712   2703111   2701618  
  5630.000000   2700194   2698800   2697397   2695976   2694542  
  5620.000000   2693129   2691767   2690484   2689281   2688151  
  5610.000000   2687070   2686029   2685020   2684056   2683144  
  5600.000000   2682287   2681469   2680665   2679848   2679003  
  5590.000000   2678132   2677258   2676406   2675599   2674841  
  5580.000000   2674119   2673409   2672689   2671949   2671189  
  5570.000000   2670418   2669641   2668857   2668050   2667204  
  5560.000000   2666306   2665352   2664350   2663316   2662261  
  5550.000000   2661193   2660112   2659017   2657909   2656800  
  5540.000000   2655706   2654643   2653619   2652633   2651671  
  5530.000000   2650721   2649771   2648820   2647869   2646921  
  5520.000000   2645967   2644995   2643988   2642937   2641844  
  5510.000000   2640730   2639614   2638521   2637452   2636401  
  5500.000000   2635344   2634263   2633147   2632002   2630835  
  5490.000000   2629652   2628438   2627166   2625796   2624305  
  5480.000000   2622689   2620982   2619236   2617518   2615867  
  5470.000000   2614303   2612804   2611334   2609848   2608313  
  5460.000000   2606710   2605037   2603292   2601477   2599596  
  5450.000000   2597659   2595688   2593723   2591804   2589967  
  5440.000000   2588227   2586576   2584993   2583453   2581944  
  5430.000000   2580465   2579024   2577615   2576226   2574817  
  5420.000000   2573362   2571843   2570295   2568778   2567394  
  5410.000000   2566224   2565329   2564695   2564288   2564031  
  5400.000000   2563878   2563784   2563759   2563803   2563947  
  5390.000000   2564183   2564524   2564949   2565486   2566146  
  5380.000000   2566992   2568045   2569343   2570853   2572553  
  5370.000000   2574372   2576291   2578273   2580358   2582552  
  5360.000000   2584925   2587475   2590261   2593271   2596574  
  5350.000000   2600180   2604186   2608609   2613529   2618910  
  5340.000000   2624781   2631061   2637779   2644874   2652411  
  5330.000000   2660347   2668759   2677592   2686910   2696663  
  5320.000000   2706947   2717752   2729223   2741363   2754308  
  5310.000000   2768010   2782544   2797809   2813856   2830605  
  5300.000000   2848150   2866465   2885696   2905843   2927037  
  5290.000000   2949234   2972478   2996626   3021615   3047244  
  5280.000000   3073449   3100110   3127292   3155020   3183451  
  5270.000000   3212626   3242578   3273167   3304193   3335385  
  5260.000000   3366523   3397485   3428257   3458934   3489582  
  5250.000000   3520250   3550808   3581092   3610788   3639707  
  5240.000000   3667638   3694617   3720650   3745946   3770557  
  5230.000000   3794638   3818104   3840951   3862967   3884105  
  5220.000000   3904199   3923327   3941467   3958827   3975455  
  5210.000000   3991545   4007057   4022044   4036322   4049855  
  5200.000000   4062452   4074155   4084900   4094846   4104002  
  5190.000000   4112528   4120391   4127677   4134299   4140319  
  5180.000000   4145662   4150411   4154507   4158019   4160860  
  5170.000000   4163071   4164570   4165430   4165639   4165329  
  5160.000000   4164526   4163351   4161786   4159888   4157596  
  5150.000000   4154948   4151904   4148527   4144800   4140780  
  5140.000000   4136436   4131802   4126847   4121621   4116136  
  5130.000000   4110475   4104668   4098774   4092784   4086707  
  5120.000000   4080508   4074194   4067761   4061253   4054699  
  5110.000000   4048144   4041601   4035079   4028567   4022067  
  5100.000000   4015579   4009126   4002726   3996401   3990153  
  5090.000000   3983975   3977845   3971748   3965666   3959597  
  5080.000000   3953533   3947474   3941410   3935334   3929236  
  5070.000000   3923117   3916979   3910835   3904681   3898513  
  5060.000000   3892298   3886012   3879617   3873104   3866471  
  5050.000000   3859747   3852956   3846136   3839295   3832444  
  5040.000000   3825566   3818655   3811696   3804692   3797646  
  5030.000000   3790568   3783468   3776357   3769247   3762156  
  5020.000000   3755107   3748126   3741241   3734465   3727812  
  5010.000000   3721271   3714841   3708503   3702263   3696112  
  5000.000000   3690070   3684139   3678350   3672703   3667240  
  4990.000000   3661963   3656921   3652115   3647588   3643324  
  4980.000000   3639346   3635615   3632148   3628909   3625932  
  4970.000000   3623199   3620767   3618625   3616827   3615353  
  4960.000000   3614248   3613484   3613109   3613103   3613515  
  4950.000000   3614319   3615550   3617157   3619156   3621485  
  4940.000000   3624166   3627149   3630477   3634117   3638113  
  4930.000000   3642427   3647096   3652073   3657395   3663027  
  4920.000000   3669013   3675330   3682018   3689048   3696441  
  4910.000000   3704157   3712201   3720534   3729151   3738008  
  4900.000000   3747081   3756314   3765665   3775083   3784531  
  4890.000000   3793983   3803412   3812803   3822113   3831310  
  4880.000000   3840313   3849073   3857498   3865553   3873162  
  4870.000000   3880318   3886963   3893108   3898703   3903772  
  4860.000000   3908283   3912281   3915757   3918772   3921326  
  4850.000000   3923481   3925238   3926660   3927759   3928609  
  4840.000000   3929238   3929729   3930110   3930449   3930761  
  4830.000000   3931086   3931425   3931798   3932199   3932637  
  4820.000000   3933105   3933605   3934139   3934712   3935337  
  4810.000000   3936026   3936796   3937650   3938596   3939624  
  4800.000000   3940738   3941929   3943210   3944589   3946084  
  4790.000000   3947699   3949437   3951277   3953199   3955170  
  4780.000000   3957173   3959190   3961227   3963286   3965376  
  4770.000000   3967499   3969649   3971809   3973962   3976087  
  4760.000000   3978168   3980193   3982149   3984031   3985829  
  4750.000000   3987540   3989161   3990699   3992156   3993543  
  4740.000000   3994860   3996114   3997304   3998437   3999521  
  4730.000000   4000575   4001616   4002665   4003730   4004809  
  4720.000000   4005892   4006956   4007987   4008973   4009928  
  4710.000000   4010873   4011856   4012914   4014097   4015431  
  4700.000000   4016939   4018615   4020458   4022449   4024582  
  4690.000000   4026845   4029246   4031783   4034463   4037272  
  4680.000000   4040190   4043161   4046135   4049038   4051824  
  4670.000000   4054446   4056912   4059236   4061477   4063688  
  4660.000000   4065938   4068274   4070744   4073372   4076182  
  4650.000000   4079184   4082383   4085775   4089342   4093059  
  4640.000000   4096886   4100790   4104730   4108684   4112622  
  4630.000000   4116529   4120374   4124132   4127754   4131198  
  4620.000000   4134405   4137339   4139954   4142237   4144170  
  4610.000000   4145774   4147058   4148076   4148861   4149487  
  4600.000000   4149990   4150436   4150835   4151221   4151570  
  4590.000000   4151887   4152128   4152284   4152306   4152175  
  4580.000000   4151840   4151276   4150436   4149314   4147895  
  4570.000000   4146214   4144302   4142226   4140032   4137782  
  4560.000000   4135498   4133211   4130911   4128608   4126286  
  4550.000000   4123949   4121584   4119197   4116772   4114310  
  4540.000000   4111801   4109246   4106649   4104021   4101376  
  4530.000000   4098719   4096060   4093388   4090711   4088022  
  4520.000000   4085352   4082714   4080173   4077755   4075531  
  4510.000000   4073511   4071756   4070255   4069071   4068199  
  4500.000000   4067722   4067650   4068081   4069013   4070533  
  4490.000000   4072617   4075339   4078666   4082679   4087351  
  4480.000000   4092770   4098904   4105822   4113464   4121865  
  4470.000000   4130938   4140692   4151032   4161964   4173401  
  4460.000000   4185353   4197741   4210572   4223763   4237302  
  4450.000000   4251101   4265136   4279330   4293664   4308092  
  4440.000000   4322608   4337193   4351832   4366508   4381181  
  4430.000000   4395823   4410370   4424795   4439024   4453042  
  4420.000000   4466771   4480202   4493249   4505898   4518051  
  4410.000000   4529683   4540686   4551030   4560617   4569443  
  4400.000000   4577456   4584712   4591235   4597155   4602563  
  4390.000000   4607631   4612471   4617238   4622008   4626875  
  4380.000000   4631850   4636957   4642161   4647459   4652821  
  4370.000000   4658266   4663804   4669482   4675327   4681374  
  4360.000000   4687617   4694047   4700603   4707244   4713867  
  4350.000000   4720435   4726835   4733066   4739048   4744840  
  4340.000000   4750413   4755848   4761075   4766034   4770439  
  4330.000000   4773939   4776003   4776144   4773927   4769194  
  4320.000000   4762067   4753032   4742792   4732202   4722031  
  4310.000000   4712905   4705154   4698885   4693977   4690230  
  4300.000000   4687410   4685333   4683883   4682977   4682584  
  4290.000000   4682634   4683099   4683893   4685001   4686368  
  4280.000000   4688008   4689904   4692054   4694436   4697012  
  4270.000000   4699751   4702587   4705464   4708248   4710769  
  4260.000000   4712757   4713909   4713895   4712473   4709509  
  4250.000000   4705077   4699403   4692888   4685969   4679109  
  4240.000000   4672645   4666830   4661730   4657330   4653493  
  4230.000000   4650071   4646889   4643803   4640708   4637531  
  4220.000000   4634269   4630933   4627610   4624369   4621344  
  4210.000000   4618613   4616289   4614401   4612996   4612037  
  4200.000000   4611500   4611302   4611388   4611664   4612086  
  4190.000000   4612584   4613159   4613780   4614488   4615274  
  4180.000000   4616194   4617237   4618453   4619827   4621414  
  4170.000000   4623217   4625310   4627707   4630479   4633621  
  4160.000000   4637174   4641096   4645408   4650061   4655088  
  4150.000000   4660461   4666234   4672385   4678968   4685948  
  4140.000000   4693373   4701202   4709491   4718206   4727405  
  4130.000000   4737051   4747187   4757756   4768786   4780221  
  4120.000000   4792099   4804392   4817163   4830410   4844203  
  4110.000000   4858536   4873454   4888917   4904918   4921374  
  4100.000000   4938224   4955355   4972690   4990131   5007630  
  4090.000000   5025149   5042676   5060210   5077747   5095291  
  4080.000000   5112815   5130324   5147777   5165182   5182478  
  4070.000000   5199648   5216582   5233228   5249443   5265182  
  4060.000000   5280331   5294903   5308834   5322184   5334908  
  4050.000000   5347082   5358665   5369747   5380289   5390382  
  4040.000000   5399957   5409059   5417565   5425485   5432691  
  4030.000000   5439220   5444996   5450098   5454488   5458236  
  4020.000000   5461267   5463643   5465345   5466451   5466924  
  4010.000000   5466897   5466436   5465559   5464061   5461985  
  4000.000000   5459613  
##END= 
