##TITLE= Sample 035 By ssteindl date Donnerstag, November 22 2018
##JCAMP-DX= 4.24
##DATA TYPE= INFRARED SPECTRUM
##ORIGIN= Exported PE Spectrum Data File
##OWNER= Sandra Steindl
##DATE= 18/11/22
##TIME= 11:25:11.00
##SPECTROMETER/DATA SYSTEM= PERKIN-ELMER Frontier FT-IR/NIR IR
##INSTRUMENT PARAMETERS=
  APODIZATION=stark
  DETECTOR=INGAAS
##RESOLUTION= 16.000000
##DELTAX= -2.000000
##XUNITS= 1/CM
##YUNITS= A
##XFACTOR= 1.00
##YFACTOR= 0.00000011920928955078
##FIRSTX= 10000.00
##LASTX= 4000.00
##NPOINTS= 3001
##FIRSTY= 0.268630
##MAXY= 0.642963
##MINY= 0.214527
##XYDATA= (X++(Y..Y))
 10000.000000   2253431   2251883   2251000   2251553   2253363  
  9990.000000   2255421   2256715   2256634   2255056   2252444  
  9980.000000   2249863   2248589   2249501   2252787   2257877  
  9970.000000   2263698   2269010   2272846   2274767   2274907  
  9960.000000   2273799   2272117   2270345   2268697   2267059  
  9950.000000   2265198   2262929   2260275   2257503   2255026  
  9940.000000   2253180   2252076   2251402   2250541   2248715  
  9930.000000   2245335   2240294   2234105   2227829   2222715  
  9920.000000   2219754   2219277   2220840   2223387   2225737  
  9910.000000   2226980   2226855   2225686   2224174   2222984  
  9900.000000   2222424   2222345   2222302   2221883   2221071  
  9890.000000   2220310   2220381   2221946   2225147   2229372  
  9880.000000   2233399   2235851   2235761   2232972   2228213  
  9870.000000   2222824   2218213   2215406   2214702   2215793  
  9860.000000   2217969   2220549   2223068   2225362   2227369  
  9850.000000   2228961   2229773   2229302   2227099   2223046  
  9840.000000   2217533   2211366   2205564   2200956   2197924  
  9830.000000   2196305   2195494   2194774   2193550   2191594  
  9820.000000   2189023   2186215   2183623   2181612   2180380  
  9810.000000   2179892   2179966   2180256   2180467   2180311  
  9800.000000   2179724   2178755   2177643   2176651   2176021  
  9790.000000   2175847   2176102   2176665   2177477   2178626  
  9780.000000   2180369   2183047   2186846   2191691   2197093  
  9770.000000   2202332   2206639   2209528   2210950   2211321  
  9760.000000   2211262   2211313   2211592   2211759   2211130  
  9750.000000   2209064   2205272   2200035   2194063   2188256  
  9740.000000   2183252   2179270   2175997   2172912   2169519  
  9730.000000   2165712   2161757   2158209   2155550   2153966  
  9720.000000   2153224   2152783   2152090   2150754   2148773  
  9710.000000   2146330   2143733   2141073   2138264   2135052  
  9700.000000   2131315   2127214   2123327   2120451   2119395  
  9690.000000   2120596   2123982   2128928   2134465   2139583  
  9680.000000   2143505   2145878   2146787   2146657   2146114  
  9670.000000   2145804   2146287   2147890   2150644   2154198  
  9660.000000   2157864   2160741   2161951   2160937   2157644  
  9650.000000   2152654   2146985   2141871   2138313   2136856  
  9640.000000   2137382   2139294   2141684   2143732   2144841  
  9630.000000   2144813   2143721   2141830   2139439   2136791  
  9620.000000   2134070   2131347   2128650   2125874   2122881  
  9610.000000   2119466   2115522   2111119   2106573   2102443  
  9600.000000   2099342   2097784   2097939   2099597   2102219  
  9590.000000   2105147   2107826   2109961   2111515   2112612  
  9580.000000   2113360   2113746   2113651   2112914   2111513  
  9570.000000   2109576   2107408   2105280   2103316   2101351  
  9560.000000   2099020   2095935   2091937   2087261   2082504  
  9550.000000   2078449   2075754   2074732   2075263   2076911  
  9540.000000   2079152   2081586   2084055   2086580   2089216  
  9530.000000   2091877   2094295   2096085   2096973   2096956  
  9520.000000   2096390   2095844   2095842   2096596   2097870  
  9510.000000   2099103   2099627   2099015   2097221   2094634  
  9500.000000   2091824   2089328   2087352   2085767   2084178  
  9490.000000   2082215   2079741   2076945   2074245   2072045  
  9480.000000   2070526   2069523   2068600   2067253   2065148  
  9470.000000   2062295   2059068   2056068   2053899   2052970  
  9460.000000   2053360   2054851   2057016   2059366   2061484  
  9450.000000   2063062   2063940   2064040   2063360   2061924  
  9440.000000   2059802   2057119   2054081   2050959   2048061  
  9430.000000   2045657   2043939   2042968   2042684   2042907  
  9420.000000   2043353   2043670   2043490   2042526   2040675  
  9410.000000   2038078   2035148   2032452   2030607   2030081  
  9400.000000   2031076   2033444   2036675   2040049   2042773  
  9390.000000   2044280   2044359   2043236   2041487   2039801  
  9380.000000   2038799   2038748   2039510   2040469   2040762  
  9370.000000   2039544   2036357   2031354   2025282   2019340  
  9360.000000   2014761   2012560   2013144   2016306   2021216  
  9350.000000   2026754   2031799   2035515   2037509   2037774  
  9340.000000   2036629   2034475   2031706   2028528   2025031  
  9330.000000   2021192   2017071   2012846   2008867   2005588  
  9320.000000   2003444   2002779   2003666   2005910   2008983  
  9310.000000   2012204   2014900   2016607   2017224   2017000  
  9300.000000   2016478   2016235   2016697   2017911   2019572  
  9290.000000   2021120   2022012   2021916   2020845   2019145  
  9280.000000   2017332   2015902   2015111   2014933   2015107  
  9270.000000   2015305   2015267   2014894   2014219   2013363  
  9260.000000   2012436   2011536   2010705   2010023   2009582  
  9250.000000   2009525   2009923   2010742   2011753   2012603  
  9240.000000   2012918   2012448   2011187   2009335   2007222  
  9230.000000   2005083   2002957   2000651   1997857   1994345  
  9220.000000   1990126   1985589   1981414   1978409   1977175  
  9210.000000   1977929   1980362   1983777   1987262   1989949  
  9200.000000   1991241   1990891   1989072   1986185   1982787  
  9190.000000   1979370   1976342   1973892   1972048   1970686  
  9180.000000   1969650   1968824   1968157   1967747   1967735  
  9170.000000   1968324   1969592   1971481   1973755   1976065  
  9160.000000   1978098   1979581   1980418   1980562   1980059  
  9150.000000   1978873   1976940   1974181   1970664   1966714  
  9140.000000   1962908   1960027   1958769   1959625   1962589  
  9130.000000   1967222   1972670   1978012   1982463   1985547  
  9120.000000   1987119   1987249   1986148   1983992   1980920  
  9110.000000   1977033   1972531   1967754   1963167   1959265  
  9100.000000   1956393   1954726   1954154   1954408   1955052  
  9090.000000   1955704   1956063   1955962   1955328   1954136  
  9080.000000   1952455   1950389   1948123   1945848   1943780  
  9070.000000   1942058   1940741   1939782   1939090   1938589  
  9060.000000   1938267   1938181   1938395   1938916   1939627  
  9050.000000   1940287   1940601   1940346   1939492   1938221  
  9040.000000   1936872   1935805   1935263   1935266   1935606  
  9030.000000   1935937   1935926   1935351   1934176   1932507  
  9020.000000   1930562   1928546   1926615   1924861   1923353  
  9010.000000   1922168   1921390   1921103   1921368   1922196  
  9000.000000   1923545   1925326   1927414   1929656   1931854  
  8990.000000   1933772   1935173   1935859   1935783   1935079  
  8980.000000   1934097   1933280   1933019   1933489   1934550  
  8970.000000   1935806   1936720   1936869   1936088   1934601  
  8960.000000   1932888   1931535   1930948   1931237   1932176  
  8950.000000   1933301   1934104   1934199   1933455   1931945  
  8940.000000   1929885   1927502   1925009   1922578   1920373  
  8930.000000   1918580   1917398   1916992   1917405   1918539  
  8920.000000   1920163   1922002   1923822   1925492   1926994  
  8910.000000   1928326   1929445   1930180   1930309   1929623  
  8900.000000   1928104   1925976   1923706   1921871   1920943  
  8890.000000   1921141   1922313   1924050   1925820   1927192  
  8880.000000   1927945   1928103   1927852   1927388   1926803  
  8870.000000   1926042   1924973   1923510   1921718   1919842  
  8860.000000   1918260   1917348   1917350   1918280   1919903  
  8850.000000   1921823   1923598   1924866   1925432   1925271  
  8840.000000   1924530   1923455   1922343   1921478   1921082  
  8830.000000   1921275   1922055   1923291   1924757   1926177  
  8820.000000   1927305   1927976   1928134   1927817   1927122  
  8810.000000   1926150   1925005   1923772   1922570   1921540  
  8800.000000   1920864   1920715   1921185   1922259   1923759  
  8790.000000   1925439   1927026   1928356   1929399   1930267  
  8780.000000   1931150   1932187   1933394   1934601   1935511  
  8770.000000   1935785   1935183   1933654   1931397   1928799  
  8760.000000   1926350   1924485   1923483   1923395   1924037  
  8750.000000   1925065   1926071   1926717   1926826   1926444  
  8740.000000   1925817   1925332   1925396   1926303   1928130  
  8730.000000   1930698   1933623   1936414   1938609   1939909  
  8720.000000   1940255   1939829   1938983   1938102   1937483  
  8710.000000   1937231   1937268   1937358   1937220   1936623  
  8700.000000   1935478   1933873   1932048   1930342   1929088  
  8690.000000   1928539   1928806   1929830   1931442   1933363  
  8680.000000   1935321   1937068   1938469   1939487   1940193  
  8670.000000   1940720   1941237   1941916   1942902   1944306  
  8660.000000   1946190   1948554   1951314   1954307   1957290  
  8650.000000   1959974   1962055   1963286   1963531   1962798  
  8640.000000   1961258   1959185   1956925   1954797   1953059  
  8630.000000   1951845   1951162   1950921   1950966   1951161  
  8620.000000   1951408   1951712   1952155   1952890   1954070  
  8610.000000   1955789   1958036   1960663   1963427   1966027  
  8600.000000   1968208   1969807   1970810   1971318   1971522  
  8590.000000   1971604   1971700   1971850   1972026   1972157  
  8580.000000   1972186   1972097   1971920   1971738   1971616  
  8570.000000   1971641   1971849   1972302   1973035   1974110  
  8560.000000   1975558   1977371   1979454   1981604   1983541  
  8550.000000   1984937   1985524   1985124   1983746   1981546  
  8540.000000   1978848   1976030   1973485   1971520   1970314  
  8530.000000   1969913   1970223   1971108   1972412   1974041  
  8520.000000   1975943   1978130   1980621   1983372   1986250  
  8510.000000   1988985   1991275   1992792   1993349   1992920  
  8500.000000   1991727   1990155   1988676   1987721   1987584  
  8490.000000   1988361   1989934   1992049   1994373   1996605  
  8480.000000   1998492   1999902   2000795   2001249   2001416  
  8470.000000   2001502   2001732   2002283   2003247   2004566  
  8460.000000   2006053   2007411   2008330   2008592   2008146  
  8450.000000   2007142   2005878   2004727   2004010   2003923  
  8440.000000   2004470   2005508   2006801   2008118   2009286  
  8430.000000   2010227   2010940   2011479   2011894   2012216  
  8420.000000   2012449   2012575   2012586   2012484   2012307  
  8410.000000   2012101   2011920   2011811   2011785   2011839  
  8400.000000   2011927   2012019   2012088   2012157   2012275  
  8390.000000   2012530   2012991   2013687   2014549   2015416  
  8380.000000   2016055   2016232   2015792   2014717   2013147  
  8370.000000   2011344   2009604   2008170   2007144   2006486  
  8360.000000   2006051   2005666   2005211   2004662   2004085  
  8350.000000   2003586   2003228   2002998   2002800   2002518  
  8340.000000   2002087   2001542   2001030   2000746   2000864  
  8330.000000   2001433   2002334   2003301   2003997   2004132  
  8320.000000   2003563   2002334   2000669   1998898   1997351  
  8310.000000   1996265   1995710   1995604   1995744   1995887  
  8300.000000   1995818   1995410   1994647   1993618   1992466  
  8290.000000   1991340   1990340   1989494   1988757   1988049  
  8280.000000   1987307   1986527   1985779   1985192   1984891  
  8270.000000   1984949   1985327   1985874   1986361   1986551  
  8260.000000   1986284   1985519   1984346   1982946   1981519  
  8250.000000   1980231   1979168   1978350   1977749   1977325  
  8240.000000   1977040   1976857   1976701   1976463   1975978  
  8230.000000   1975093   1973707   1971856   1969723   1967599  
  8220.000000   1965807   1964586   1964021   1963998   1964236  
  8210.000000   1964369   1964056   1963100   1961491   1959417  
  8200.000000   1957187   1955157   1953625   1952772   1952601  
  8190.000000   1952966   1953585   1954131   1954297   1953874  
  8180.000000   1952798   1951137   1949075   1946820   1944556  
  8170.000000   1942364   1940224   1938041   1935727   1933290  
  8160.000000   1930865   1928721   1927161   1926440   1926638  
  8150.000000   1927629   1929069   1930497   1931452   1931606  
  8140.000000   1930848   1929290   1927218   1924976   1922875  
  8130.000000   1921102   1919702   1918588   1917599   1916556  
  8120.000000   1915313   1913798   1912012   1910038   1908006  
  8110.000000   1906077   1904401   1903084   1902169   1901617  
  8100.000000   1901327   1901157   1900972   1900681   1900259  
  8090.000000   1899747   1899226   1898768   1898410   1898113  
  8080.000000   1897796   1897338   1896639   1895648   1894386  
  8070.000000   1892946   1891463   1890090   1888949   1888120  
  8060.000000   1887616   1887388   1887330   1887310   1887186  
  8050.000000   1886844   1886218   1885309   1884185   1882960  
  8040.000000   1881774   1880734   1879903   1879264   1878739  
  8030.000000   1878211   1877571   1876760   1875794   1874772  
  8020.000000   1873840   1873148   1872800   1872809   1873085  
  8010.000000   1873454   1873699   1873626   1873125   1872207  
  8000.000000   1871008   1869743   1868644   1867880   1867500  
  7990.000000   1867418   1867439   1867327   1866890   1866042  
  7980.000000   1864840   1863454   1862109   1860999   1860223  
  7970.000000   1859763   1859503   1859291   1859010   1858622  
  7960.000000   1858176   1857769   1857496   1857394   1857421  
  7950.000000   1857470   1857419   1857179   1856738   1856160  
  7940.000000   1855565   1855073   1854766   1854666   1854729  
  7930.000000   1854885   1855061   1855205   1855299   1855334  
  7920.000000   1855307   1855194   1854963   1854583   1854039  
  7910.000000   1853350   1852569   1851777   1851055   1850477  
  7900.000000   1850088   1849902   1849896   1850016   1850180  
  7890.000000   1850283   1850224   1849915   1849324   1848477  
  7880.000000   1847472   1846441   1845531   1844845   1844425  
  7870.000000   1844231   1844178   1844167   1844135   1844084  
  7860.000000   1844076   1844217   1844595   1845254   1846159  
  7850.000000   1847206   1848250   1849145   1849788   1850126  
  7840.000000   1850173   1849974   1849594   1849085   1848481  
  7830.000000   1847792   1847014   1846147   1845200   1844216  
  7820.000000   1843253   1842406   1841760   1841400   1841362  
  7810.000000   1841640   1842163   1842818   1843468   1843979  
  7800.000000   1844249   1844218   1843877   1843252   1842400  
  7790.000000   1841384   1840275   1839147   1838067   1837104  
  7780.000000   1836303   1835689   1835246   1834936   1834688  
  7770.000000   1834437   1834123   1833714   1833199   1832587  
  7760.000000   1831898   1831157   1830402   1829674   1829030  
  7750.000000   1828514   1828157   1827944   1827815   1827670  
  7740.000000   1827405   1826945   1826279   1825469   1824629  
  7730.000000   1823885   1823325   1822969   1822767   1822625  
  7720.000000   1822458   1822221   1821932   1821646   1821417  
  7710.000000   1821254   1821107   1820877   1820466   1819828  
  7700.000000   1819011   1818148   1817425   1817005   1816964  
  7690.000000   1817255   1817715   1818125   1818282   1818073  
  7680.000000   1817509   1816712   1815854   1815091   1814504  
  7670.000000   1814084   1813742   1813361   1812847   1812163  
  7660.000000   1811340   1810455   1809598   1808831   1808172  
  7650.000000   1807596   1807054   1806506   1805941   1805390  
  7640.000000   1804913   1804582   1804451   1804539   1804820  
  7630.000000   1805232   1805689   1806101   1806395   1806521  
  7620.000000   1806465   1806231   1805850   1805352   1804771  
  7610.000000   1804130   1803446   1802732   1802006   1801296  
  7600.000000   1800647   1800111   1799743   1799579   1799624  
  7590.000000   1799844   1800168   1800501   1800754   1800867  
  7580.000000   1800833   1800692   1800530   1800440   1800505  
  7570.000000   1800764   1801213   1801798   1802449   1803088  
  7560.000000   1803661   1804135   1804507   1804784   1804983  
  7550.000000   1805121   1805221   1805307   1805419   1805595  
  7540.000000   1805879   1806293   1806841   1807490   1808181  
  7530.000000   1808841   1809403   1809824   1810101   1810271  
  7520.000000   1810405   1810589   1810900   1811389   1812068  
  7510.000000   1812905   1813843   1814811   1815753   1816633  
  7500.000000   1817444   1818198   1818913   1819597   1820244  
  7490.000000   1820833   1821356   1821820   1822275   1822796  
  7480.000000   1823478   1824390   1825560   1826945   1828450  
  7470.000000   1829943   1831306   1832462   1833412   1834216  
  7460.000000   1834983   1835824   1836825   1838023   1839401  
  7450.000000   1840903   1842468   1844038   1845580   1847077  
  7440.000000   1848526   1849919   1851248   1852489   1853625  
  7430.000000   1854642   1855560   1856420   1857294   1858267  
  7420.000000   1859420   1860818   1862490   1864424   1866562  
  7410.000000   1868820   1871099   1873303   1875354   1877200  
  7400.000000   1878820   1880218   1881422   1882476   1883444  
  7390.000000   1884403   1885433   1886605   1887958   1889493  
  7380.000000   1891155   1892857   1894495   1895988   1897302  
  7370.000000   1898460   1899528   1900588   1901702   1902892  
  7360.000000   1904138   1905394   1906626   1907832   1909052  
  7350.000000   1910361   1911827   1913483   1915290   1917156  
  7340.000000   1918955   1920577   1921962   1923110   1924082  
  7330.000000   1924961   1925821   1926705   1927623   1928561  
  7320.000000   1929503   1930450   1931422   1932448   1933552  
  7310.000000   1934728   1935947   1937160   1938323   1939417  
  7300.000000   1940465   1941527   1942682   1944000   1945516  
  7290.000000   1947215   1949034   1950875   1952633   1954221  
  7280.000000   1955591   1956738   1957700   1958540   1959327  
  7270.000000   1960121   1960958   1961851   1962794   1963777  
  7260.000000   1964796   1965850   1966943   1968066   1969201  
  7250.000000   1970301   1971330   1972254   1973094   1973904  
  7240.000000   1974798   1975885   1977268   1978977   1980988  
  7230.000000   1983211   1985550   1987919   1990297   1992708  
  7220.000000   1995223   1997901   2000778   2003820   2006955  
  7210.000000   2010069   2013069   2015883   2018513   2020990  
  7200.000000   2023397   2025805   2028285   2030876   2033604  
  7190.000000   2036475   2039498   2042664   2045969   2049378  
  7180.000000   2052856   2056342   2059791   2063152   2066406  
  7170.000000   2069542   2072594   2075598   2078629   2081752  
  7160.000000   2085050   2088572   2092358   2096404   2100685  
  7150.000000   2105140   2109714   2114338   2118983   2123625  
  7140.000000   2128285   2132973   2137722   2142524   2147384  
  7130.000000   2152278   2157212   2162185   2167243   2172425  
  7120.000000   2177794   2183379   2189200   2195227   2201416  
  7110.000000   2207692   2213991   2220251   2226452   2232586  
  7100.000000   2238689   2244797   2250959   2257198   2263517  
  7090.000000   2269883   2276255   2282584   2288843   2295031  
  7080.000000   2301173   2307312   2313485   2319710   2325981  
  7070.000000   2332270   2338546   2344780   2350961   2357089  
  7060.000000   2363166   2369185   2375132   2380991   2386762  
  7050.000000   2392475   2398183   2403958   2409855   2415897  
  7040.000000   2422050   2428243   2434382   2440389   2446219  
  7030.000000   2451878   2457405   2462861   2468292   2473737  
  7020.000000   2479204   2484698   2490209   2495732   2501242  
  7010.000000   2506710   2512078   2517297   2522321   2527150  
  7000.000000   2531814   2536385   2540925   2545483   2550052  
  6990.000000   2554593   2559030   2563316   2567422   2571380  
  6980.000000   2575227   2579022   2582778   2586495   2590132  
  6970.000000   2593672   2597104   2600470   2603801   2607136  
  6960.000000   2610452   2613695   2616767   2619587   2622105  
  6950.000000   2624346   2626379   2628308   2630213   2632142  
  6940.000000   2634085   2636018   2637901   2639734   2641536  
  6930.000000   2643354   2645218   2647144   2649100   2651047  
  6920.000000   2652933   2654741   2656474   2658167   2659854  
  6910.000000   2661554   2663251   2664914   2666491   2667945  
  6900.000000   2669253   2670420   2671467   2672429   2673341  
  6890.000000   2674245   2675176   2676172   2677253   2678425  
  6880.000000   2679664   2680924   2682144   2683270   2684264  
  6870.000000   2685121   2685857   2686513   2687129   2687747  
  6860.000000   2688399   2689122   2689946   2690901   2691994  
  6850.000000   2693209   2694488   2695754   2696917   2697917  
  6840.000000   2698732   2699393   2699962   2700513   2701093  
  6830.000000   2701715   2702353   2702969   2703528   2704023  
  6820.000000   2704468   2704895   2705319   2705740   2706125  
  6810.000000   2706440   2706653   2706768   2706809   2706829  
  6800.000000   2706876   2706988   2707170   2707407   2707662  
  6790.000000   2707897   2708072   2708152   2708109   2707920  
  6780.000000   2707579   2707105   2706544   2705970   2705462  
  6770.000000   2705087   2704876   2704815   2704857   2704941  
  6760.000000   2705016   2705065   2705099   2705153   2705265  
  6750.000000   2705451   2705702   2705984   2706252   2706469  
  6740.000000   2706610   2706671   2706664   2706613   2706547  
  6730.000000   2706495   2706485   2706535   2706641   2706777  
  6720.000000   2706890   2706915   2706795   2706508   2706074  
  6710.000000   2705569   2705089   2704735   2704564   2704584  
  6700.000000   2704740   2704949   2705109   2705153   2705038  
  6690.000000   2704775   2704394   2703946   2703472   2703011  
  6680.000000   2702578   2702178   2701795   2701399   2700939  
  6670.000000   2700362   2699612   2698662   2697507   2696191  
  6660.000000   2694778   2693356   2691993   2690740   2689610  
  6650.000000   2688587   2687631   2686700   2685749   2684756  
  6640.000000   2683701   2682592   2681440   2680273   2679116  
  6630.000000   2677990   2676900   2675830   2674746   2673605  
  6620.000000   2672365   2671004   2669521   2667942   2666302  
  6610.000000   2664639   2662981   2661348   2659747   2658189  
  6600.000000   2656679   2655220   2653799   2652387   2650938  
  6590.000000   2649405   2647759   2646004   2644182   2642360  
  6580.000000   2640601   2638944   2637381   2635865   2634331  
  6570.000000   2632723   2631026   2629267   2627506   2625811  
  6560.000000   2624228   2622762   2621383   2620038   2618674  
  6550.000000   2617260   2615789   2614277   2612744   2611211  
  6540.000000   2609687   2608182   2606703   2605263   2603873  
  6530.000000   2602536   2601241   2599959   2598652   2597292  
  6520.000000   2595865   2594384   2592881   2591392   2589947  
  6510.000000   2588556   2587215   2585908   2584624   2583361  
  6500.000000   2582127   2580933   2579782   2578665   2577558  
  6490.000000   2576437   2575276   2574068   2572814   2571527  
  6480.000000   2570222   2568908   2567588   2566259   2564915  
  6470.000000   2563551   2562162   2560747   2559307   2557852  
  6460.000000   2556399   2554975   2553608   2552318   2551109  
  6450.000000   2549960   2548832   2547681   2546480   2545225  
  6440.000000   2543953   2542712   2541560   2540521   2539589  
  6430.000000   2538718   2537853   2536943   2535974   2534969  
  6420.000000   2533986   2533091   2532344   2531774   2531381  
  6410.000000   2531138   2531008   2530946   2530911   2530858  
  6400.000000   2530753   2530563   2530278   2529909   2529491  
  6390.000000   2529074   2528701   2528390   2528129   2527872  
  6380.000000   2527565   2527163   2526652   2526057   2525423  
  6370.000000   2524809   2524248   2523751   2523304   2522881  
  6360.000000   2522465   2522058   2521676   2521337   2521047  
  6350.000000   2520791   2520529   2520222   2519833   2519355  
  6340.000000   2518803   2518211   2517610   2517025   2516458  
  6330.000000   2515897   2515318   2514701   2514023   2513277  
  6320.000000   2512452   2511555   2510589   2509574   2508532  
  6310.000000   2507493   2506473   2505483   2504503   2503507  
  6300.000000   2502459   2501337   2500133   2498866   2497561  
  6290.000000   2496247   2494935   2493623   2492294   2490934  
  6280.000000   2489537   2488116   2486692   2485296   2483944  
  6270.000000   2482643   2481382   2480145   2478910   2477659  
  6260.000000   2476371   2475025   2473598   2472071   2470437  
  6250.000000   2468715   2466946   2465192   2463510   2461937  
  6240.000000   2460474   2459086   2457715   2456303   2454815  
  6230.000000   2453246   2451623   2449984   2448363   2446775  
  6220.000000   2445217   2443671   2442120   2440558   2438996  
  6210.000000   2437452   2435946   2434486   2433072   2431690  
  6200.000000   2430325   2428963   2427597   2426224   2424847  
  6190.000000   2423471   2422111   2420780   2419500   2418288  
  6180.000000   2417154   2416086   2415058   2414032   2412974  
  6170.000000   2411863   2410708   2409536   2408390   2407306  
  6160.000000   2406303   2405373   2404490   2403622   2402744  
  6150.000000   2401845   2400932   2400015   2399104   2398199  
  6140.000000   2397295   2396381   2395456   2394523   2393595  
  6130.000000   2392683   2391794   2390927   2390079   2389250  
  6120.000000   2388453   2387706   2387036   2386456   2385966  
  6110.000000   2385547   2385170   2384806   2384446   2384095  
  6100.000000   2383785   2383543   2383394   2383332   2383337  
  6090.000000   2383366   2383380   2383347   2383264   2383141  
  6080.000000   2383016   2382924   2382909   2382995   2383203  
  6070.000000   2383530   2383966   2384479   2385044   2385626  
  6060.000000   2386218   2386819   2387462   2388180   2389023  
  6050.000000   2390012   2391160   2392442   2393830   2395281  
  6040.000000   2396777   2398302   2399873   2401503   2403216  
  6030.000000   2405015   2406903   2408865   2410893   2412970  
  6020.000000   2415095   2417254   2419443   2421645   2423855  
  6010.000000   2426058   2428265   2430480   2432727   2435019  
  6000.000000   2437371   2439777   2442235   2444732   2447268  
  5990.000000   2449840   2452464   2455144   2457888   2460684  
  5980.000000   2463526   2466391   2469272   2472165   2475082  
  5970.000000   2478033   2481039   2484102   2487230   2490412  
  5960.000000   2493645   2496913   2500214   2503537   2506885  
  5950.000000   2510256   2513664   2517122   2520655   2524285  
  5940.000000   2528029   2531889   2535851   2539889   2543968  
  5930.000000   2548059   2552133   2556174   2560162   2564071  
  5920.000000   2567861   2571483   2574885   2578030   2580905  
  5910.000000   2583526   2585936   2588197   2590369   2592515  
  5900.000000   2594681   2596911   2599229   2601666   2604223  
  5890.000000   2606902   2609673   2612508   2615363   2618205  
  5880.000000   2621009   2623758   2626439   2629029   2631497  
  5870.000000   2633802   2635917   2637828   2639564   2641180  
  5860.000000   2642758   2644375   2646087   2647919   2649868  
  5850.000000   2651914   2654038   2656229   2658493   2660837  
  5840.000000   2663269   2665777   2668346   2670951   2673580  
  5830.000000   2676227   2678904   2681621   2684384   2687180  
  5820.000000   2689992   2692791   2695561   2698293   2700991  
  5810.000000   2703664   2706308   2708919   2711474   2713972  
  5800.000000   2716411   2718837   2721282   2723811   2726424  
  5790.000000   2729124   2731823   2734436   2736813   2738839  
  5780.000000   2740373   2741330   2741624   2741231   2740146  
  5770.000000   2738441   2736215   2733639   2730876   2728109  
  5760.000000   2725456   2723009   2720776   2718755   2716900  
  5750.000000   2715197   2713621   2712178   2710859   2709649  
  5740.000000   2708513   2707405   2706283   2705116   2703903  
  5730.000000   2702655   2701405   2700174   2698986   2697843  
  5720.000000   2696747   2695688   2694662   2693661   2692682  
  5710.000000   2691717   2690767   2689833   2688929   2688076  
  5700.000000   2687295   2686602   2685994   2685453   2684947  
  5690.000000   2684445   2683924   2683388   2682851   2682345  
  5680.000000   2681887   2681487   2681116   2680733   2680266  
  5670.000000   2679648   2678804   2677680   2676236   2674461  
  5660.000000   2672373   2670026   2667495   2664877   2662261  
  5650.000000   2659721   2657296   2654997   2652809   2650715  
  5640.000000   2648697   2646757   2644898   2643127   2641441  
  5630.000000   2639825   2638261   2636731   2635240   2633796  
  5620.000000   2632431   2631160   2629996   2628920   2627908  
  5610.000000   2626924   2625954   2624992   2624058   2623173  
  5600.000000   2622356   2621608   2620918   2620260   2619615  
  5590.000000   2618969   2618321   2617673   2617028   2616380  
  5580.000000   2615717   2615027   2614304   2613551   2612781  
  5570.000000   2612008   2611241   2610475   2609697   2608891  
  5560.000000   2608046   2607164   2606252   2605330   2604408  
  5550.000000   2603494   2602585   2601677   2600762   2599840  
  5540.000000   2598912   2597981   2597044   2596097   2595135  
  5530.000000   2594159   2593180   2592217   2591287   2590400  
  5520.000000   2589549   2588716   2587871   2586992   2586065  
  5510.000000   2585095   2584093   2583072   2582038   2580991  
  5500.000000   2579922   2578834   2577732   2576637   2575560  
  5490.000000   2574503   2573441   2572338   2571147   2569842  
  5480.000000   2568418   2566907   2565358   2563823   2562332  
  5470.000000   2560893   2559482   2558070   2556629   2555150  
  5460.000000   2553633   2552090   2550517   2548904   2547231  
  5450.000000   2545482   2543656   2541776   2539881   2538015  
  5440.000000   2536211   2534483   2532833   2531252   2529742  
  5430.000000   2528300   2526931   2525621   2524345   2523058  
  5420.000000   2521729   2520340   2518931   2517564   2516343  
  5410.000000   2515339   2514599   2514093   2513768   2513535  
  5400.000000   2513344   2513159   2513005   2512909   2512927  
  5390.000000   2513075   2513374   2513802   2514371   2515076  
  5380.000000   2515956   2517022   2518310   2519792   2521459  
  5370.000000   2523248   2525144   2527104   2529155   2531288  
  5360.000000   2533564   2535983   2538613   2541463   2544624  
  5350.000000   2548121   2552055   2556430   2561302   2566607  
  5340.000000   2572350   2578442   2584915   2591724   2598958  
  5330.000000   2606598   2614729   2623302   2632371   2641866  
  5320.000000   2651868   2662351   2673455   2685189   2697704  
  5310.000000   2710975   2725096   2739980   2755683   2772112  
  5300.000000   2789341   2807320   2826169   2845872   2866556  
  5290.000000   2888188   2910833   2934375   2958777   2983854  
  5280.000000   3009546   3035724   3062432   3089675   3117583  
  5270.000000   3146185   3175511   3205429   3235757   3266249  
  5260.000000   3296703   3327011   3357159   3387231   3417281  
  5250.000000   3447339   3477271   3506911   3535958   3564245  
  5240.000000   3591580   3618019   3643582   3668479   3692763  
  5230.000000   3716578   3739834   3762514   3784402   3805438  
  5220.000000   3825448   3844495   3862547   3879795   3896280  
  5210.000000   3912192   3927498   3942262   3956321   3969653  
  5200.000000   3982085   3993669   4004346   4014275   4023460  
  5190.000000   4032049   4039994   4047361   4054045   4060097  
  5180.000000   4065445   4070185   4074289   4077856   4080835  
  5170.000000   4083282   4085119   4086399   4087079   4087250  
  5160.000000   4086902   4086126   4084890   4083244   4081137  
  5150.000000   4078620   4075674   4072384   4068755   4064863  
  5140.000000   4060682   4056245   4051505   4046491   4041191  
  5130.000000   4035670   4029951   4024102   4018129   4012065  
  5120.000000   4005892   3999629   3993272   3986862   3980417  
  5110.000000   3973979   3967556   3961162   3954789   3948443  
  5100.000000   3942124   3935849   3929630   3923477   3917383  
  5090.000000   3911337   3905317   3899312   3893314   3887330  
  5080.000000   3881366   3875426   3869499   3863574   3857627  
  5070.000000   3851650   3845635   3839594   3833531   3827454  
  5060.000000   3821351   3815210   3809001   3802717   3796344  
  5050.000000   3789900   3783392   3776839   3770235   3763578  
  5040.000000   3756842   3750017   3743094   3736087   3729018  
  5030.000000   3721920   3714818   3707733   3700668   3693624  
  5020.000000   3686598   3679590   3672615   3665686   3658831  
  5010.000000   3652067   3645422   3638906   3632541   3626326  
  5000.000000   3620282   3614399   3608695   3603154   3597798  
  4990.000000   3592614   3587634   3582853   3578313   3574008  
  4980.000000   3569975   3566197   3562704   3559473   3556544  
  4970.000000   3553897   3551580   3549572   3547911   3546559  
  4960.000000   3545539   3544803   3544383   3544248   3544456  
  4950.000000   3544997   3545935   3547249   3548981   3551081  
  4940.000000   3553568   3556384   3559553   3563033   3566870  
  4930.000000   3571036   3575585   3580489   3585792   3591460  
  4920.000000   3597530   3603963   3610787   3617961   3625502  
  4910.000000   3633366   3641556   3650027   3658773   3667748  
  4900.000000   3676933   3686286   3695784   3705391   3715081  
  4890.000000   3724826   3734586   3744322   3753963   3763457  
  4880.000000   3772711   3781680   3790280   3798491   3806243  
  4870.000000   3813532   3820287   3826505   3832117   3837141  
  4860.000000   3841541   3845373   3848637   3851413   3853704  
  4850.000000   3855581   3857038   3858139   3858891   3859376  
  4840.000000   3859630   3859745   3859759   3859740   3859697  
  4830.000000   3859661   3859626   3859610   3859616   3859664  
  4820.000000   3859767   3859936   3860174   3860475   3860835  
  4810.000000   3861242   3861703   3862217   3862802   3863466  
  4800.000000   3864229   3865098   3866093   3867217   3868486  
  4790.000000   3869896   3871449   3873122   3874898   3876742  
  4780.000000   3878633   3880546   3882480   3884432   3886413  
  4770.000000   3888427   3890473   3892537   3894601   3896640  
  4760.000000   3898635   3900574   3902451   3904270   3906035  
  4750.000000   3907754   3909429   3911062   3912647   3914180  
  4740.000000   3915655   3917069   3918422   3919718   3920965  
  4730.000000   3922174   3923356   3924522   3925678   3926825  
  4720.000000   3927965   3929092   3930215   3931337   3932483  
  4710.000000   3933671   3934937   3936302   3937800   3939442  
  4700.000000   3941247   3943214   3945355   3947665   3950155  
  4690.000000   3952821   3955669   3958688   3961867   3965171  
  4680.000000   3968563   3971982   3975377   3978684   3981871  
  4670.000000   3984905   3987803   3990580   3993290   3995978  
  4660.000000   3998700   4001496   4004403   4007447   4010654  
  4650.000000   4014043   4017631   4021431   4025438   4029635  
  4640.000000   4033979   4038423   4042900   4047355   4051731  
  4630.000000   4055992   4060103   4064048   4067803   4071355  
  4620.000000   4074672   4077735   4080507   4082976   4085118  
  4610.000000   4086955   4088493   4089794   4090892   4091864  
  4600.000000   4092738   4093567   4094339   4095065   4095695  
  4590.000000   4096217   4096572   4096748   4096698   4096421  
  4580.000000   4095883   4095089   4094018   4092691   4091110  
  4570.000000   4089321   4087354   4085270   4083102   4080896  
  4560.000000   4078658   4076402   4074103   4071755   4069326  
  4550.000000   4066813   4064203   4061509   4058740   4055920  
  4540.000000   4053072   4050223   4047396   4044607   4041867  
  4530.000000   4039173   4036519   4033882   4031257   4028623  
  4520.000000   4025996   4023372   4020796   4018279   4015882  
  4510.000000   4013615   4011551   4009698   4008145   4006910  
  4500.000000   4006097   4005720   4005882   4006579   4007897  
  4490.000000   4009812   4012407   4015653   4019636   4024324  
  4480.000000   4029794   4035994   4042974   4050658   4059077  
  4470.000000   4068144   4077887   4088219   4099158   4110615  
  4460.000000   4122592   4134994   4147812   4160959   4174427  
  4450.000000   4188142   4202095   4216227   4230524   4244933  
  4440.000000   4259434   4273986   4288562   4303134   4317670  
  4430.000000   4332154   4346544   4360834   4374973   4388959  
  4420.000000   4402728   4416275   4429517   4442433   4454914  
  4410.000000   4466913   4478299   4489019   4498955   4508087  
  4400.000000   4516361   4523833   4530535   4536602   4542129  
  4390.000000   4547286   4552182   4556974   4561738   4566580  
  4380.000000   4571523   4576606   4581806   4587128   4592541  
  4370.000000   4598059   4603683   4609450   4615378   4621493  
  4360.000000   4627786   4634246   4640809   4647439   4654033  
  4350.000000   4660561   4666913   4673089   4679006   4684719  
  4340.000000   4690184   4695473   4700510   4705232   4709362  
  4330.000000   4712565   4714331   4714192   4711725   4706776  
  4320.000000   4699461   4690254   4679848   4669092   4658764  
  4310.000000   4649503   4641661   4635360   4630488   4626838  
  4300.000000   4624158   4622239   4620943   4620177   4619916  
  4290.000000   4620110   4620765   4621822   4623286   4625102  
  4280.000000   4627265   4629716   4632409   4635275   4638236  
  4270.000000   4641237   4644206   4647093   4649785   4652137  
  4260.000000   4653906   4654819   4654567   4652926   4649772  
  4250.000000   4645182   4639378   4632752   4625726   4618749  
  4240.000000   4612143   4606151   4600832   4596177   4592057  
  4230.000000   4588340   4584869   4581514   4578177   4574783  
  4220.000000   4571316   4567764   4564194   4560653   4557266  
  4210.000000   4554107   4551301   4548898   4546971   4545519  
  4200.000000   4544555   4544026   4543907   4544118   4544615  
  4190.000000   4545311   4546169   4547108   4548114   4549129  
  4180.000000   4550168   4551196   4552256   4553342   4554528  
  4170.000000   4555841   4557386   4559210   4561418   4564039  
  4160.000000   4567139   4570694   4574722   4579161   4584018  
  4150.000000   4589235   4594843   4600808   4607186   4613957  
  4140.000000   4621189   4628854   4637016   4645637   4654767  
  4130.000000   4664349   4674417   4684906   4695844   4707178  
  4120.000000   4718955   4731150   4743836   4757013   4770759  
  4110.000000   4785072   4800007   4815529   4831638   4848251  
  4100.000000   4865311   4882698   4900330   4918105   4935967  
  4090.000000   4953870   4971799   4989747   5007706   5025680  
  4080.000000   5043641   5061585   5079464   5097267   5114911  
  4070.000000   5132360   5149484   5166225   5182443   5198113  
  4060.000000   5213142   5227572   5241354   5254559   5267136  
  4050.000000   5279149   5290536   5301373   5311611   5321340  
  4040.000000   5330499   5339150   5347190   5354649   5361413  
  4030.000000   5367534   5372940   5377709   5381803   5385288  
  4020.000000   5388097   5390298   5391889   5392957   5393473  
  4010.000000   5393563   5393291   5392644   5391378   5389509  
  4000.000000   5387332  
##END= 
