##TITLE= Sample 017 By ssteindl date Dienstag, November 20 2018
##JCAMP-DX= 4.24
##DATA TYPE= INFRARED SPECTRUM
##ORIGIN= Exported PE Spectrum Data File
##OWNER= Sandra Steindl
##DATE= 18/11/20
##TIME= 16:24:30.00
##SPECTROMETER/DATA SYSTEM= PERKIN-ELMER Frontier FT-IR/NIR IR
##INSTRUMENT PARAMETERS=
  APODIZATION=stark
  DETECTOR=INGAAS
##RESOLUTION= 16.000000
##DELTAX= -2.000000
##XUNITS= 1/CM
##YUNITS= A
##XFACTOR= 1.00
##YFACTOR= 0.00000011920928955078
##FIRSTX= 10000.00
##LASTX= 4000.00
##NPOINTS= 3001
##FIRSTY= 0.246494
##MAXY= 0.607604
##MINY= 0.192665
##XYDATA= (X++(Y..Y))
 10000.000000   2067739   2073005   2078952   2085914   2092695  
  9990.000000   2097703   2100360   2101087   2100254   2097902  
  9980.000000   2094037   2088784   2082300   2075063   2067928  
  9970.000000   2062064   2058339   2057160   2058213   2060710  
  9960.000000   2063672   2066386   2068530   2070149   2071342  
  9950.000000   2072006   2071762   2070095   2066774   2062103  
  9940.000000   2057091   2053109   2051378   2052391   2055543  
  9930.000000   2059377   2062038   2062187   2059442   2054642  
  9920.000000   2049366   2045282   2043402   2043662   2045062  
  9910.000000   2046040   2045246   2041893   2036055   2028397  
  9900.000000   2019856   2011318   2003413   1996662   1991544  
  9890.000000   1988657   1988583   1991631   1997571   2005459  
  9880.000000   2013773   2020802   2025094   2025904   2023354  
  9870.000000   2018302   2012119   2006175   2001667   1999260  
  9860.000000   1999113   2000793   2003378   2005616   2006205  
  9850.000000   2004201   1999382   1992471   1985011   1978960  
  9840.000000   1976007   1976972   1981439   1987909   1994368  
  9830.000000   1999086   2001274   2001325   2000483   2000216  
  9820.000000   2001450   2004165   2007452   2009942   2010511  
  9810.000000   2008711   2004963   2000245   1995608   1991746  
  9800.000000   1988741   1986288   1983970   1981663   1979600  
  9790.000000   1978237   1977903   1978532   1979584   1980295  
  9780.000000   1980027   1978614   1976445   1974267   1972837  
  9770.000000   1972539   1973249   1974419   1975379   1975664  
  9760.000000   1975201   1974263   1973270   1972477   1971870  
  9750.000000   1971145   1969960   1968122   1965746   1963165  
  9740.000000   1960781   1958851   1957426   1956430   1955800  
  9730.000000   1955673   1956332   1958138   1961195   1965266  
  9720.000000   1969640   1973447   1975885   1976625   1975866  
  9710.000000   1974221   1972415   1970859   1969543   1967924  
  9700.000000   1965271   1960879   1954430   1946095   1936506  
  9690.000000   1926623   1917462   1910030   1905114   1903328  
  9680.000000   1904908   1909676   1916882   1925275   1933293  
  9670.000000   1939421   1942624   1942575   1939799   1935345  
  9660.000000   1930526   1926350   1923367   1921512   1920346  
  9650.000000   1919317   1918018   1916373   1914551   1912892  
  9640.000000   1911678   1911071   1911048   1911452   1912044  
  9630.000000   1912532   1912635   1912103   1910841   1908965  
  9620.000000   1906878   1905208   1904639   1905668   1908338  
  9610.000000   1912162   1916189   1919337   1920730   1920056  
  9600.000000   1917630   1914290   1911040   1908673   1907518  
  9590.000000   1907347   1907563   1907425   1906348   1904044  
  9580.000000   1900547   1896170   1891346   1886605   1882457  
  9570.000000   1879414   1877889   1878118   1880045   1883249  
  9560.000000   1886994   1890394   1892625   1893170   1891941  
  9550.000000   1889274   1885844   1882376   1879540   1877680  
  9540.000000   1876871   1876856   1877188   1877320   1876733  
  9530.000000   1875096   1872379   1868977   1865652   1863409  
  9520.000000   1863132   1865298   1869659   1875302   1880853  
  9510.000000   1884984   1886844   1886350   1884159   1881338  
  9500.000000   1878910   1877403   1876667   1875945   1874258  
  9490.000000   1870866   1865623   1859091   1852292   1846365  
  9480.000000   1842119   1839869   1839383   1840099   1841335  
  9470.000000   1842482   1843092   1842889   1841757   1839748  
  9460.000000   1837128   1834359   1832089   1830921   1831260  
  9450.000000   1833028   1835647   1838121   1839368   1838616  
  9440.000000   1835724   1831292   1826470   1822546   1820470  
  9430.000000   1820540   1822330   1824906   1827172   1828254  
  9420.000000   1827752   1825835   1823095   1820326   1818182  
  9410.000000   1817024   1816840   1817328   1818068   1818608  
  9400.000000   1818643   1817991   1816651   1814731   1812389  
  9390.000000   1809804   1807125   1804527   1802218   1800440  
  9380.000000   1799462   1799491   1800621   1802731   1805448  
  9370.000000   1808183   1810252   1811077   1810386   1808304  
  9360.000000   1805354   1802296   1799918   1798780   1799039  
  9350.000000   1800414   1802286   1803945   1804797   1804565  
  9340.000000   1803315   1801405   1799333   1797556   1796364  
  9330.000000   1795767   1795578   1795439   1795050   1794191  
  9320.000000   1792857   1791206   1789539   1788221   1787566  
  9310.000000   1787819   1789063   1791283   1794328   1798011  
  9300.000000   1802069   1806250   1810259   1813819   1816649  
  9290.000000   1818506   1819226   1818706   1816971   1814087  
  9280.000000   1810215   1805517   1800229   1794617   1789018  
  9270.000000   1783823   1779394   1776073   1774040   1773379  
  9260.000000   1773996   1775740   1778405   1781804   1785743  
  9250.000000   1789973   1794140   1797764   1800336   1801451  
  9240.000000   1800983   1799147   1796483   1793715   1791502  
  9230.000000   1790226   1789800   1789749   1789381   1788079  
  9220.000000   1785514   1781713   1776994   1771796   1766492  
  9210.000000   1761300   1756272   1751430   1746911   1743084  
  9200.000000   1740499   1739686   1740917   1744037   1748469  
  9190.000000   1753283   1757470   1760167   1760969   1759940  
  9180.000000   1757599   1754667   1751898   1749924   1749154  
  9170.000000   1749729   1751504   1754136   1757156   1760052  
  9160.000000   1762299   1763456   1763236   1761594   1758698  
  9150.000000   1754892   1750613   1746350   1742589   1739748  
  9140.000000   1738083   1737692   1738448   1740025   1741874  
  9130.000000   1743385   1744029   1743510   1741847   1739322  
  9120.000000   1736434   1733661   1731371   1729644   1728383  
  9110.000000   1727345   1726361   1725382   1724529   1724028  
  9100.000000   1724071   1724771   1726058   1727796   1729807  
  9090.000000   1731996   1734342   1736877   1739605   1742382  
  9080.000000   1744896   1746704   1747388   1746643   1744409  
  9070.000000   1740877   1736481   1731769   1727244   1723320  
  9060.000000   1720226   1718092   1716884   1716519   1716843  
  9050.000000   1717687   1718837   1720049   1721053   1721585  
  9040.000000   1721431   1720452   1718653   1716180   1713383  
  9030.000000   1710695   1708613   1707503   1707548   1708613  
  9020.000000   1710283   1711941   1712968   1712949   1711805  
  9010.000000   1709856   1707710   1706113   1705687   1706777  
  9000.000000   1709332   1712972   1717102   1721067   1724311  
  8990.000000   1726452   1727340   1727002   1725591   1723329  
  8980.000000   1720494   1717388   1714331   1711630   1709560  
  8970.000000   1708320   1707974   1708474   1709600   1711074  
  8960.000000   1712520   1713632   1714184   1714137   1713632  
  8950.000000   1712944   1712416   1712289   1712625   1713212  
  8940.000000   1713628   1713365   1712034   1709524   1706093  
  8930.000000   1702323   1698957   1696655   1695765   1696222  
  8920.000000   1697578   1699189   1700426   1700902   1700575  
  8910.000000   1699723   1698815   1698320   1698564   1699610  
  8900.000000   1701282   1703200   1704922   1706035   1706271  
  8890.000000   1705581   1704155   1702400   1700826   1699929  
  8880.000000   1700047   1701233   1703226   1705473   1707312  
  8870.000000   1708144   1707644   1705854   1703177   1700256  
  8860.000000   1697780   1696319   1696174   1697352   1699590  
  8850.000000   1702487   1705603   1708561   1711058   1712906  
  8840.000000   1714006   1714364   1714048   1713200   1712019  
  8830.000000   1710704   1709434   1708306   1707352   1706526  
  8820.000000   1705741   1704889   1703874   1702633   1701151  
  8810.000000   1699477   1697738   1696132   1694907   1694313  
  8800.000000   1694524   1695600   1697449   1699860   1702552  
  8790.000000   1705259   1707808   1710105   1712141   1713886  
  8780.000000   1715296   1716238   1716579   1716216   1715185  
  8770.000000   1713680   1712032   1710637   1709842   1709887  
  8760.000000   1710824   1712566   1714867   1717425   1719879  
  8750.000000   1721899   1723206   1723642   1723213   1722112  
  8740.000000   1720703   1719420   1718647   1718569   1719104  
  8730.000000   1719921   1720556   1720612   1719898   1718526  
  8720.000000   1716847   1715326   1714348   1714078   1714424  
  8710.000000   1715077   1715688   1715974   1715838   1715351  
  8700.000000   1714694   1714072   1713650   1713550   1713862  
  8690.000000   1714663   1716013   1717896   1720176   1722565  
  8680.000000   1724678   1726118   1726636   1726212   1725106  
  8670.000000   1723730   1722527   1721782   1721558   1721702  
  8660.000000   1721964   1722140   1722187   1722249   1722578  
  8650.000000   1723402   1724799   1726643   1728653   1730486  
  8640.000000   1731887   1732744   1733140   1733254   1733322  
  8630.000000   1733526   1733997   1734804   1735997   1737597  
  8620.000000   1739608   1741959   1744506   1747024   1749279  
  8610.000000   1751095   1752420   1753362   1754148   1755058  
  8600.000000   1756312   1758032   1760201   1762712   1765392  
  8590.000000   1768077   1770609   1772845   1774634   1775836  
  8580.000000   1776355   1776183   1775433   1774333   1773186  
  8570.000000   1772285   1771818   1771843   1772266   1772938  
  8560.000000   1773696   1774465   1775243   1776093   1777059  
  8550.000000   1778128   1779207   1780150   1780830   1781177  
  8540.000000   1781229   1781096   1780934   1780869   1780976  
  8530.000000   1781265   1781710   1782278   1782955   1783736  
  8520.000000   1784619   1785561   1786492   1787317   1787972  
  8510.000000   1788449   1788820   1789216   1789786   1790649  
  8500.000000   1791847   1793359   1795104   1797009   1799015  
  8490.000000   1801098   1803241   1805396   1807459   1809249  
  8480.000000   1810553   1811179   1811030   1810151   1808728  
  8470.000000   1807077   1805572   1804574   1804331   1804955  
  8460.000000   1806379   1808390   1810642   1812760   1814407  
  8450.000000   1815379   1815621   1815257   1814550   1813815  
  8440.000000   1813343   1813300   1813714   1814454   1815296  
  8430.000000   1815991   1816356   1816323   1815938   1815355  
  8420.000000   1814758   1814334   1814192   1814382   1814873  
  8410.000000   1815607   1816502   1817483   1818473   1819403  
  8400.000000   1820204   1820789   1821071   1820958   1820409  
  8390.000000   1819417   1818042   1816398   1814643   1812976  
  8380.000000   1811580   1810631   1810240   1810482   1811359  
  8370.000000   1812803   1814650   1816660   1818535   1819956  
  8360.000000   1820646   1820425   1819302   1817475   1815317  
  8350.000000   1813268   1811730   1810954   1810952   1811529  
  8340.000000   1812318   1812954   1813169   1812907   1812292  
  8330.000000   1811575   1810993   1810667   1810535   1810374  
  8320.000000   1809911   1808928   1807372   1805380   1803235  
  8310.000000   1801264   1799712   1798675   1798075   1797723  
  8300.000000   1797401   1796942   1796285   1795454   1794542  
  8290.000000   1793636   1792796   1792044   1791385   1790840  
  8280.000000   1790449   1790280   1790377   1790760   1791376  
  8270.000000   1792141   1792940   1793672   1794261   1794634  
  8260.000000   1794719   1794400   1793549   1792036   1789807  
  8250.000000   1786919   1783576   1780119   1776939   1774408  
  8240.000000   1772753   1772038   1772127   1772773   1773659  
  8230.000000   1774503   1775087   1775293   1775085   1774482  
  8220.000000   1773548   1772361   1771033   1769680   1768429  
  8210.000000   1767378   1766567   1765977   1765512   1765060  
  8200.000000   1764497   1763761   1762837   1761773   1760629  
  8190.000000   1759450   1758216   1756855   1755267   1753379  
  8180.000000   1751191   1748802   1746382   1744140   1742245  
  8170.000000   1740778   1739690   1738825   1737954   1736862  
  8160.000000   1735416   1733602   1731534   1729396   1727395  
  8150.000000   1725675   1724289   1723178   1722213   1721251  
  8140.000000   1720201   1719067   1717941   1716968   1716278  
  8130.000000   1715925   1715856   1715900   1715830   1715403  
  8120.000000   1714448   1712901   1710839   1708456   1706020  
  8110.000000   1703815   1702071   1700928   1700395   1700371  
  8100.000000   1700652   1700997   1701162   1700970   1700335  
  8090.000000   1699279   1697916   1696395   1694869   1693417  
  8080.000000   1692057   1690731   1689361   1687892   1686331  
  8070.000000   1684772   1683361   1682263   1681593   1681378  
  8060.000000   1681535   1681887   1682216   1682311   1682037  
  8050.000000   1681350   1680319   1679083   1677826   1676714  
  8040.000000   1675872   1675354   1675141   1675163   1675311  
  8030.000000   1675486   1675609   1675644   1675594   1675483  
  8020.000000   1675332   1675131   1674835   1674366   1673645  
  8010.000000   1672631   1671351   1669917   1668505   1667314  
  8000.000000   1666502   1666140   1666171   1666436   1666710  
  7990.000000   1666773   1666475   1665772   1664736   1663509  
  7980.000000   1662260   1661119   1660152   1659341   1658632  
  7970.000000   1657951   1657266   1656585   1655959   1655443  
  7960.000000   1655066   1654811   1654611   1654386   1654077  
  7950.000000   1653684   1653278   1652976   1652899   1653118  
  7940.000000   1653615   1654272   1654909   1655334   1655407  
  7930.000000   1655080   1654412   1653536   1652614   1651781  
  7920.000000   1651116   1650627   1650279   1650017   1649802  
  7910.000000   1649615   1649460   1649348   1649278   1649242  
  7900.000000   1649232   1649258   1649358   1649597   1650037  
  7890.000000   1650717   1651614   1652647   1653683   1654584  
  7880.000000   1655239   1655600   1655692   1655583   1655357  
  7870.000000   1655066   1654715   1654260   1653641   1652819  
  7860.000000   1651813   1650709   1649641   1648764   1648189  
  7850.000000   1647968   1648061   1648376   1648785   1649183  
  7840.000000   1649512   1649765   1649975   1650179   1650385  
  7830.000000   1650561   1650642   1650555   1650261   1649775  
  7820.000000   1649171   1648561   1648052   1647711   1647533  
  7810.000000   1647450   1647345   1647108   1646665   1646004  
  7800.000000   1645178   1644275   1643391   1642600   1641939  
  7790.000000   1641419   1641030   1640763   1640613   1640577  
  7780.000000   1640646   1640794   1640981   1641153   1641264  
  7770.000000   1641274   1641160   1640907   1640510   1639966  
  7760.000000   1639288   1638515   1637718   1637007   1636493  
  7750.000000   1636272   1636371   1636739   1637241   1637704  
  7740.000000   1637956   1637883   1637459   1636741   1635844  
  7730.000000   1634892   1633979   1633150   1632398   1631695  
  7720.000000   1631015   1630361   1629756   1629240   1628836  
  7710.000000   1628544   1628331   1628141   1627913   1627599  
  7700.000000   1627179   1626656   1626057   1625418   1624783  
  7690.000000   1624194   1623686   1623291   1623029   1622907  
  7680.000000   1622910   1623010   1623162   1623312   1623408  
  7670.000000   1623397   1623240   1622905   1622380   1621667  
  7660.000000   1620800   1619834   1618848   1617932   1617170  
  7650.000000   1616623   1616321   1616256   1616387   1616645  
  7640.000000   1616952   1617231   1617419   1617482   1617424  
  7630.000000   1617286   1617139   1617061   1617115   1617315  
  7620.000000   1617628   1617966   1618225   1618314   1618190  
  7610.000000   1617875   1617442   1616993   1616614   1616356  
  7600.000000   1616221   1616188   1616237   1616369   1616613  
  7590.000000   1617000   1617537   1618177   1618820   1619333  
  7580.000000   1619609   1619602   1619361   1619011   1618716  
  7570.000000   1618613   1618773   1619172   1619721   1620310  
  7560.000000   1620862   1621360   1621842   1622375   1623009  
  7550.000000   1623746   1624535   1625286   1625916   1626370  
  7540.000000   1626654   1626805   1626890   1626959   1627047  
  7530.000000   1627157   1627284   1627422   1627588   1627808  
  7520.000000   1628120   1628551   1629116   1629814   1630637  
  7510.000000   1631575   1632623   1633777   1635031   1636359  
  7500.000000   1637733   1639105   1640441   1641706   1642891  
  7490.000000   1643986   1644998   1645917   1646739   1647451  
  7480.000000   1648062   1648596   1649108   1649670   1650366  
  7470.000000   1651269   1652425   1653841   1655484   1657281  
  7460.000000   1659138   1660949   1662621   1664087   1665331  
  7450.000000   1666383   1667316   1668231   1669237   1670424  
  7440.000000   1671843   1673498   1675348   1677315   1679308  
  7430.000000   1681225   1682975   1684489   1685735   1686723  
  7420.000000   1687515   1688209   1688940   1689837   1691005  
  7410.000000   1692492   1694290   1696343   1698564   1700869  
  7400.000000   1703194   1705502   1707773   1709984   1712099  
  7390.000000   1714065   1715840   1717400   1718769   1720023  
  7380.000000   1721269   1722627   1724172   1725934   1727871  
  7370.000000   1729910   1731948   1733904   1735722   1737378  
  7360.000000   1738870   1740200   1741376   1742395   1743269  
  7350.000000   1744018   1744688   1745353   1746096   1747008  
  7340.000000   1748157   1749598   1751342   1753379   1755648  
  7330.000000   1758060   1760491   1762807   1764882   1766625  
  7320.000000   1768008   1769058   1769853   1770493   1771081  
  7310.000000   1771698   1772398   1773207   1774138   1775206  
  7300.000000   1776425   1777808   1779349   1781022   1782766  
  7290.000000   1784503   1786154   1787660   1788998   1790180  
  7280.000000   1791251   1792272   1793310   1794419   1795641  
  7270.000000   1796993   1798470   1800039   1801647   1803223  
  7260.000000   1804699   1806017   1807159   1808141   1809027  
  7250.000000   1809894   1810835   1811914   1813175   1814620  
  7240.000000   1816239   1818002   1819899   1821915   1824061  
  7230.000000   1826323   1828694   1831130   1833595   1836038  
  7220.000000   1838451   1840835   1843247   1845747   1848416  
  7210.000000   1851304   1854435   1857776   1861263   1864802  
  7200.000000   1868307   1871717   1875019   1878243   1881461  
  7190.000000   1884746   1888169   1891751   1895480   1899280  
  7180.000000   1903066   1906732   1910212   1913462   1916499  
  7170.000000   1919366   1922156   1924965   1927911   1931086  
  7160.000000   1934566   1938373   1942503   1946899   1951493  
  7150.000000   1956199   1960955   1965707   1970455   1975202  
  7140.000000   1979984   1984808   1989686   1994581   1999478  
  7130.000000   2004342   2009192   2014054   2019001   2024090  
  7120.000000   2029375   2034864   2040533   2046321   2052174  
  7110.000000   2058040   2063913   2069799   2075742   2081765  
  7100.000000   2087891   2094097   2100348   2106582   2112748  
  7090.000000   2118812   2124777   2130682   2136595   2142591  
  7080.000000   2148732   2155038   2161483   2167987   2174438  
  7070.000000   2180721   2186759   2192528   2198070   2203475  
  7060.000000   2208853   2214295   2219851   2225522   2231269  
  7050.000000   2237041   2242789   2248496   2254161   2259811  
  7040.000000   2265463   2271136   2276824   2282521   2288211  
  7030.000000   2293885   2299534   2305144   2310689   2316136  
  7020.000000   2321440   2326570   2331507   2336271   2340901  
  7010.000000   2345464   2350019   2354621   2359284   2364002  
  7000.000000   2368727   2373403   2377960   2382352   2386550  
  6990.000000   2390570   2394450   2398260   2402061   2405900  
  6980.000000   2409779   2413671   2417508   2421232   2424790  
  6970.000000   2428184   2431432   2434595   2437707   2440799  
  6960.000000   2443852   2446840   2449716   2452464   2455076  
  6950.000000   2457577   2459981   2462303   2464524   2466629  
  6940.000000   2468591   2470422   2472148   2473826   2475498  
  6930.000000   2477195   2478901   2480591   2482221   2483781  
  6920.000000   2485279   2486760   2488258   2489795   2491344  
  6910.000000   2492849   2494243   2495482   2496567   2497550  
  6900.000000   2498503   2499499   2500565   2501689   2502818  
  6890.000000   2503894   2504881   2505784   2506641   2507504  
  6880.000000   2508408   2509358   2510322   2511255   2512115  
  6870.000000   2512889   2513597   2514285   2515005   2515796  
  6860.000000   2516675   2517636   2518653   2519700   2520749  
  6850.000000   2521785   2522798   2523791   2524772   2525755  
  6840.000000   2526749   2527752   2528743   2529680   2530509  
  6830.000000   2531179   2531663   2531974   2532162   2532308  
  6820.000000   2532486   2532755   2533126   2533584   2534083  
  6810.000000   2534584   2535052   2535475   2535837   2536126  
  6800.000000   2536313   2536370   2536277   2536047   2535724  
  6790.000000   2535376   2535070   2534847   2534708   2534616  
  6780.000000   2534517   2534366   2534146   2533875   2533590  
  6770.000000   2533330   2533116   2532948   2532813   2532701  
  6760.000000   2532615   2532567   2532568   2532616   2532685  
  6750.000000   2532739   2532749   2532714   2532667   2532664  
  6740.000000   2532753   2532946   2533203   2533436   2533551  
  6730.000000   2533481   2533220   2532828   2532409   2532065  
  6720.000000   2531860   2531801   2531849   2531947   2532054  
  6710.000000   2532164   2532297   2532483   2532726   2533002  
  6700.000000   2533253   2533426   2533480   2533419   2533267  
  6690.000000   2533065   2532829   2532548   2532184   2531699  
  6680.000000   2531072   2530325   2529501   2528660   2527840  
  6670.000000   2527048   2526256   2525431   2524551   2523631  
  6660.000000   2522710   2521844   2521067   2520385   2519764  
  6650.000000   2519157   2518516   2517825   2517088   2516331  
  6640.000000   2515568   2514800   2513999   2513134   2512179  
  6630.000000   2511137   2510031   2508901   2507769   2506645  
  6620.000000   2505506   2504326   2503082   2501781   2500450  
  6610.000000   2499131   2497849   2496602   2495349   2494031  
  6600.000000   2492585   2490979   2489216   2487337   2485403  
  6590.000000   2483476   2481605   2479815   2478112   2476491  
  6580.000000   2474935   2473428   2471948   2470477   2469000  
  6570.000000   2467516   2466034   2464574   2463159   2461798  
  6560.000000   2460483   2459184   2457868   2456508   2455103  
  6550.000000   2453676   2452270   2450918   2449633   2448393  
  6540.000000   2447150   2445852   2444466   2442996   2441481  
  6530.000000   2439981   2438553   2437232   2436021   2434899  
  6520.000000   2433832   2432795   2431772   2430759   2429751  
  6510.000000   2428732   2427677   2426553   2425336   2424016  
  6500.000000   2422605   2421132   2419631   2418132   2416656  
  6490.000000   2415216   2413816   2412464   2411158   2409896  
  6480.000000   2408659   2407423   2406162   2404858   2403511  
  6470.000000   2402141   2400778   2399447   2398156   2396886  
  6460.000000   2395604   2394268   2392856   2391365   2389823  
  6450.000000   2388267   2386737   2385260   2383847   2382500  
  6440.000000   2381225   2380035   2378951   2377992   2377163  
  6430.000000   2376445   2375802   2375178   2374536   2373845  
  6420.000000   2373112   2372352   2371600   2370874   2370192  
  6410.000000   2369556   2368969   2368436   2367971   2367584  
  6400.000000   2367278   2367038   2366836   2366632   2366395  
  6390.000000   2366109   2365782   2365441   2365122   2364857  
  6380.000000   2364663   2364541   2364470   2364423   2364365  
  6370.000000   2364266   2364097   2363841   2363487   2363043  
  6360.000000   2362527   2361970   2361406   2360862   2360346  
  6350.000000   2359847   2359336   2358777   2358137   2357403  
  6340.000000   2356579   2355699   2354801   2353939   2353153  
  6330.000000   2352480   2351929   2351496   2351143   2350820  
  6320.000000   2350454   2349978   2349332   2348488   2347449  
  6310.000000   2346254   2344959   2343629   2342315   2341056  
  6300.000000   2339866   2338748   2337692   2336689   2335716  
  6290.000000   2334751   2333761   2332716   2331591   2330381  
  6280.000000   2329099   2327777   2326451   2325150   2323880  
  6270.000000   2322630   2321373   2320085   2318751   2317382  
  6260.000000   2315999   2314627   2313280   2311958   2310639  
  6250.000000   2309301   2307923   2306503   2305048   2303580  
  6240.000000   2302117   2300670   2299240   2297827   2296430  
  6230.000000   2295055   2293709   2292397   2291115   2289844  
  6220.000000   2288555   2287219   2285822   2284363   2282866  
  6210.000000   2281366   2279903   2278509   2277200   2275978  
  6200.000000   2274832   2273743   2272688   2271641   2270584  
  6190.000000   2269496   2268374   2267223   2266067   2264937  
  6180.000000   2263868   2262885   2261999   2261198   2260461  
  6170.000000   2259754   2259049   2258329   2257583   2256811  
  6160.000000   2256017   2255207   2254389   2253575   2252781  
  6150.000000   2252019   2251297   2250604   2249915   2249186  
  6140.000000   2248376   2247455   2246421   2245303   2244156  
  6130.000000   2243046   2242034   2241154   2240419   2239808  
  6120.000000   2239292   2238827   2238385   2237940   2237489  
  6110.000000   2237033   2236593   2236189   2235855   2235614  
  6100.000000   2235490   2235482   2235584   2235764   2235991  
  6090.000000   2236226   2236447   2236636   2236799   2236938  
  6080.000000   2237073   2237209   2237364   2237545   2237773  
  6070.000000   2238061   2238434   2238898   2239466   2240128  
  6060.000000   2240880   2241699   2242579   2243504   2244476  
  6050.000000   2245486   2246547   2247657   2248837   2250100  
  6040.000000   2251475   2252978   2254629   2256421   2258345  
  6030.000000   2260367   2262462   2264600   2266774   2268977  
  6020.000000   2271218   2273492   2275797   2278108   2280415  
  6010.000000   2282699   2284972   2287250   2289571   2291960  
  6000.000000   2294436   2296987   2299593   2302213   2304824  
  5990.000000   2307408   2309984   2312574   2315223   2317961  
  5980.000000   2320817   2323796   2326901   2330115   2333431  
  5970.000000   2336828   2340298   2343818   2347379   2350954  
  5960.000000   2354539   2358116   2361690   2365255   2368828  
  5950.000000   2372414   2376040   2379726   2383509   2387425  
  5940.000000   2391507   2395779   2400243   2404880   2409646  
  5930.000000   2414484   2419322   2424096   2428743   2433214  
  5920.000000   2437476   2441510   2445313   2448895   2452282  
  5910.000000   2455504   2458591   2461573   2464464   2467288  
  5900.000000   2470055   2472801   2475553   2478365   2481272  
  5890.000000   2484309   2487471   2490739   2494052   2497353  
  5880.000000   2500569   2503647   2506542   2509233   2511708  
  5870.000000   2513972   2516036   2517929   2519685   2521349  
  5860.000000   2522959   2524552   2526141   2527736   2529331  
  5850.000000   2530935   2532557   2534224   2535961   2537790  
  5840.000000   2539713   2541713   2543762   2545826   2547884  
  5830.000000   2549926   2551959   2553987   2556016   2558032  
  5820.000000   2560020   2561959   2563844   2565687   2567521  
  5810.000000   2569387   2571324   2573362   2575505   2577756  
  5800.000000   2580089   2582502   2584961   2587460   2589954  
  5790.000000   2592417   2594777   2596985   2598952   2600613  
  5780.000000   2601874   2602664   2602898   2602534   2601548  
  5770.000000   2599992   2597949   2595582   2593046   2590516  
  5760.000000   2588099   2585877   2583843   2581985   2580245  
  5750.000000   2578596   2577006   2575474   2573988   2572549  
  5740.000000   2571145   2569768   2568420   2567107   2565851  
  5730.000000   2564660   2563542   2562477   2561441   2560399  
  5720.000000   2559332   2558233   2557123   2556026   2554971  
  5710.000000   2553970   2553026   2552128   2551268   2550439  
  5700.000000   2549644   2548889   2548175   2547497   2546836  
  5690.000000   2546180   2545509   2544829   2544140   2543455  
  5680.000000   2542771   2542078   2541343   2540534   2539603  
  5670.000000   2538521   2537251   2535774   2534065   2532114  
  5660.000000   2529915   2527493   2524892   2522191   2519471  
  5650.000000   2516818   2514279   2511877   2509592   2507391  
  5640.000000   2505238   2503117   2501033   2499009   2497072  
  5630.000000   2495238   2493509   2491863   2490282   2488740  
  5620.000000   2487233   2485759   2484338   2482979   2481699  
  5610.000000   2480498   2479379   2478334   2477361   2476447  
  5600.000000   2475589   2474769   2473977   2473196   2472417  
  5590.000000   2471632   2470839   2470037   2469227   2468408  
  5580.000000   2467584   2466762   2465951   2465160   2464394  
  5570.000000   2463647   2462899   2462122   2461287   2460375  
  5560.000000   2459384   2458329   2457236   2456137   2455051  
  5550.000000   2453989   2452947   2451922   2450909   2449915  
  5540.000000   2448949   2448020   2447130   2446271   2445426  
  5530.000000   2444582   2443728   2442864   2441992   2441117  
  5520.000000   2440234   2439331   2438392   2437402   2436357  
  5510.000000   2435265   2434144   2433017   2431899   2430803  
  5500.000000   2429731   2428688   2427671   2426688   2425734  
  5490.000000   2424801   2423861   2422883   2421829   2420674  
  5480.000000   2419407   2418043   2416604   2415123   2413619  
  5470.000000   2412105   2410579   2409036   2407472   2405888  
  5460.000000   2404286   2402666   2401019   2399337   2397608  
  5450.000000   2395837   2394040   2392251   2390502   2388819  
  5440.000000   2387209   2385656   2384142   2382649   2381176  
  5430.000000   2379730   2378331   2376979   2375672   2374386  
  5420.000000   2373113   2371851   2370643   2369537   2368606  
  5410.000000   2367883   2367378   2367044   2366830   2366668  
  5400.000000   2366542   2366446   2366428   2366517   2366755  
  5390.000000   2367130   2367638   2368238   2368933   2369717  
  5380.000000   2370637   2371713   2372987   2374444   2376082  
  5370.000000   2377853   2379757   2381766   2383918   2386205  
  5360.000000   2388676   2391311   2394151   2397176   2400451  
  5350.000000   2403992   2407900   2412196   2416962   2422167  
  5340.000000   2427842   2433915   2440419   2447302   2454628  
  5330.000000   2462358   2470556   2479158   2488213   2497657  
  5320.000000   2507574   2517951   2528931   2540529   2552891  
  5310.000000   2565994   2579930   2594616   2610107   2626319  
  5300.000000   2643326   2661082   2679696   2699149   2719550  
  5290.000000   2740852   2763101   2786171   2810015   2834451  
  5280.000000   2859421   2884808   2910658   2936984   2963913  
  5270.000000   2991478   3019703   3048468   3077601   3106873  
  5260.000000   3136095   3165166   3194071   3222885   3251653  
  5250.000000   3280403   3309011   3337332   3365095   3392152  
  5240.000000   3418330   3443675   3468198   3492081   3515365  
  5230.000000   3538181   3560451   3582172   3603157   3623366  
  5220.000000   3642648   3661063   3678582   3695383   3711504  
  5210.000000   3727121   3742203   3756804   3770761   3784044  
  5200.000000   3796481   3808111   3818883   3828950   3838325  
  5190.000000   3847154   3855389   3863088   3870139   3876572  
  5180.000000   3882304   3887412   3891861   3895744   3899012  
  5170.000000   3901722   3903810   3905339   3906282   3906745  
  5160.000000   3906728   3906329   3905515   3904332   3902718  
  5150.000000   3900718   3898304   3895560   3892492   3889175  
  5140.000000   3885584   3881742   3877593   3873155   3868404  
  5130.000000   3863401   3858170   3852780   3847247   3841608  
  5120.000000   3835845   3829979   3824003   3817951   3811840  
  5110.000000   3805709   3799566   3793430   3787297   3781183  
  5100.000000   3775096   3769062   3763090   3757188   3751332  
  5090.000000   3745493   3739628   3733711   3727730   3721704  
  5080.000000   3715659   3709632   3703644   3697705   3691800  
  5070.000000   3685913   3680016   3674094   3668124   3662099  
  5060.000000   3656000   3649820   3643547   3637187   3630745  
  5050.000000   3624244   3617694   3611109   3604482   3597805  
  5040.000000   3591058   3584237   3577345   3570404   3563439  
  5030.000000   3556479   3549546   3542650   3535796   3528989  
  5020.000000   3522238   3515553   3508955   3502449   3496044  
  5010.000000   3489727   3483496   3477336   3471267   3465296  
  5000.000000   3459470   3453806   3448346   3443083   3438032  
  4990.000000   3433166   3428495   3424000   3419711   3415624  
  4980.000000   3411778   3408158   3404786   3401629   3398704  
  4970.000000   3395976   3393478   3391191   3389162   3387377  
  4960.000000   3385887   3384673   3383782   3383194   3382957  
  4950.000000   3383045   3383499   3384280   3385422   3386881  
  4940.000000   3388700   3390851   3393396   3396316   3399673  
  4930.000000   3403435   3407643   3412247   3417274   3422680  
  4920.000000   3428499   3434696   3441303   3448280   3455638  
  4910.000000   3463323   3471333   3479619   3488179   3496977  
  4900.000000   3506004   3515223   3524602   3534094   3543645  
  4890.000000   3553210   3562725   3572151   3581414   3590474  
  4880.000000   3599240   3607673   3615678   3623230   3630245  
  4870.000000   3636716   3642569   3647812   3652379   3656300  
  4860.000000   3659534   3662137   3664097   3665491   3666318  
  4850.000000   3666661   3666522   3665985   3665066   3663853  
  4840.000000   3662378   3660725   3658926   3657051   3655124  
  4830.000000   3653203   3651314   3649505   3647800   3646227  
  4820.000000   3644792   3643489   3642308   3641230   3640252  
  4810.000000   3639367   3638592   3637930   3637400   3636994  
  4800.000000   3636719   3636557   3636519   3636597   3636810  
  4790.000000   3637156   3637648   3638268   3639011   3639845  
  4780.000000   3640766   3641759   3642837   3644002   3645268  
  4770.000000   3646625   3648059   3649539   3651041   3652536  
  4760.000000   3654019   3655488   3656952   3658415   3659880  
  4750.000000   3661339   3662783   3664208   3665614   3667011  
  4740.000000   3668412   3669828   3671265   3672722   3674193  
  4730.000000   3675668   3677141   3678601   3680043   3681450  
  4720.000000   3682817   3684124   3685379   3686590   3687802  
  4710.000000   3689059   3690434   3691981   3693760   3695796  
  4700.000000   3698110   3700692   3703536   3706616   3709917  
  4690.000000   3713409   3717077   3720885   3724818   3728840  
  4680.000000   3732937   3737069   3741215   3745326   3749373  
  4670.000000   3753303   3757097   3760734   3764237   3767637  
  4660.000000   3771002   3774399   3777910   3781599   3785524  
  4650.000000   3789716   3794190   3798938   3803928   3809115  
  4640.000000   3814435   3819827   3825224   3830585   3835864  
  4630.000000   3841046   3846103   3851024   3855773   3860323  
  4620.000000   3864620   3868629   3872296   3875603   3878516  
  4610.000000   3881053   3883208   3885034   3886552   3887840  
  4600.000000   3888931   3889907   3890785   3891614   3892372  
  4590.000000   3893067   3893639   3894069   3894291   3894290  
  4580.000000   3894016   3893469   3892625   3891503   3890102  
  4570.000000   3888462   3886606   3884590   3882445   3880223  
  4560.000000   3877941   3875630   3873285   3870918   3868514  
  4550.000000   3866084   3863619   3861132   3858620   3856094  
  4540.000000   3853551   3850998   3848435   3845868   3843302  
  4530.000000   3840740   3838183   3835622   3833056   3830472  
  4520.000000   3827878   3825269   3822675   3820096   3817579  
  4510.000000   3815126   3812797   3810603   3808628   3806898  
  4500.000000   3805523   3804530   3804028   3804019   3804592  
  4490.000000   3805724   3807498   3809894   3813012   3816840  
  4480.000000   3821476   3826891   3833154   3840196   3848052  
  4470.000000   3856629   3865946   3875903   3886509   3897660  
  4460.000000   3909351   3921477   3934029   3946915   3960141  
  4450.000000   3973644   3987445   4001503   4015833   4030394  
  4440.000000   4045171   4060112   4075169   4090283   4105389  
  4430.000000   4120444   4135384   4150193   4164817   4179260  
  4420.000000   4193462   4207421   4221047   4234303   4247058  
  4410.000000   4259244   4270709   4281388   4291167   4300045  
  4400.000000   4307997   4315124   4321491   4327273   4332576  
  4390.000000   4337581   4342377   4347102   4351798   4356546  
  4380.000000   4361342   4366219   4371142   4376118   4381114  
  4370.000000   4386140   4391186   4396276   4401414   4406622  
  4360.000000   4411895   4417243   4422639   4428093   4433551  
  4350.000000   4439032   4444454   4449837   4455083   4460221  
  4340.000000   4465159   4469913   4474349   4478362   4481646  
  4330.000000   4483864   4484529   4483210   4479538   4473405  
  4320.000000   4464963   4454701   4443313   4431626   4420390  
  4310.000000   4410216   4401439   4394173   4388320   4383693  
  4300.000000   4380073   4377282   4375211   4373781   4372978  
  4290.000000   4372740   4373062   4373858   4375121   4376776  
  4280.000000   4378817   4381184   4383840   4386712   4389725  
  4270.000000   4392809   4395879   4398864   4401643   4404066  
  4260.000000   4405901   4406891   4406746   4405254   4402295  
  4250.000000   4397937   4392385   4386012   4379219   4372444  
  4240.000000   4366003   4360136   4354909   4350311   4346218  
  4230.000000   4342498   4339000   4335606   4332236   4328839  
  4220.000000   4325430   4322020   4318696   4315510   4312584  
  4210.000000   4309976   4307791   4306060   4304838   4304111  
  4200.000000   4303880   4304089   4304703   4305639   4306850  
  4190.000000   4308248   4309799   4311434   4313144   4314872  
  4180.000000   4316621   4318335   4320018   4321623   4323184  
  4170.000000   4324709   4326296   4328014   4330002   4332342  
  4160.000000   4335142   4338425   4342233   4346525   4351305  
  4150.000000   4356515   4362162   4368199   4374649   4381467  
  4140.000000   4388682   4396238   4404167   4412407   4420995  
  4130.000000   4429872   4439078   4448571   4458405   4468567  
  4120.000000   4479140   4490142   4501674   4513767   4526505  
  4110.000000   4539893   4553967   4568677   4583994   4599810  
  4100.000000   4616044   4632562   4649274   4666077   4682929  
  4090.000000   4699796   4716679   4733588   4750519   4767472  
  4080.000000   4784401   4801285   4818048   4834672   4851071  
  4070.000000   4867222   4883018   4898419   4913293   4927601  
  4060.000000   4941226   4954172   4966363   4977857   4988622  
  4050.000000   4998765   5008288   5017329   5025897   5034108  
  4040.000000   5041915   5049361   5056322   5062790   5068639  
  4030.000000   5073895   5078496   5082527   5085977   5088935  
  4020.000000   5091365   5093339   5094855   5095975   5096645  
  4010.000000   5096948   5096917   5096522   5095543   5094002  
  4000.000000   5092178  
##END= 
