##TITLE= Sample 007 By ssteindl date Dienstag, November 20 2018
##JCAMP-DX= 4.24
##DATA TYPE= INFRARED SPECTRUM
##ORIGIN= Exported PE Spectrum Data File
##OWNER= Sandra Steindl
##DATE= 18/11/20
##TIME= 16:12:48.00
##SPECTROMETER/DATA SYSTEM= PERKIN-ELMER Frontier FT-IR/NIR IR
##INSTRUMENT PARAMETERS=
  APODIZATION=stark
  DETECTOR=INGAAS
##RESOLUTION= 16.000000
##DELTAX= -2.000000
##XUNITS= 1/CM
##YUNITS= A
##XFACTOR= 1.00
##YFACTOR= 0.00000011920928955078
##FIRSTX= 10000.00
##LASTX= 4000.00
##NPOINTS= 3001
##FIRSTY= 0.243045
##MAXY= 0.610299
##MINY= 0.201390
##XYDATA= (X++(Y..Y))
 10000.000000   2038805   2027089   2016793   2009977   2007476  
  9990.000000   2008769   2012993   2019053   2025479   2030635  
  9980.000000   2033529   2033897   2032303   2029744   2027514  
  9970.000000   2026570   2027199   2028881   2030543   2030997  
  9960.000000   2029515   2026182   2021921   2018146   2016079  
  9950.000000   2016229   2017994   2019917   2020187   2017439  
  9940.000000   2011347   2002790   1993586   1985766   1980878  
  9930.000000   1979418   1980771   1983493   1985908   1986673  
  9920.000000   1985186   1981676   1977026   1972431   1969048  
  9910.000000   1967735   1968922   1972532   1978021   1984369  
  9900.000000   1990291   1994459   1995902   1994315   1990213  
  9890.000000   1984822   1979694   1976190   1975070   1976199  
  9880.000000   1978745   1981438   1983155   1983243   1981704  
  9870.000000   1979082   1976095   1973420   1971417   1970297  
  9860.000000   1970164   1971254   1973865   1978250   1984312  
  9850.000000   1991462   1998571   2004240   2007169   2006562  
  9840.000000   2002418   1995452   1986930   1978168   1970259  
  9830.000000   1963792   1958897   1955383   1952917   1951238  
  9820.000000   1950161   1949675   1949780   1950562   1952012  
  9810.000000   1954134   1956814   1959882   1963102   1966174  
  9800.000000   1968865   1970948   1972341   1972943   1972714  
  9790.000000   1971491   1969096   1965325   1960139   1953791  
  9780.000000   1946854   1940227   1934842   1931535   1930733  
  9770.000000   1932463   1936315   1941607   1947499   1953111  
  9760.000000   1957604   1960227   1960465   1958116   1953514  
  9750.000000   1947492   1941349   1936486   1934009   1934349  
  9740.000000   1937052   1940982   1944671   1946959   1947286  
  9730.000000   1945935   1943687   1941489   1939932   1939038  
  9720.000000   1938337   1937115   1934905   1931608   1927626  
  9710.000000   1923504   1919678   1916220   1912841   1909184  
  9700.000000   1905097   1900939   1897512   1895821   1896648  
  9690.000000   1900173   1905869   1912595   1918991   1923826  
  9680.000000   1926360   1926393   1924274   1920652   1916371  
  9670.000000   1912282   1909192   1907748   1908309   1910812  
  9660.000000   1914697   1919012   1922656   1924739   1924837  
  9650.000000   1923161   1920382   1917395   1914920   1913298  
  9640.000000   1912464   1912121   1912011   1912110   1912597  
  9630.000000   1913706   1915407   1917311   1918675   1918725  
  9620.000000   1916999   1913591   1909192   1904756   1901159  
  9610.000000   1898770   1897398   1896414   1895120   1893129  
  9600.000000   1890535   1887936   1886088   1885643   1886770  
  9590.000000   1889211   1892358   1895600   1898514   1900923  
  9580.000000   1902824   1904143   1904680   1904045   1901873  
  9570.000000   1897977   1892526   1886030   1879233   1872907  
  9560.000000   1867673   1863928   1861785   1861168   1861786  
  9550.000000   1863244   1865030   1866603   1867478   1867340  
  9540.000000   1866153   1864199   1861989   1860102   1858963  
  9530.000000   1858684   1859099   1859853   1860672   1861394  
  9520.000000   1862026   1862497   1862565   1861704   1859308  
  9510.000000   1854951   1848739   1841473   1834520   1829486  
  9500.000000   1827626   1829476   1834597   1841808   1849581  
  9490.000000   1856552   1861883   1865273   1866827   1866708  
  9480.000000   1865023   1861755   1857031   1851249   1845271  
  9470.000000   1840226   1837244   1837010   1839445   1843718  
  9460.000000   1848458   1852322   1854380   1854469   1853076  
  9450.000000   1851116   1849479   1848777   1849173   1850499  
  9440.000000   1852431   1854665   1857015   1859292   1861231  
  9430.000000   1862365   1862132   1860033   1855874   1849904  
  9420.000000   1842818   1835602   1829285   1824716   1822361  
  9410.000000   1822326   1824330   1827897   1832378   1837094  
  9400.000000   1841376   1844643   1846497   1846767   1845587  
  9390.000000   1843310   1840469   1837572   1835036   1833061  
  9380.000000   1831685   1830828   1830393   1830322   1830556  
  9370.000000   1830988   1831385   1831405   1830707   1829070  
  9360.000000   1826566   1823550   1820626   1818424   1817400  
  9350.000000   1817718   1819204   1821529   1824313   1827326  
  9340.000000   1830477   1833801   1837299   1840816   1843967  
  9330.000000   1846162   1846819   1845531   1842298   1837491  
  9320.000000   1831811   1826067   1820980   1817058   1814459  
  9310.000000   1813116   1812730   1813000   1813602   1814341  
  9300.000000   1815079   1815783   1816439   1817005   1817401  
  9290.000000   1817457   1817019   1815906   1814038   1811394  
  9280.000000   1808108   1804454   1800836   1797734   1795550  
  9270.000000   1794571   1794845   1796229   1798379   1800846  
  9260.000000   1803163   1804923   1805874   1805887   1804983  
  9250.000000   1803228   1800772   1797784   1794525   1791304  
  9240.000000   1788500   1786496   1785588   1785931   1787409  
  9230.000000   1789701   1792287   1794656   1796405   1797367  
  9220.000000   1797602   1797345   1796902   1796474   1796106  
  9210.000000   1795639   1794855   1793554   1791674   1789326  
  9200.000000   1786746   1784251   1782090   1780440   1779331  
  9190.000000   1778738   1778589   1778800   1779268   1779843  
  9180.000000   1780337   1780509   1780130   1779028   1777182  
  9170.000000   1774758   1772096   1769609   1767690   1766617  
  9160.000000   1766538   1767398   1768983   1770929   1772822  
  9150.000000   1774224   1774738   1774129   1772408   1769909  
  9140.000000   1767211   1765049   1764116   1764883   1767414  
  9130.000000   1771302   1775735   1779740   1782446   1783297  
  9120.000000   1782144   1779261   1775253   1770845   1766701  
  9110.000000   1763285   1760854   1759430   1758834   1758765  
  9100.000000   1758867   1758846   1758477   1757723   1756693  
  9090.000000   1755642   1754863   1754575   1754874   1755628  
  9080.000000   1756577   1757352   1757664   1757330   1756358  
  9070.000000   1754901   1753223   1751622   1750369   1749688  
  9060.000000   1749736   1750599   1752245   1754514   1757101  
  9050.000000   1759611   1761629   1762834   1763105   1762540  
  9040.000000   1761446   1760189   1759101   1758336   1757865  
  9030.000000   1757518   1757089   1756482   1755743   1755089  
  9020.000000   1754763   1754996   1755866   1757289   1759018  
  9010.000000   1760716   1762072   1762819   1762792   1761921  
  9000.000000   1760259   1757969   1755316   1752675   1750472  
  8990.000000   1749112   1748829   1749655   1751349   1753485  
  8980.000000   1755516   1756958   1757521   1757139   1755972  
  8970.000000   1754263   1752293   1750229   1748135   1745973  
  8960.000000   1743724   1741456   1739373   1737808   1737106  
  8950.000000   1737549   1739181   1741827   1745043   1748275  
  8940.000000   1750949   1752655   1753251   1752853   1751824  
  8930.000000   1750570   1749469   1748665   1748079   1747394  
  8920.000000   1746239   1744315   1741566   1738237   1734835  
  8910.000000   1732024   1730395   1730355   1731950   1734908  
  8900.000000   1738674   1742605   1746128   1748857   1750672  
  8890.000000   1751663   1752092   1752217   1752215   1752095  
  8880.000000   1751733   1750939   1749566   1747631   1745352  
  8870.000000   1743147   1741485   1740780   1741191   1742578  
  8860.000000   1744464   1746188   1747091   1746742   1745099  
  8850.000000   1742505   1739608   1737129   1735672   1735513  
  8840.000000   1736551   1738342   1740292   1741845   1742674  
  8830.000000   1742739   1742281   1741694   1741372   1741570  
  8820.000000   1742332   1743486   1744761   1745870   1746664  
  8810.000000   1747134   1747431   1747768   1748316   1749146  
  8800.000000   1750170   1751218   1752100   1752723   1753140  
  8790.000000   1753540   1754169   1755209   1756676   1758378  
  8780.000000   1759961   1761019   1761250   1760563   1759134  
  8770.000000   1757334   1755612   1754346   1753747   1753816  
  8760.000000   1754398   1755261   1756189   1757050   1757794  
  8750.000000   1758448   1759051   1759657   1760311   1761078  
  8740.000000   1762033   1763239   1764716   1766381   1768048  
  8730.000000   1769442   1770286   1770382   1769706   1768397  
  8720.000000   1766740   1765045   1763576   1762462   1761700  
  8710.000000   1761203   1760874   1760691   1760720   1761114  
  8700.000000   1762022   1763543   1765653   1768198   1770927  
  8690.000000   1773540   1775779   1777446   1778476   1778906  
  8680.000000   1778898   1778666   1778450   1778448   1778762  
  8670.000000   1779396   1780242   1781152   1781978   1782656  
  8660.000000   1783214   1783761   1784429   1785283   1786285  
  8650.000000   1787255   1787957   1788149   1787715   1786711  
  8640.000000   1785402   1784181   1783479   1783656   1784918  
  8630.000000   1787272   1790508   1794278   1798159   1801761  
  8620.000000   1804779   1807062   1808633   1809665   1810438  
  8610.000000   1811222   1812225   1813471   1814824   1816000  
  8600.000000   1816703   1816711   1815984   1814704   1813219  
  8590.000000   1811968   1811311   1811489   1812517   1814273  
  8580.000000   1816499   1818953   1821437   1823853   1826153  
  8570.000000   1828301   1830239   1831836   1832936   1833350  
  8560.000000   1832966   1831729   1829729   1827172   1824399  
  8550.000000   1821826   1819863   1818865   1819026   1820377  
  8540.000000   1822720   1825717   1828939   1831995   1834602  
  8530.000000   1836629   1838106   1839137   1839864   1840370  
  8520.000000   1840708   1840863   1840846   1840685   1840473  
  8510.000000   1840328   1840349   1840587   1841013   1841563  
  8500.000000   1842143   1842716   1843301   1843991   1844899  
  8490.000000   1846103   1847603   1849300   1851037   1852620  
  8480.000000   1853900   1854786   1855299   1855516   1855568  
  8470.000000   1855578   1855654   1855871   1856262   1856851  
  8460.000000   1857646   1858677   1859958   1861504   1863301  
  8450.000000   1865300   1867390   1869397   1871110   1872306  
  8440.000000   1872825   1872601   1871703   1870343   1868842  
  8430.000000   1867566   1866827   1866841   1867669   1869214  
  8420.000000   1871225   1873367   1875293   1876704   1877396  
  8410.000000   1877295   1876482   1875178   1873694   1872370  
  8400.000000   1871494   1871269   1871742   1872841   1874358  
  8390.000000   1876056   1877704   1879126   1880199   1880825  
  8380.000000   1880930   1880426   1879252   1877379   1874885  
  8370.000000   1871983   1869009   1866378   1864461   1863539  
  8360.000000   1863691   1864832   1866676   1868857   1870974  
  8350.000000   1872688   1873752   1874021   1873464   1872142  
  8340.000000   1870225   1867931   1865538   1863297   1861426  
  8330.000000   1860032   1859102   1858518   1858096   1857680  
  8320.000000   1857181   1856624   1856119   1855826   1855877  
  8310.000000   1856327   1857116   1858098   1859093   1859942  
  8300.000000   1860571   1860977   1861232   1861401   1861512  
  8290.000000   1861517   1861306   1860743   1859720   1858222  
  8280.000000   1856359   1854369   1852551   1851205   1850521  
  8270.000000   1850557   1851175   1852103   1852978   1853474  
  8260.000000   1853379   1852659   1851451   1850005   1848597  
  8250.000000   1847427   1846555   1845881   1845199   1844289  
  8240.000000   1843011   1841365   1839487   1837605   1835944  
  8230.000000   1834657   1833746   1833095   1832512   1831828  
  8220.000000   1830966   1829972   1828989   1828196   1827715  
  8210.000000   1827554   1827584   1827579   1827300   1826574  
  8200.000000   1825359   1823745   1821924   1820117   1818504  
  8190.000000   1817179   1816123   1815244   1814407   1813499  
  8180.000000   1812444   1811231   1809887   1808483   1807089  
  8170.000000   1805781   1804615   1803618   1802780   1802032  
  8160.000000   1801272   1800361   1799176   1797630   1795715  
  8150.000000   1793512   1791179   1788921   1786946   1785418  
  8140.000000   1784427   1783969   1783953   1784223   1784578  
  8130.000000   1784818   1784769   1784329   1783482   1782310  
  8120.000000   1780975   1779674   1778588   1777816   1777345  
  8110.000000   1777045   1776723   1776174   1775264   1773968  
  8100.000000   1772369   1770632   1768932   1767406   1766121  
  8090.000000   1765072   1764231   1763566   1763071   1762751  
  8080.000000   1762584   1762505   1762387   1762092   1761518  
  8070.000000   1760657   1759621   1758602   1757813   1757381  
  8060.000000   1757288   1757346   1757262   1756732   1755573  
  8050.000000   1753794   1751605   1749360   1747420   1746062  
  8040.000000   1745379   1745293   1745597   1746048   1746446  
  8030.000000   1746679   1746715   1746568   1746250   1745741  
  8020.000000   1745002   1744004   1742770   1741387   1740006  
  8010.000000   1738777   1737811   1737126   1736645   1736232  
  8000.000000   1735735   1735062   1734199   1733222   1732259  
  7990.000000   1731442   1730863   1730541   1730436   1730453  
  7980.000000   1730494   1730463   1730306   1729989   1729511  
  7970.000000   1728885   1728147   1727353   1726583   1725938  
  7960.000000   1725514   1725391   1725593   1726082   1726757  
  7950.000000   1727471   1728067   1728407   1728410   1728044  
  7940.000000   1727342   1726368   1725210   1723965   1722729  
  7930.000000   1721602   1720678   1720045   1719760   1719843  
  7920.000000   1720245   1720861   1721536   1722090   1722373  
  7910.000000   1722280   1721797   1720976   1719947   1718861  
  7900.000000   1717879   1717122   1716676   1716578   1716822  
  7890.000000   1717383   1718204   1719227   1720370   1721550  
  7880.000000   1722678   1723666   1724446   1724967   1725213  
  7870.000000   1725187   1724921   1724457   1723851   1723168  
  7860.000000   1722479   1721869   1721411   1721176   1721195  
  7850.000000   1721459   1721900   1722403   1722818   1723002  
  7840.000000   1722850   1722329   1721498   1720504   1719544  
  7830.000000   1718830   1718521   1718693   1719301   1720208  
  7820.000000   1721201   1722066   1722633   1722818   1722637  
  7810.000000   1722173   1721542   1720838   1720104   1719328  
  7800.000000   1718470   1717503   1716455   1715427   1714564  
  7790.000000   1714020   1713876   1714122   1714618   1715158  
  7780.000000   1715520   1715550   1715215   1714601   1713882  
  7770.000000   1713241   1712805   1712593   1712524   1712457  
  7760.000000   1712253   1711837   1711216   1710477   1709737  
  7750.000000   1709094   1708588   1708193   1707837   1707439  
  7740.000000   1706941   1706330   1705632   1704901   1704193  
  7730.000000   1703558   1703039   1702673   1702491   1702508  
  7720.000000   1702704   1703009   1703302   1703436   1703281  
  7710.000000   1702767   1701922   1700859   1699755   1698781  
  7700.000000   1698056   1697604   1697363   1697216   1697047  
  7690.000000   1696794   1696464   1696135   1695906   1695856  
  7680.000000   1696005   1696301   1696644   1696915   1697026  
  7670.000000   1696933   1696653   1696232   1695736   1695216  
  7660.000000   1694706   1694213   1693736   1693278   1692855  
  7650.000000   1692498   1692251   1692158   1692248   1692530  
  7640.000000   1692976   1693533   1694118   1694640   1695011  
  7630.000000   1695168   1695088   1694789   1694329   1693783  
  7620.000000   1693234   1692743   1692347   1692044   1691808  
  7610.000000   1691592   1691351   1691052   1690690   1690287  
  7600.000000   1689893   1689573   1689390   1689385   1689570  
  7590.000000   1689916   1690373   1690878   1691390   1691894  
  7580.000000   1692414   1692990   1693659   1694424   1695243  
  7570.000000   1696031   1696688   1697125   1697310   1697266  
  7560.000000   1697073   1696832   1696642   1696561   1696609  
  7550.000000   1696764   1696987   1697235   1697477   1697701  
  7540.000000   1697905   1698098   1698301   1698550   1698903  
  7530.000000   1699428   1700188   1701210   1702471   1703879  
  7520.000000   1705304   1706595   1707639   1708382   1708861  
  7510.000000   1709174   1709454   1709816   1710334   1711019  
  7500.000000   1711838   1712727   1713627   1714501   1715344  
  7490.000000   1716167   1716995   1717844   1718723   1719629  
  7480.000000   1720557   1721496   1722445   1723404   1724385  
  7470.000000   1725403   1726483   1727646   1728906   1730257  
  7460.000000   1731677   1733112   1734507   1735799   1736962  
  7450.000000   1737994   1738932   1739837   1740779   1741821  
  7440.000000   1743009   1744364   1745889   1747570   1749378  
  7430.000000   1751265   1753169   1755009   1756709   1758209  
  7420.000000   1759492   1760585   1761562   1762524   1763573  
  7410.000000   1764784   1766195   1767804   1769575   1771459  
  7400.000000   1773396   1775332   1777210   1778982   1780607  
  7390.000000   1782066   1783374   1784576   1785740   1786934  
  7380.000000   1788206   1789560   1790960   1792342   1793649  
  7370.000000   1794854   1795979   1797089   1798267   1799590  
  7360.000000   1801093   1802768   1804559   1806392   1808195  
  7350.000000   1809915   1811530   1813046   1814489   1815891  
  7340.000000   1817279   1818658   1820021   1821335   1822558  
  7330.000000   1823651   1824591   1825399   1826137   1826916  
  7320.000000   1827849   1829040   1830534   1832309   1834263  
  7310.000000   1836251   1838122   1839761   1841122   1842221  
  7300.000000   1843127   1843919   1844672   1845426   1846206  
  7290.000000   1847025   1847906   1848883   1849993   1851269  
  7280.000000   1852711   1854290   1855941   1857589   1859166  
  7270.000000   1860627   1861971   1863224   1864444   1865685  
  7260.000000   1866998   1868394   1869863   1871353   1872805  
  7250.000000   1874154   1875370   1876450   1877453   1878468  
  7240.000000   1879609   1880972   1882618   1884547   1886723  
  7230.000000   1889074   1891539   1894066   1896642   1899256  
  7220.000000   1901912   1904581   1907235   1909816   1912299  
  7210.000000   1914665   1916953   1919212   1921523   1923948  
  7200.000000   1926539   1929314   1932283   1935435   1938765  
  7190.000000   1942252   1945874   1949589   1953357   1957129  
  7180.000000   1960891   1964635   1968392   1972175   1975999  
  7170.000000   1979828   1983622   1987317   1990894   1994362  
  7160.000000   1997801   2001301   2004967   2008853   2012979  
  7150.000000   2017312   2021814   2026442   2031183   2036030  
  7140.000000   2040992   2046040   2051143   2056231   2061275  
  7130.000000   2066255   2071226   2076257   2081445   2086835  
  7120.000000   2092440   2098202   2104045   2109890   2115708  
  7110.000000   2121506   2127335   2133236   2139238   2145313  
  7100.000000   2151422   2157500   2163517   2169459   2175351  
  7090.000000   2181215   2187076   2192933   2198785   2204634  
  7080.000000   2210500   2216423   2222446   2228590   2234845  
  7070.000000   2241157   2247461   2253691   2259821   2265852  
  7060.000000   2271813   2277730   2283609   2289435   2295186  
  7050.000000   2300862   2306499   2312167   2317939   2323861  
  7040.000000   2329906   2335988   2341973   2347740   2353221  
  7030.000000   2358434   2363466   2368443   2373468   2378592  
  7020.000000   2383785   2388982   2394099   2399093   2403956  
  7010.000000   2408733   2413465   2418186   2422880   2427513  
  7000.000000   2432027   2436394   2440606   2444701   2448722  
  6990.000000   2452723   2456722   2460725   2464700   2468619  
  6980.000000   2472439   2476143   2479705   2483127   2486404  
  6970.000000   2489554   2492589   2495539   2498413   2501227  
  6960.000000   2503967   2506630   2509204   2511711   2514177  
  6950.000000   2516660   2519187   2521773   2524370   2526903  
  6940.000000   2529270   2531401   2533268   2534909   2536404  
  6930.000000   2537853   2539327   2540862   2542435   2544006  
  6920.000000   2545522   2546967   2548346   2549696   2551043  
  6910.000000   2552409   2553773   2555106   2556357   2557500  
  6900.000000   2558520   2559434   2560270   2561068   2561858  
  6890.000000   2562665   2563496   2564347   2565197   2566013  
  6880.000000   2566757   2567398   2567925   2568359   2568751  
  6870.000000   2569172   2569686   2570331   2571097   2571936  
  6860.000000   2572775   2573544   2574205   2574762   2575252  
  6850.000000   2575737   2576272   2576893   2577611   2578414  
  6840.000000   2579276   2580167   2581046   2581877   2582617  
  6830.000000   2583239   2583726   2584095   2584380   2584632  
  6820.000000   2584889   2585155   2585396   2585550   2585554  
  6810.000000   2585382   2585055   2584656   2584290   2584062  
  6800.000000   2584029   2584193   2584493   2584844   2585155  
  6790.000000   2585368   2585455   2585423   2585290   2585076  
  6780.000000   2584796   2584461   2584081   2583673   2583253  
  6770.000000   2582836   2582426   2582020   2581614   2581213  
  6760.000000   2580833   2580497   2580226   2580020   2579854  
  6750.000000   2579684   2579465   2579175   2578826   2578462  
  6740.000000   2578146   2577928   2577830   2577834   2577900  
  6730.000000   2577978   2578037   2578070   2578087   2578103  
  6720.000000   2578120   2578122   2578086   2578000   2577875  
  6710.000000   2577750   2577674   2577683   2577778   2577919  
  6700.000000   2578031   2578038   2577879   2577539   2577036  
  6690.000000   2576419   2575735   2575029   2574324   2573645  
  6680.000000   2573005   2572433   2571942   2571537   2571185  
  6670.000000   2570835   2570410   2569853   2569126   2568237  
  6660.000000   2567218   2566115   2564959   2563763   2562518  
  6650.000000   2561219   2559876   2558529   2557232   2556045  
  6640.000000   2554991   2554063   2553205   2552349   2551426  
  6630.000000   2550399   2549259   2548028   2546730   2545387  
  6620.000000   2544001   2542563   2541060   2539488   2537856  
  6610.000000   2536185   2534499   2532822   2531174   2529575  
  6600.000000   2528038   2526578   2525189   2523851   2522518  
  6590.000000   2521131   2519638   2518013   2516273   2514477  
  6580.000000   2512703   2511025   2509480   2508062   2506720  
  6570.000000   2505385   2504001   2502539   2501008   2499445  
  6560.000000   2497890   2496370   2494893   2493446   2492011  
  6550.000000   2490574   2489139   2487715   2486320   2484962  
  6540.000000   2483642   2482351   2481075   2479803   2478524  
  6530.000000   2477228   2475904   2474541   2473133   2471681  
  6520.000000   2470202   2468718   2467257   2465836   2464459  
  6510.000000   2463119   2461805   2460518   2459271   2458093  
  6500.000000   2457010   2456034   2455143   2454282   2453378  
  6490.000000   2452353   2451158   2449779   2448244   2446608  
  6480.000000   2444934   2443280   2441683   2440165   2438728  
  6470.000000   2437373   2436088   2434858   2433659   2432461  
  6460.000000   2431234   2429959   2428633   2427267   2425889  
  6450.000000   2424524   2423194   2421904   2420656   2419445  
  6440.000000   2418276   2417157   2416103   2415117   2414198  
  6430.000000   2413322   2412463   2411593   2410704   2409804  
  6420.000000   2408924   2408099   2407367   2406751   2406262  
  6410.000000   2405889   2405617   2405413   2405248   2405084  
  6400.000000   2404890   2404643   2404339   2403988   2403617  
  6390.000000   2403255   2402922   2402621   2402335   2402035  
  6380.000000   2401698   2401316   2400903   2400493   2400117  
  6370.000000   2399794   2399512   2399238   2398923   2398526  
  6360.000000   2398025   2397425   2396749   2396030   2395292  
  6350.000000   2394553   2393819   2393102   2392410   2391763  
  6340.000000   2391171   2390636   2390139   2389651   2389138  
  6330.000000   2388577   2387959   2387291   2386582   2385838  
  6320.000000   2385045   2384185   2383238   2382209   2381120  
  6310.000000   2380023   2378966   2377987   2377086   2376231  
  6300.000000   2375363   2374428   2373385   2372232   2370991  
  6290.000000   2369705   2368415   2367157   2365948   2364797  
  6280.000000   2363702   2362657   2361639   2360619   2359552  
  6270.000000   2358395   2357114   2355703   2354185   2352606  
  6260.000000   2351017   2349458   2347941   2346453   2344968  
  6250.000000   2343468   2341955   2340457   2339008   2337635  
  6240.000000   2336336   2335087   2333842   2332560   2331223  
  6230.000000   2329836   2328428   2327031   2325661   2324316  
  6220.000000   2322975   2321617   2320238   2318852   2317493  
  6210.000000   2316192   2314965   2313798   2312655   2311487  
  6200.000000   2310258   2308952   2307588   2306196   2304819  
  6190.000000   2303486   2302218   2301014   2299872   2298783  
  6180.000000   2297743   2296745   2295782   2294841   2293916  
  6170.000000   2293000   2292100   2291228   2290401   2289627  
  6160.000000   2288905   2288222   2287557   2286893   2286223  
  6150.000000   2285544   2284862   2284171   2283460   2282704  
  6140.000000   2281884   2280989   2280032   2279038   2278047  
  6130.000000   2277088   2276175   2275302   2274455   2273624  
  6120.000000   2272814   2272049   2271366   2270792   2270341  
  6110.000000   2269997   2269731   2269500   2269275   2269038  
  6100.000000   2268796   2268558   2268344   2268159   2268013  
  6090.000000   2267906   2267850   2267854   2267937   2268100  
  6080.000000   2268338   2268626   2268942   2269259   2269579  
  6070.000000   2269908   2270274   2270689   2271165   2271682  
  6060.000000   2272225   2272764   2273304   2273854   2274456  
  6050.000000   2275145   2275967   2276934   2278061   2279333  
  6040.000000   2280749   2282293   2283966   2285746   2287620  
  6030.000000   2289549   2291512   2293479   2295457   2297455  
  6020.000000   2299509   2301637   2303856   2306145   2308480  
  6010.000000   2310816   2313132   2315408   2317654   2319877  
  6000.000000   2322098   2324322   2326566   2328839   2331174  
  5990.000000   2333603   2336169   2338892   2341775   2344782  
  5980.000000   2347869   2350979   2354086   2357182   2360302  
  5970.000000   2363479   2366754   2370132   2373602   2377120  
  5960.000000   2380653   2384167   2387662   2391140   2394630  
  5950.000000   2398146   2401708   2405325   2409015   2412799  
  5940.000000   2416707   2420762   2424971   2429316   2433752  
  5930.000000   2438217   2442647   2446996   2451237   2455362  
  5920.000000   2459373   2463266   2467025   2470626   2474041  
  5910.000000   2477258   2480278   2483132   2485857   2488511  
  5900.000000   2491137   2493790   2496502   2499314   2502240  
  5890.000000   2505295   2508451   2511677   2514902   2518061  
  5880.000000   2521079   2523907   2526512   2528888   2531045  
  5870.000000   2533008   2534805   2536475   2538059   2539602  
  5860.000000   2541144   2542721   2544345   2546019   2547730  
  5850.000000   2549469   2551231   2553026   2554876   2556799  
  5840.000000   2558805   2560883   2563010   2565149   2567275  
  5830.000000   2569370   2571440   2573495   2575557   2577635  
  5820.000000   2579735   2581854   2583993   2586154   2588345  
  5810.000000   2590571   2592826   2595101   2597371   2599628  
  5800.000000   2601860   2604100   2606364   2608701   2611108  
  5790.000000   2613583   2616050   2618430   2620594   2622434  
  5780.000000   2623824   2624687   2624949   2624595   2623629  
  5770.000000   2622122   2620169   2617920   2615515   2613112  
  5760.000000   2610810   2608693   2606771   2605056   2603509  
  5750.000000   2602119   2600847   2599676   2598567   2597483  
  5740.000000   2596385   2595241   2594044   2592802   2591547  
  5730.000000   2590304   2589095   2587912   2586741   2585552  
  5720.000000   2584332   2583083   2581831   2580610   2579456  
  5710.000000   2578387   2577404   2576496   2575650   2574856  
  5700.000000   2574115   2573428   2572795   2572208   2571645  
  5690.000000   2571092   2570530   2569968   2569410   2568875  
  5680.000000   2568361   2567853   2567305   2566667   2565872  
  5670.000000   2564872   2563628   2562127   2560364   2558359  
  5660.000000   2556134   2553737   2551223   2548662   2546119  
  5650.000000   2543655   2541298   2539061   2536928   2534882  
  5640.000000   2532903   2530986   2529137   2527363   2525669  
  5630.000000   2524049   2522493   2520985   2519520   2518096  
  5620.000000   2516722   2515397   2514122   2512875   2511640  
  5610.000000   2510400   2509159   2507935   2506765   2505683  
  5600.000000   2504713   2503850   2503075   2502352   2501645  
  5590.000000   2500930   2500196   2499442   2498673   2497892  
  5580.000000   2497100   2496296   2495485   2494674   2493873  
  5570.000000   2493084   2492295   2491490   2490643   2489741  
  5560.000000   2488783   2487791   2486794   2485822   2484885  
  5550.000000   2483977   2483071   2482137   2481154   2480125  
  5540.000000   2479068   2478017   2476998   2476028   2475103  
  5530.000000   2474215   2473349   2472500   2471666   2470849  
  5520.000000   2470043   2469231   2468385   2467474   2466475  
  5510.000000   2465381   2464200   2462951   2461658   2460345  
  5500.000000   2459033   2457743   2456497   2455320   2454226  
  5490.000000   2453218   2452273   2451354   2450411   2449408  
  5480.000000   2448322   2447158   2445936   2444684   2443419  
  5470.000000   2442142   2440835   2439480   2438057   2436564  
  5460.000000   2435006   2433397   2431741   2430038   2428285  
  5450.000000   2426482   2424647   2422813   2421020   2419305  
  5440.000000   2417687   2416161   2414711   2413313   2411961  
  5430.000000   2410655   2409411   2408232   2407117   2406039  
  5420.000000   2404978   2403910   2402855   2401842   2400935  
  5410.000000   2400175   2399593   2399168   2398873   2398652  
  5400.000000   2398489   2398370   2398327   2398379   2398561  
  5390.000000   2398868   2399306   2399850   2400521   2401332  
  5380.000000   2402339   2403568   2405052   2406755   2408650  
  5370.000000   2410656   2412750   2414886   2417105   2419420  
  5360.000000   2421909   2424586   2427519   2430701   2434195  
  5350.000000   2437996   2442180   2446738   2451734   2457126  
  5340.000000   2462948   2469139   2475747   2482732   2490174  
  5330.000000   2498040   2506402   2515200   2524484   2534190  
  5320.000000   2544398   2555089   2566400   2578339   2591048  
  5310.000000   2604498   2618778   2633803   2649628   2666169  
  5300.000000   2683506   2701597   2720562   2740389   2761196  
  5290.000000   2782938   2805661   2829229   2853578   2878510  
  5280.000000   2903945   2929756   2955982   2982644   3009885  
  5270.000000   3037760   3066318   3095456   3125005   3154726  
  5260.000000   3184405   3213913   3243210   3272358   3301401  
  5250.000000   3330380   3359186   3387689   3415623   3442841  
  5240.000000   3469159   3494623   3519242   3543210   3566584  
  5230.000000   3589515   3611934   3633841   3655039   3675471  
  5220.000000   3694970   3713588   3731295   3748272   3764559  
  5210.000000   3780331   3795544   3810235   3824225   3837473  
  5200.000000   3849809   3861290   3871886   3881777   3890996  
  5190.000000   3899697   3907831   3915438   3922387   3928693  
  5180.000000   3934259   3939170   3943400   3947066   3950139  
  5170.000000   3952693   3954664   3956105   3956963   3957319  
  5160.000000   3957149   3956540   3955465   3953986   3952066  
  5150.000000   3949769   3947081   3944084   3940776   3937215  
  5140.000000   3933365   3929243   3924794   3920041   3914971  
  5130.000000   3909652   3904113   3898430   3892625   3886744  
  5120.000000   3880782   3874770   3868706   3862627   3856541  
  5110.000000   3850470   3844403   3838336   3832242   3826117  
  5100.000000   3819954   3813773   3807588   3801420   3795274  
  5090.000000   3789151   3783038   3776933   3770828   3764733  
  5080.000000   3758647   3752572   3746494   3740397   3734258  
  5070.000000   3728068   3721824   3715542   3709235   3702925  
  5060.000000   3696607   3690277   3683906   3677477   3670962  
  5050.000000   3664362   3657671   3650907   3644074   3637186  
  5040.000000   3630240   3623244   3616196   3609104   3601977  
  5030.000000   3594830   3587677   3580534   3573419   3566347  
  5020.000000   3559340   3552415   3545593   3538884   3532302  
  5010.000000   3525842   3519510   3513290   3507189   3501197  
  5000.000000   3495331   3489591   3484007   3478582   3473353  
  4990.000000   3468317   3463501   3458887   3454488   3450268  
  4980.000000   3446233   3442345   3438627   3435061   3431699  
  4970.000000   3428546   3425670   3423077   3420823   3418895  
  4960.000000   3417328   3416090   3415210   3414652   3414450  
  4950.000000   3414571   3415049   3415848   3417004   3418478  
  4940.000000   3420309   3422462   3424981   3427829   3431040  
  4930.000000   3434569   3438443   3442617   3447127   3451952  
  4920.000000   3457145   3462700   3468667   3475024   3481790  
  4910.000000   3488913   3496380   3504129   3512137   3520358  
  4900.000000   3528775   3537357   3546087   3554936   3563871  
  4890.000000   3572855   3581828   3590741   3599511   3608083  
  4880.000000   3616366   3624320   3631861   3638970   3645571  
  4870.000000   3651660   3657163   3662085   3666364   3670030  
  4860.000000   3673048   3675479   3677314   3678628   3679419  
  4850.000000   3679761   3679657   3679188   3678375   3677309  
  4840.000000   3676023   3674599   3673061   3671462   3669812  
  4830.000000   3668147   3666477   3664837   3663247   3661733  
  4820.000000   3660309   3658982   3657753   3656618   3655584  
  4810.000000   3654656   3653856   3653191   3652680   3652310  
  4800.000000   3652080   3651963   3651958   3652049   3652255  
  4790.000000   3652580   3653046   3653650   3654393   3655248  
  4780.000000   3656199   3657218   3658297   3659423   3660602  
  4770.000000   3661828   3663098   3664394   3665702   3667003  
  4760.000000   3668291   3669565   3670835   3672112   3673403  
  4750.000000   3674706   3676012   3677305   3678570   3679795  
  4740.000000   3680976   3682116   3683223   3684310   3685389  
  4730.000000   3686471   3687566   3688676   3689802   3690931  
  4720.000000   3692057   3693161   3694245   3695305   3696373  
  4710.000000   3697477   3698676   3700011   3701535   3703267  
  4700.000000   3705234   3707429   3709857   3712505   3715377  
  4690.000000   3718462   3721764   3725260   3728939   3732758  
  4680.000000   3736686   3740667   3744664   3748619   3752506  
  4670.000000   3756278   3759929   3763444   3766850   3770174  
  4660.000000   3773479   3776821   3780273   3783887   3787705  
  4650.000000   3791745   3796004   3800464   3805088   3809841  
  4640.000000   3814677   3819564   3824465   3829362   3834228  
  4630.000000   3839053   3843812   3848489   3853042   3857439  
  4620.000000   3861618   3865536   3869134   3872390   3875274  
  4610.000000   3877811   3880010   3881936   3883618   3885127  
  4600.000000   3886482   3887736   3888884   3889956   3890921  
  4590.000000   3891790   3892513   3893082   3893433   3893551  
  4580.000000   3893377   3892906   3892106   3891000   3889588  
  4570.000000   3887920   3886021   3883951   3881738   3879435  
  4560.000000   3877058   3874639   3872174   3869678   3867139  
  4550.000000   3864570   3861968   3859357   3856751   3854177  
  4540.000000   3851643   3849158   3846714   3844291   3841866  
  4530.000000   3839410   3836905   3834332   3831699   3829005  
  4520.000000   3826289   3823567   3820897   3818301   3815842  
  4510.000000   3813531   3811428   3809529   3807896   3806526  
  4500.000000   3805497   3804818   3804589   3804824   3805629  
  4490.000000   3807011   3809071   3811798   3815283   3819494  
  4480.000000   3824504   3830255   3836795   3844045   3852033  
  4470.000000   3860670   3869981   3879878   3890382   3901407  
  4460.000000   3912967   3924973   3937426   3950239   3963407  
  4450.000000   3976852   3990568   4004490   4018607   4032869  
  4440.000000   4047257   4061730   4076261   4090822   4105379  
  4430.000000   4119918   4134396   4148809   4163097   4177246  
  4420.000000   4191172   4204844   4218152   4231044   4243393  
  4410.000000   4255139   4266157   4276409   4285811   4294391  
  4400.000000   4302146   4309190   4315594   4321520   4327060  
  4390.000000   4332363   4337495   4342566   4347603   4352679  
  4380.000000   4357793   4362981   4368219   4373514   4378830  
  4370.000000   4384170   4389516   4394887   4400285   4405737  
  4360.000000   4411239   4416808   4422409   4428047   4433653  
  4350.000000   4439229   4444681   4450024   4455167   4460150  
  4340.000000   4464906   4469480   4473763   4477672   4480918  
  4330.000000   4483170   4483938   4482790   4479347   4473494  
  4320.000000   4465380   4455483   4444487   4433206   4422375  
  4310.000000   4412586   4404160   4397208   4391628   4387243  
  4300.000000   4383847   4381275   4379428   4378228   4377653  
  4290.000000   4377632   4378140   4379081   4380432   4382118  
  4280.000000   4384131   4386421   4388959   4391687   4394543  
  4270.000000   4397465   4400378   4403210   4405842   4408125  
  4260.000000   4409828   4410702   4410474   4408952   4406039  
  4250.000000   4401823   4396521   4390504   4384164   4377913  
  4240.000000   4372043   4366766   4362128   4358110   4354590  
  4230.000000   4351448   4348550   4345794   4343106   4340433  
  4220.000000   4337771   4335106   4332495   4329965   4327615  
  4210.000000   4325498   4323720   4322316   4321347   4320799  
  4200.000000   4320673   4320908   4321470   4322282   4323309  
  4190.000000   4324483   4325788   4327171   4328633   4330129  
  4180.000000   4331674   4333235   4334847   4336502   4338265  
  4170.000000   4340157   4342265   4344614   4347280   4350262  
  4160.000000   4353604   4357279   4361319   4365700   4370469  
  4150.000000   4375620   4381214   4387236   4393731   4400657  
  4140.000000   4408034   4415796   4423963   4432473   4441359  
  4130.000000   4450572   4460157   4470074   4480371   4491021  
  4120.000000   4502085   4513554   4525503   4537934   4550917  
  4110.000000   4564440   4578537   4593159   4608282   4623814  
  4100.000000   4639692   4655810   4672104   4688504   4704984  
  4090.000000   4721528   4738137   4754818   4771558   4788354  
  4080.000000   4805165   4821975   4838721   4855380   4871856  
  4070.000000   4888098   4903969   4919397   4934239   4948464  
  4060.000000   4961984   4974838   4986991   4998520   5009393  
  4050.000000   5019695   5029398   5038604   5047295   5055576  
  4040.000000   5063402   5070826   5077742   5084164   5089979  
  4030.000000   5095233   5099874   5103995   5107584   5110718  
  4020.000000   5113344   5115510   5117194   5118442   5119200  
  4010.000000   5119555   5119553   5119177   5118224   5116719  
  4000.000000   5114938  
##END= 
