##TITLE= Sample 015 By ssteindl date Dienstag, November 20 2018
##JCAMP-DX= 4.24
##DATA TYPE= INFRARED SPECTRUM
##ORIGIN= Exported PE Spectrum Data File
##OWNER= Sandra Steindl
##DATE= 18/11/20
##TIME= 16:22:18.00
##SPECTROMETER/DATA SYSTEM= PERKIN-ELMER Frontier FT-IR/NIR IR
##INSTRUMENT PARAMETERS=
  APODIZATION=stark
  DETECTOR=INGAAS
##RESOLUTION= 16.000000
##DELTAX= -2.000000
##XUNITS= 1/CM
##YUNITS= A
##XFACTOR= 1.00
##YFACTOR= 0.00000011920928955078
##FIRSTX= 10000.00
##LASTX= 4000.00
##NPOINTS= 3001
##FIRSTY= 0.257904
##MAXY= 0.634999
##MINY= 0.193440
##XYDATA= (X++(Y..Y))
 10000.000000   2163458   2158097   2153833   2152075   2152917  
  9990.000000   2155158   2157434   2158538   2157525   2153740  
  9980.000000   2147231   2138509   2128424   2117975   2108376  
  9970.000000   2100890   2096530   2095891   2098813   2104472  
  9960.000000   2111481   2118374   2123978   2127750   2129780  
  9950.000000   2130509   2130373   2129358   2127088   2122905  
  9940.000000   2116513   2108177   2098957   2090322   2083637  
  9930.000000   2079652   2078180   2078355   2078983   2079226  
  9920.000000   2078856   2078379   2078597   2080182   2083198  
  9910.000000   2087059   2090757   2093289   2094145   2093342  
  9900.000000   2091470   2089115   2086715   2084163   2081076  
  9890.000000   2076950   2071579   2065219   2058581   2052672  
  9880.000000   2048460   2046756   2047989   2052319   2059526  
  9870.000000   2069118   2080224   2091651   2101982   2109803  
  9860.000000   2114075   2114412   2111260   2105761   2099391  
  9850.000000   2093505   2088945   2085928   2084110   2082913  
  9840.000000   2081724   2080139   2077892   2074841   2070828  
  9830.000000   2065716   2059469   2052282   2044668   2037388  
  9820.000000   2031297   2027090   2025140   2025438   2027682  
  9810.000000   2031444   2036280   2041786   2047514   2052906  
  9800.000000   2057302   2060031   2060687   2059266   2056306  
  9790.000000   2052686   2049395   2047128   2046075   2045867  
  9780.000000   2045763   2044997   2043076   2039987   2036108  
  9770.000000   2032045   2028286   2025103   2022448   2020169  
  9760.000000   2018137   2016405   2015199   2014776   2015294  
  9750.000000   2016636   2018411   2019994   2020713   2020017  
  9740.000000   2017688   2013875   2009141   2004274   2000172  
  9730.000000   1997585   1996951   1998269   2001058   2004495  
  9720.000000   2007594   2009545   2009917   2008842   2006920  
  9710.000000   2005020   2003926   2004034   2005233   2006933  
  9700.000000   2008337   2008700   2007586   2004954   2001116  
  9690.000000   1996610   1992017   1987862   1984517   1982216  
  9680.000000   1981001   1980754   1981150   1981750   1982066  
  9670.000000   1981761   1980753   1979280   1977808   1976810  
  9660.000000   1976551   1976874   1977259   1976945   1975301  
  9650.000000   1972068   1967565   1962579   1958109   1954993  
  9640.000000   1953618   1953821   1955007   1956410   1957391  
  9630.000000   1957620   1957133   1956202   1955188   1954368  
  9620.000000   1953893   1953772   1953966   1954392   1955002  
  9610.000000   1955701   1956411   1957012   1957416   1957587  
  9600.000000   1957562   1957461   1957409   1957530   1957864  
  9590.000000   1958436   1959215   1960228   1961484   1963017  
  9580.000000   1964765   1966554   1968069   1968893   1968626  
  9570.000000   1966963   1963813   1959287   1953692   1947460  
  9560.000000   1941090   1935122   1930072   1926442   1924563  
  9550.000000   1924584   1926303   1929234   1932641   1935752  
  9540.000000   1937953   1938911   1938654   1937428   1935605  
  9530.000000   1933454   1931118   1928591   1925871   1923082  
  9520.000000   1920532   1918667   1917882   1918348   1919862  
  9510.000000   1921889   1923686   1924535   1923945   1921786  
  9500.000000   1918292   1913983   1909494   1905468   1902427  
  9490.000000   1900749   1900605   1901931   1904376   1907308  
  9480.000000   1909897   1911280   1910782   1908095   1903426  
  9470.000000   1897419   1891062   1885351   1881075   1878592  
  9460.000000   1877788   1878216   1879239   1880332   1881154  
  9450.000000   1881692   1882121   1882728   1883724   1885115  
  9440.000000   1886671   1887915   1888314   1887370   1884862  
  9430.000000   1880882   1875871   1870504   1865521   1861582  
  9420.000000   1859079   1858108   1858411   1859525   1860856  
  9410.000000   1861880   1862229   1861748   1860531   1858799  
  9400.000000   1856904   1855130   1853690   1852560   1851571  
  9390.000000   1850423   1848909   1847026   1845091   1843686  
  9380.000000   1843474   1845007   1848425   1853387   1859037  
  9370.000000   1864301   1868199   1870198   1870358   1869247  
  9360.000000   1867693   1866427   1865814   1865713   1865579  
  9350.000000   1864730   1862651   1859250   1854838   1850047  
  9340.000000   1845518   1841779   1839067   1837382   1836537  
  9330.000000   1836255   1836257   1836243   1835943   1835082  
  9320.000000   1833504   1831206   1828453   1825715   1823578  
  9310.000000   1822538   1822832   1824376   1826793   1829605  
  9300.000000   1832404   1835014   1837472   1839899   1842300  
  9290.000000   1844421   1845783   1845804   1844085   1840566  
  9280.000000   1835674   1830198   1825069   1821063   1818533  
  9270.000000   1817420   1817286   1817613   1817923   1818006  
  9260.000000   1817882   1817744   1817769   1818006   1818343  
  9250.000000   1818520   1818285   1817417   1815898   1813820  
  9240.000000   1811445   1809069   1806971   1805355   1804296  
  9230.000000   1803797   1803790   1804223   1805062   1806326  
  9220.000000   1808024   1810111   1812398   1814557   1816160  
  9210.000000   1816809   1816275   1814592   1812092   1809318  
  9200.000000   1806858   1805121   1804176   1803753   1803362  
  9190.000000   1802487   1800766   1798129   1794824   1791304  
  9180.000000   1788058   1785441   1783601   1782493   1781958  
  9170.000000   1781829   1781988   1782400   1783066   1784008  
  9160.000000   1785216   1786652   1788235   1789849   1791347  
  9150.000000   1792534   1793216   1793191   1792364   1790743  
  9140.000000   1788508   1785933   1783316   1780875   1778677  
  9130.000000   1776688   1774819   1773082   1771597   1770654  
  9120.000000   1770538   1771437   1773243   1775582   1777881  
  9110.000000   1779561   1780219   1779727   1778258   1776129  
  9100.000000   1773672   1771071   1768383   1765576   1762668  
  9090.000000   1759785   1757161   1755069   1753672   1752961  
  9080.000000   1752714   1752632   1752462   1752133   1751772  
  9070.000000   1751614   1751871   1752568   1753509   1754326  
  9060.000000   1754654   1754291   1753310   1752018   1750841  
  9050.000000   1750148   1750115   1750646   1751427   1752055  
  9040.000000   1752204   1751695   1750519   1748798   1746742  
  9030.000000   1744593   1742576   1740919   1739831   1739484  
  9020.000000   1739952   1741192   1743019   1745144   1747189  
  9010.000000   1748821   1749802   1750052   1749636   1748717  
  9000.000000   1747535   1746307   1745198   1744256   1743415  
  8990.000000   1742506   1741308   1739641   1737455   1734895  
  8980.000000   1732293   1730085   1728665   1728233   1728700  
  8970.000000   1729699   1730706   1731237   1731042   1730214  
  8960.000000   1729154   1728401   1728402   1729337   1731054  
  8950.000000   1733117   1734994   1736230   1736618   1736184  
  8940.000000   1735124   1733679   1732050   1730352   1728651  
  8930.000000   1727020   1725623   1724654   1724287   1724556  
  8920.000000   1725311   1726249   1726984   1727247   1726971  
  8910.000000   1726376   1725895   1726024   1727153   1729385  
  8900.000000   1732503   1735987   1739182   1741439   1742307  
  8890.000000   1741651   1739695   1736973   1734168   1731972  
  8880.000000   1730890   1731143   1732587   1734777   1737106  
  8870.000000   1738966   1739933   1739837   1738783   1737059  
  8860.000000   1735035   1733029   1731266   1729858   1728880  
  8850.000000   1728422   1728606   1729581   1731409   1734049  
  8840.000000   1737265   1740705   1743925   1746539   1748293  
  8830.000000   1749096   1749021   1748223   1746921   1745298  
  8820.000000   1743506   1741639   1739771   1737955   1736214  
  8810.000000   1734573   1733033   1731642   1730463   1729615  
  8800.000000   1729206   1729314   1729917   1730866   1731931  
  8790.000000   1732833   1733381   1733488   1733245   1732830  
  8780.000000   1732470   1732322   1732444   1732788   1733251  
  8770.000000   1733770   1734342   1735066   1736054   1737388  
  8760.000000   1739032   1740839   1742573   1743973   1744833  
  8750.000000   1745016   1744499   1743306   1741526   1739269  
  8740.000000   1736710   1734098   1731747   1730006   1729159  
  8730.000000   1729370   1730591   1732587   1734976   1737348  
  8720.000000   1739388   1740929   1741981   1742654   1743106  
  8710.000000   1743447   1743733   1743976   1744199   1744479  
  8700.000000   1744941   1745737   1746965   1748614   1750528  
  8690.000000   1752424   1753967   1754837   1754832   1753889  
  8680.000000   1752124   1749773   1747165   1744656   1742605  
  8670.000000   1741329   1741055   1741883   1743740   1746399  
  8660.000000   1749502   1752641   1755436   1757628   1759143  
  8650.000000   1760086   1760697   1761243   1761953   1762928  
  8640.000000   1764160   1765530   1766900   1768140   1769175  
  8630.000000   1769990   1770590   1771001   1771219   1771261  
  8620.000000   1771170   1771058   1771106   1771509   1772436  
  8610.000000   1773916   1775819   1777839   1779586   1780704  
  8600.000000   1781001   1780540   1779649   1778841   1778663  
  8590.000000   1779535   1781618   1784755   1788520   1792336  
  8580.000000   1795640   1798028   1799332   1799656   1799314  
  8570.000000   1798745   1798383   1798562   1799444   1800989  
  8560.000000   1802979   1805067   1806866   1808053   1808435  
  8550.000000   1808024   1807017   1805779   1804720   1804211  
  8540.000000   1804463   1805502   1807175   1809209   1811286  
  8530.000000   1813128   1814545   1815470   1815923   1815999  
  8520.000000   1815816   1815509   1815203   1815007   1815002  
  8510.000000   1815219   1815641   1816187   1816736   1817142  
  8500.000000   1817281   1817067   1816480   1815558   1814399  
  8490.000000   1813137   1811936   1810975   1810446   1810515  
  8480.000000   1811300   1812818   1814965   1817510   1820138  
  8470.000000   1822513   1824377   1825607   1826271   1826577  
  8460.000000   1826832   1827316   1828223   1829580   1831264  
  8450.000000   1833038   1834644   1835875   1836636   1836965  
  8440.000000   1837003   1836955   1837008   1837313   1837924  
  8430.000000   1838837   1839975   1841255   1842591   1843940  
  8420.000000   1845270   1846581   1847849   1849034   1850043  
  8410.000000   1850761   1851059   1850839   1850074   1848816  
  8400.000000   1847209   1845446   1843730   1842224   1841000  
  8390.000000   1840058   1839303   1838640   1837991   1837366  
  8380.000000   1836851   1836596   1836736   1837337   1838335  
  8370.000000   1839520   1840593   1841235   1841231   1840514  
  8360.000000   1839228   1837658   1836169   1835073   1834532  
  8350.000000   1834533   1834905   1835414   1835842   1836085  
  8340.000000   1836164   1836205   1836350   1836688   1837200  
  8330.000000   1837753   1838153   1838210   1837821   1836997  
  8320.000000   1835857   1834592   1833399   1832455   1831856  
  8310.000000   1831636   1831743   1832079   1832491   1832806  
  8300.000000   1832837   1832434   1831522   1830128   1828394  
  8290.000000   1826523   1824745   1823225   1822031   1821116  
  8280.000000   1820358   1819638   1818891   1818167   1817585  
  8270.000000   1817308   1817434   1817967   1818773   1819633  
  8260.000000   1820306   1820599   1820429   1819805   1818814  
  8250.000000   1817543   1816046   1814322   1812342   1810112  
  8240.000000   1807701   1805284   1803080   1801333   1800198  
  8230.000000   1799728   1799796   1800166   1800511   1800531  
  8220.000000   1800005   1798849   1797120   1794985   1792673  
  8210.000000   1790399   1788317   1786475   1784832   1783284  
  8200.000000   1781718   1780060   1778297   1776499   1774776  
  8190.000000   1773252   1772001   1771029   1770257   1769562  
  8180.000000   1768813   1767920   1766863   1765693   1764504  
  8170.000000   1763392   1762416   1761561   1760750   1759857  
  8160.000000   1758764   1757389   1755727   1753847   1751871  
  8150.000000   1749945   1748187   1746665   1745372   1744253  
  8140.000000   1743224   1742218   1741212   1740228   1739318  
  8130.000000   1738528   1737865   1737268   1736631   1735817  
  8120.000000   1734728   1733332   1731709   1730016   1728447  
  8110.000000   1727178   1726291   1725782   1725544   1725443  
  8100.000000   1725348   1725193   1724972   1724723   1724478  
  8090.000000   1724213   1723844   1723220   1722202   1720689  
  8080.000000   1718703   1716358   1713869   1711477   1709389  
  8070.000000   1707752   1706607   1705941   1705677   1705749  
  8060.000000   1706080   1706620   1707305   1708049   1708736  
  8050.000000   1709209   1709311   1708893   1707873   1706243  
  8040.000000   1704096   1701610   1699027   1696615   1694605  
  8030.000000   1693167   1692350   1692091   1692206   1692451  
  8020.000000   1692552   1692281   1691491   1690146   1688327  
  8010.000000   1686199   1683983   1681889   1680098   1678704  
  8000.000000   1677725   1677094   1676696   1676395   1676066  
  7990.000000   1675633   1675076   1674433   1673787   1673228  
  7980.000000   1672833   1672630   1672602   1672679   1672778  
  7970.000000   1672813   1672734   1672520   1672190   1671777  
  7960.000000   1671323   1670850   1670373   1669886   1669383  
  7950.000000   1668854   1668300   1667739   1667198   1666725  
  7940.000000   1666375   1666208   1666268   1666570   1667078  
  7930.000000   1667701   1668309   1668750   1668904   1668710  
  7920.000000   1668199   1667478   1666708   1666045   1665596  
  7910.000000   1665387   1665366   1665430   1665471   1665422  
  7900.000000   1665271   1665066   1664881   1664784   1664808  
  7890.000000   1664944   1665152   1665381   1665597   1665788  
  7880.000000   1665964   1666138   1666314   1666474   1666589  
  7870.000000   1666626   1666567   1666419   1666211   1665992  
  7860.000000   1665809   1665698   1665675   1665743   1665883  
  7850.000000   1666077   1666296   1666512   1666693   1666815  
  7840.000000   1666858   1666816   1666693   1666499   1666242  
  7830.000000   1665924   1665535   1665065   1664512   1663897  
  7820.000000   1663258   1662648   1662106   1661649   1661247  
  7810.000000   1660849   1660390   1659836   1659198   1658541  
  7800.000000   1657957   1657525   1657276   1657164   1657079  
  7790.000000   1656884   1656463   1655768   1654835   1653773  
  7780.000000   1652719   1651796   1651071   1650547   1650178  
  7770.000000   1649898   1649652   1649412   1649173   1648936  
  7760.000000   1648689   1648394   1648002   1647463   1646760  
  7750.000000   1645920   1645017   1644155   1643442   1642962  
  7740.000000   1642757   1642820   1643094   1643494   1643909  
  7730.000000   1644234   1644371   1644260   1643882   1643279  
  7720.000000   1642543   1641802   1641186   1640789   1640640  
  7710.000000   1640684   1640800   1640827   1640615   1640065  
  7700.000000   1639157   1637956   1636588   1635214   1633985  
  7690.000000   1633014   1632356   1632009   1631918   1631992  
  7680.000000   1632125   1632214   1632171   1631941   1631513  
  7670.000000   1630911   1630210   1629495   1628866   1628388  
  7660.000000   1628095   1627966   1627947   1627972   1627995  
  7650.000000   1628018   1628083   1628274   1628667   1629308  
  7640.000000   1630167   1631144   1632083   1632804   1633162  
  7630.000000   1633075   1632555   1631682   1630587   1629397  
  7620.000000   1628211   1627084   1626034   1625067   1624199  
  7610.000000   1623474   1622949   1622690   1622728   1623052  
  7600.000000   1623599   1624270   1624962   1625580   1626074  
  7590.000000   1626418   1626631   1626738   1626784   1626812  
  7580.000000   1626882   1627051   1627387   1627937   1628724  
  7570.000000   1629712   1630815   1631900   1632830   1633495  
  7560.000000   1633854   1633940   1633862   1633757   1633768  
  7550.000000   1633995   1634475   1635180   1636040   1636969  
  7540.000000   1637894   1638777   1639611   1640408   1641184  
  7530.000000   1641942   1642669   1643335   1643916   1644398  
  7520.000000   1644799   1645153   1645512   1645920   1646408  
  7510.000000   1646978   1647617   1648301   1649020   1649776  
  7500.000000   1650590   1651484   1652471   1653536   1654646  
  7490.000000   1655745   1656795   1657769   1658685   1659575  
  7480.000000   1660491   1661460   1662493   1663558   1664615  
  7470.000000   1665624   1666581   1667514   1668491   1669584  
  7460.000000   1670862   1672352   1674054   1675923   1677910  
  7450.000000   1679952   1682009   1684033   1685994   1687850  
  7440.000000   1689575   1691153   1692605   1693986   1695388  
  7430.000000   1696920   1698682   1700730   1703059   1705598  
  7420.000000   1708228   1710815   1713238   1715421   1717349  
  7410.000000   1719065   1720653   1722206   1723809   1725505  
  7400.000000   1727292   1729124   1730937   1732669   1734289  
  7390.000000   1735818   1737320   1738889   1740610   1742538  
  7380.000000   1744664   1746921   1749202   1751395   1753421  
  7370.000000   1755252   1756915   1758474   1760000   1761547  
  7360.000000   1763136   1764754   1766371   1767957   1769498  
  7350.000000   1771003   1772498   1774021   1775601   1777254  
  7340.000000   1778977   1780749   1782541   1784314   1786034  
  7330.000000   1787673   1789217   1790668   1792046   1793388  
  7320.000000   1794731   1796113   1797562   1799092   1800706  
  7310.000000   1802393   1804135   1805897   1807633   1809285  
  7300.000000   1810795   1812120   1813253   1814231   1815135  
  7290.000000   1816075   1817152   1818431   1819919   1821570  
  7280.000000   1823306   1825048   1826739   1828355   1829899  
  7270.000000   1831374   1832775   1834065   1835211   1836187  
  7260.000000   1837020   1837775   1838569   1839514   1840699  
  7250.000000   1842153   1843852   1845731   1847728   1849804  
  7240.000000   1851964   1854225   1856614   1859104   1861645  
  7230.000000   1864131   1866481   1868627   1870583   1872401  
  7220.000000   1874192   1876062   1878121   1880436   1883059  
  7210.000000   1886007   1889278   1892834   1896607   1900491  
  7200.000000   1904371   1908135   1911726   1915139   1918448  
  7190.000000   1921746   1925145   1928692   1932387   1936144  
  7180.000000   1939860   1943431   1946817   1950043   1953206  
  7170.000000   1956423   1959812   1963441   1967328   1971425  
  7160.000000   1975660   1979935   1984178   1988332   1992395  
  7150.000000   1996386   2000384   2004475   2008777   2013364  
  7140.000000   2018286   2023509   2028964   2034530   2040115  
  7130.000000   2045649   2051138   2056623   2062190   2067903  
  7120.000000   2073810   2079895   2086122   2092414   2098717  
  7110.000000   2104976   2111179   2117314   2123400   2129451  
  7100.000000   2135508   2141609   2147810   2154145   2160630  
  7090.000000   2167239   2173917   2180590   2187211   2193765  
  7080.000000   2200296   2206872   2213568   2220417   2227392  
  7070.000000   2234406   2241347   2248118   2254678   2261053  
  7060.000000   2267321   2273580   2279907   2286337   2292854  
  7050.000000   2299412   2305952   2312432   2318824   2325119  
  7040.000000   2331312   2337408   2343406   2349322   2355181  
  7030.000000   2361022   2366875   2372761   2378671   2384582  
  7020.000000   2390458   2396283   2402052   2407786   2413489  
  7010.000000   2419157   2424743   2430192   2435442   2440476  
  7000.000000   2445316   2450040   2454725   2459441   2464190  
  6990.000000   2468938   2473604   2478134   2482501   2486747  
  6980.000000   2490933   2495135   2499369   2503608   2507757  
  6970.000000   2511720   2515410   2518812   2521961   2524954  
  6960.000000   2527883   2530837   2533851   2536938   2540067  
  6950.000000   2543211   2546322   2549368   2552302   2555100  
  6940.000000   2557733   2560212   2562559   2564829   2567064  
  6930.000000   2569301   2571530   2573725   2575829   2577810  
  6920.000000   2579643   2581352   2582960   2584500   2585977  
  6910.000000   2587389   2588718   2589973   2591181   2592400  
  6900.000000   2593678   2595040   2596454   2597852   2599139  
  6890.000000   2600252   2601173   2601957   2602693   2603477  
  6880.000000   2604361   2605343   2606369   2607369   2608290  
  6870.000000   2609126   2609908   2610696   2611534   2612443  
  6860.000000   2613408   2614404   2615412   2616436   2617495  
  6850.000000   2618609   2619772   2620945   2622060   2623055  
  6840.000000   2623891   2624581   2625177   2625749   2626349  
  6830.000000   2626992   2627647   2628257   2628766   2629147  
  6820.000000   2629402   2629566   2629672   2629754   2629822  
  6810.000000   2629890   2629966   2630082   2630272   2630569  
  6800.000000   2630972   2631451   2631932   2632336   2632588  
  6790.000000   2632651   2632528   2632253   2631877   2631446  
  6780.000000   2631000   2630572   2630192   2629895   2629708  
  6770.000000   2629649   2629705   2629840   2630003   2630147  
  6760.000000   2630250   2630319   2630381   2630463   2630574  
  6750.000000   2630689   2630767   2630763   2630662   2630483  
  6740.000000   2630283   2630126   2630063   2630107   2630238  
  6730.000000   2630413   2630595   2630775   2630969   2631215  
  6720.000000   2631541   2631953   2632420   2632889   2633299  
  6710.000000   2633610   2633801   2633883   2633873   2633793  
  6700.000000   2633651   2633459   2633217   2632944   2632652  
  6690.000000   2632363   2632077   2631786   2631457   2631061  
  6680.000000   2630565   2629962   2629253   2628459   2627595  
  6670.000000   2626683   2625738   2624786   2623854   2622981  
  6660.000000   2622189   2621488   2620850   2620224   2619545  
  6650.000000   2618766   2617866   2616868   2615817   2614758  
  6640.000000   2613711   2612663   2611570   2610391   2609100  
  6630.000000   2607717   2606293   2604902   2603596   2602403  
  6620.000000   2601299   2600244   2599180   2598071   2596902  
  6610.000000   2595679   2594412   2593100   2591727   2590268  
  6600.000000   2588702   2587029   2585273   2583481   2581704  
  6590.000000   2579986   2578354   2576818   2575370   2574000  
  6580.000000   2572689   2571417   2570155   2568873   2567541  
  6570.000000   2566142   2564675   2563154   2561607   2560055  
  6560.000000   2558508   2556958   2555388   2553784   2552149  
  6550.000000   2550505   2548890   2547338   2545869   2544477  
  6540.000000   2543132   2541797   2540443   2539055   2537638  
  6530.000000   2536203   2534758   2533302   2531827   2530332  
  6520.000000   2528827   2527345   2525926   2524606   2523400  
  6510.000000   2522292   2521244   2520206   2519141   2518034  
  6500.000000   2516891   2515731   2514566   2513391   2512180  
  6490.000000   2510904   2509543   2508099   2506602   2505096  
  6480.000000   2503622   2502202   2500832   2499487   2498138  
  6470.000000   2496768   2495378   2493990   2492630   2491324  
  6460.000000   2490083   2488903   2487770   2486666   2485575  
  6450.000000   2484480   2483369   2482223   2481032   2479786  
  6440.000000   2478495   2477184   2475896   2474677   2473569  
  6430.000000   2472590   2471739   2470989   2470309   2469659  
  6420.000000   2469020   2468378   2467742   2467123   2466543  
  6410.000000   2466014   2465546   2465133   2464762   2464408  
  6400.000000   2464048   2463665   2463262   2462860   2462500  
  6390.000000   2462226   2462072   2462048   2462131   2462275  
  6380.000000   2462419   2462509   2462510   2462407   2462206  
  6370.000000   2461920   2461558   2461129   2460640   2460111  
  6360.000000   2459573   2459071   2458642   2458306   2458048  
  6350.000000   2457822   2457557   2457187   2456662   2455971  
  6340.000000   2455132   2454193   2453207   2452230   2451300  
  6330.000000   2450451   2449694   2449037   2448465   2447950  
  6320.000000   2447441   2446882   2446218   2445420   2444486  
  6310.000000   2443448   2442353   2441252   2440169   2439108  
  6300.000000   2438045   2436951   2435800   2434583   2433301  
  6290.000000   2431965   2430577   2429139   2427643   2426093  
  6280.000000   2424506   2422924   2421390   2419946   2418605  
  6270.000000   2417352   2416139   2414910   2413613   2412221  
  6260.000000   2410739   2409197   2407636   2406098   2404610  
  6250.000000   2403182   2401807   2400466   2399131   2397766  
  6240.000000   2396335   2394809   2393173   2391437   2389635  
  6230.000000   2387824   2386057   2384378   2382801   2381310  
  6220.000000   2379868   2378438   2376992   2375528   2374063  
  6210.000000   2372622   2371221   2369860   2368520   2367170  
  6200.000000   2365790   2364370   2362923   2361472   2360047  
  6190.000000   2358664   2357333   2356049   2354806   2353600  
  6180.000000   2352432   2351308   2350232   2349208   2348232  
  6170.000000   2347297   2346399   2345532   2344689   2343858  
  6160.000000   2343022   2342152   2341222   2340205   2339092  
  6150.000000   2337888   2336617   2335314   2334019   2332774  
  6140.000000   2331613   2330567   2329655   2328881   2328230  
  6130.000000   2327662   2327124   2326552   2325898   2325135  
  6120.000000   2324274   2323350   2322420   2321532   2320724  
  6110.000000   2320001   2319359   2318779   2318257   2317798  
  6100.000000   2317422   2317146   2316979   2316907   2316903  
  6090.000000   2316921   2316931   2316907   2316855   2316787  
  6080.000000   2316734   2316718   2316765   2316882   2317082  
  6070.000000   2317360   2317719   2318143   2318629   2319161  
  6060.000000   2319743   2320374   2321084   2321893   2322838  
  6050.000000   2323926   2325165   2326522   2327978   2329493  
  6040.000000   2331059   2332668   2334339   2336080   2337905  
  6030.000000   2339804   2341774   2343799   2345886   2348040  
  6020.000000   2350284   2352620   2355046   2357520   2359993  
  6010.000000   2362402   2364715   2366915   2369039   2371134  
  6000.000000   2373272   2375499   2377856   2380343   2382956  
  5990.000000   2385671   2388480   2391374   2394364   2397449  
  5980.000000   2400640   2403925   2407304   2410753   2414269  
  5970.000000   2417833   2421450   2425108   2428818   2432573  
  5960.000000   2436389   2440264   2444212   2448230   2452328  
  5950.000000   2456497   2460742   2465058   2469458   2473950  
  5940.000000   2478551   2483271   2488115   2493072   2498121  
  5930.000000   2503231   2508360   2513468   2518504   2523421  
  5920.000000   2528166   2532690   2536955   2540943   2544658  
  5910.000000   2548131   2551409   2554552   2557609   2560636  
  5900.000000   2563665   2566740   2569883   2573135   2576506  
  5890.000000   2580012   2583625   2587314   2591011   2594657  
  5880.000000   2598186   2601558   2604734   2607701   2610442  
  5870.000000   2612957   2615247   2617329   2619235   2621016  
  5860.000000   2622721   2624403   2626091   2627806   2629549  
  5850.000000   2631327   2633144   2635025   2636984   2639039  
  5840.000000   2641177   2643369   2645572   2647740   2649850  
  5830.000000   2651897   2653906   2655902   2657911   2659933  
  5820.000000   2661958   2663962   2665933   2667875   2669810  
  5810.000000   2671775   2673795   2675884   2678024   2680200  
  5800.000000   2682378   2684562   2686746   2688968   2691226  
  5790.000000   2693528   2695813   2698017   2700009   2701677  
  5780.000000   2702883   2703536   2703552   2702916   2701638  
  5770.000000   2699803   2697515   2694933   2692198   2689462  
  5760.000000   2686816   2684334   2682022   2679889   2677907  
  5750.000000   2676075   2674374   2672805   2671347   2669982  
  5740.000000   2668680   2667412   2666167   2664937   2663734  
  5730.000000   2662558   2661412   2660275   2659131   2657959  
  5720.000000   2656765   2655567   2654410   2653332   2652362  
  5710.000000   2651499   2650718   2649978   2649243   2648490  
  5700.000000   2647717   2646943   2646186   2645465   2644779  
  5690.000000   2644125   2643484   2642852   2642214   2641572  
  5680.000000   2640906   2640207   2639434   2638559   2637534  
  5670.000000   2636329   2634905   2633244   2631317   2629122  
  5660.000000   2626660   2623969   2621101   2618142   2615171  
  5650.000000   2612265   2609466   2606791   2604223   2601741  
  5640.000000   2599324   2596969   2594685   2592486   2590385  
  5630.000000   2588379   2586461   2584616   2582847   2581155  
  5620.000000   2579564   2578082   2576719   2575452   2574259  
  5610.000000   2573101   2571960   2570825   2569717   2568655  
  5600.000000   2567663   2566747   2565899   2565097   2564315  
  5590.000000   2563531   2562734   2561917   2561075   2560205  
  5580.000000   2559300   2558361   2557393   2556410   2555430  
  5570.000000   2554467   2553520   2552575   2551603   2550576  
  5560.000000   2549472   2548287   2547029   2545718   2544377  
  5550.000000   2543026   2541684   2540369   2539100   2537901  
  5540.000000   2536785   2535755   2534790   2533858   2532918  
  5530.000000   2531938   2530910   2529845   2528775   2527729  
  5520.000000   2526724   2525754   2524795   2523815   2522792  
  5510.000000   2521718   2520605   2519475   2518341   2517211  
  5500.000000   2516076   2514925   2513743   2512528   2511283  
  5490.000000   2510014   2508717   2507383   2505990   2504527  
  5480.000000   2502990   2501400   2499783   2498176   2496596  
  5470.000000   2495049   2493517   2491977   2490404   2488786  
  5460.000000   2487118   2485399   2483623   2481781   2479863  
  5450.000000   2477872   2475825   2473766   2471744   2469804  
  5440.000000   2467971   2466238   2464580   2462962   2461364  
  5430.000000   2459776   2458216   2456694   2455224   2453794  
  5420.000000   2452401   2451029   2449702   2448442   2447309  
  5410.000000   2446334   2445550   2444936   2444474   2444119  
  5400.000000   2443862   2443692   2443641   2443719   2443950  
  5390.000000   2444313   2444798   2445369   2446032   2446792  
  5380.000000   2447705   2448799   2450123   2451660   2453406  
  5370.000000   2455300   2457327   2459438   2461657   2463965  
  5360.000000   2466412   2468985   2471738   2474666   2477855  
  5350.000000   2481331   2485206   2489508   2494323   2499618  
  5340.000000   2505421   2511653   2518340   2525417   2532944  
  5330.000000   2540875   2549279   2558098   2567394   2577110  
  5320.000000   2587341   2598073   2609447   2621468   2634276  
  5310.000000   2647836   2662233   2677379   2693329   2709996  
  5300.000000   2727460   2745673   2764756   2784692   2805601  
  5290.000000   2827442   2850264   2873938   2898409   2923484  
  5280.000000   2949096   2975122   3001614   3028599   3056225  
  5270.000000   3084542   3113592   3143251   3173334   3203584  
  5260.000000   3233785   3263810   3293636   3323340   3352988  
  5250.000000   3382634   3412182   3441502   3470332   3498516  
  5240.000000   3525864   3552406   3578128   3603200   3627649  
  5230.000000   3651602   3674978   3697779   3719825   3741079  
  5220.000000   3761391   3780818   3799323   3817072   3834099  
  5210.000000   3850583   3866504   3881941   3896751   3910924  
  5200.000000   3924288   3936870   3948588   3959561   3969768  
  5190.000000   3979334   3988207   3996457   4003995   4010886  
  5180.000000   4017073   4022662   4027624   4032062   4035918  
  5170.000000   4039241   4041945   4044074   4045573   4046529  
  5160.000000   4046926   4046861   4046307   4045328   4043875  
  5150.000000   4042002   4039679   4036974   4033870   4030425  
  5140.000000   4026604   4022440   4017899   4013033   4007852  
  5130.000000   4002446   3996851   3991146   3985338   3979458  
  5120.000000   3973480   3967418   3961254   3955015   3948700  
  5110.000000   3942333   3935906   3929430   3922899   3916336  
  5100.000000   3909765   3903230   3896761   3890384   3884089  
  5090.000000   3877858   3871656   3865462   3859258   3853058  
  5080.000000   3846868   3840706   3834563   3828427   3822266  
  5070.000000   3816056   3809773   3803416   3796982   3790484  
  5060.000000   3783916   3777285   3770576   3763794   3756937  
  5050.000000   3750022   3743057   3736059   3729025   3721950  
  5040.000000   3714817   3707618   3700351   3693030   3685677  
  5030.000000   3678324   3670999   3663722   3656513   3649377  
  5020.000000   3642328   3635371   3628525   3621797   3615204  
  5010.000000   3608748   3602444   3596287   3590298   3584471  
  5000.000000   3578831   3573367   3568093   3562985   3558049  
  4990.000000   3553257   3548629   3544153   3539873   3535792  
  4980.000000   3531964   3528386   3525097   3522077   3519355  
  4970.000000   3516902   3514749   3512867   3511294   3510001  
  4960.000000   3509026   3508339   3507980   3507923   3508214  
  4950.000000   3508827   3509813   3511138   3512850   3514913  
  4940.000000   3517373   3520199   3523447   3527086   3531169  
  4930.000000   3535660   3540597   3545932   3551699   3557851  
  4920.000000   3564423   3571380   3578757   3586518   3594688  
  4910.000000   3603226   3612141   3621386   3630957   3640803  
  4900.000000   3650903   3661206   3671677   3682273   3692951  
  4890.000000   3703676   3714392   3725055   3735579   3745902  
  4880.000000   3755912   3765550   3774708   3783361   3791423  
  4870.000000   3798901   3805724   3811915   3817407   3822234  
  4860.000000   3826343   3829783   3832516   3834602   3836014  
  4850.000000   3836822   3837020   3836705   3835910   3834758  
  4840.000000   3833309   3831688   3829942   3828157   3826350  
  4830.000000   3824566   3822804   3821095   3819443   3817873  
  4820.000000   3816396   3815028   3813780   3812656   3811670  
  4810.000000   3810822   3810130   3809592   3809222   3809009  
  4800.000000   3808961   3809058   3809303   3809676   3810182  
  4790.000000   3810797   3811523   3812338   3813240   3814215  
  4780.000000   3815273   3816413   3817654   3818996   3820448  
  4770.000000   3821995   3823623   3825303   3827011   3828720  
  4760.000000   3830416   3832082   3833706   3835277   3836784  
  4750.000000   3838219   3839583   3840883   3842135   3843358  
  4740.000000   3844569   3845783   3847005   3848235   3849470  
  4730.000000   3850707   3851947   3853186   3854428   3855665  
  4720.000000   3856899   3858120   3859341   3860567   3861838  
  4710.000000   3863177   3864636   3866240   3868027   3870001  
  4700.000000   3872183   3874566   3877163   3879970   3883005  
  4690.000000   3886263   3889749   3893443   3897328   3901360  
  4680.000000   3905509   3909716   3913950   3918153   3922297  
  4670.000000   3926335   3930252   3934022   3937657   3941167  
  4660.000000   3944601   3948009   3951469   3955049   3958826  
  4650.000000   3962852   3967164   3971769   3976645   3981755  
  4640.000000   3987033   3992420   3997844   4003255   4008597  
  4630.000000   4013841   4018944   4023886   4028621   4033122  
  4620.000000   4037330   4041209   4044696   4047765   4050370  
  4610.000000   4052528   4054235   4055564   4056559   4057324  
  4600.000000   4057912   4058415   4058845   4059248   4059584  
  4590.000000   4059850   4059976   4059934   4059651   4059102  
  4580.000000   4058233   4057047   4055533   4053730   4051669  
  4570.000000   4049420   4047025   4044548   4042010   4039445  
  4560.000000   4036846   4034228   4031580   4028919   4026242  
  4550.000000   4023567   4020887   4018206   4015504   4012771  
  4540.000000   4009991   4007165   4004302   4001419   3998537  
  4530.000000   3995668   3992816   3989963   3987097   3984187  
  4520.000000   3981233   3978224   3975200   3972177   3969224  
  4510.000000   3966367   3963687   3961204   3959005   3957106  
  4500.000000   3955602   3954501   3953901   3953794   3954274  
  4490.000000   3955323   3957039   3959408   3962543   3966428  
  4480.000000   3971169   3976726   3983169   3990418   3998514  
  4470.000000   4007358   4016983   4027299   4038351   4050062  
  4460.000000   4062471   4075498   4089157   4103348   4118056  
  4450.000000   4133171   4148669   4164460   4180531   4196827  
  4440.000000   4213340   4230030   4246863   4263786   4280724  
  4430.000000   4297613   4314359   4330914   4347189   4363165  
  4420.000000   4378755   4393949   4408646   4422819   4436346  
  4410.000000   4449187   4461214   4472399   4482642   4491969  
  4400.000000   4500350   4507896   4514659   4520819   4526478  
  4390.000000   4531825   4536947   4541984   4546966   4551959  
  4380.000000   4556936   4561913   4566850   4571760   4576634  
  4370.000000   4581515   4586434   4591449   4596588   4601886  
  4360.000000   4607334   4612934   4618641   4624457   4630319  
  4350.000000   4636245   4642149   4648051   4653839   4659522  
  4340.000000   4664980   4670194   4674996   4679251   4682634  
  4330.000000   4684802   4685275   4683644   4679567   4672970  
  4320.000000   4664042   4653305   4641476   4629406   4617859  
  4310.000000   4607451   4598520   4591176   4585312   4580729  
  4300.000000   4577194   4574516   4572577   4571292   4570650  
  4290.000000   4570595   4571130   4572184   4573752   4575767  
  4280.000000   4578216   4581032   4584161   4587510   4590976  
  4270.000000   4594455   4597827   4600986   4603781   4606051  
  4260.000000   4607566   4608094   4607387   4605285   4601721  
  4250.000000   4596806   4590768   4583988   4576857   4569795  
  4240.000000   4563098   4556995   4551542   4546735   4542457  
  4230.000000   4538589   4534984   4531524   4528122   4524708  
  4220.000000   4521275   4517810   4514383   4511035   4507890  
  4210.000000   4505019   4502547   4500518   4499003   4497984  
  4200.000000   4497459   4497357   4497634   4498205   4499031  
  4190.000000   4500040   4501221   4502518   4503936   4505422  
  4180.000000   4506981   4508559   4510168   4511773   4513424  
  4170.000000   4515131   4516990   4519054   4521439   4524194  
  4160.000000   4527409   4531092   4535285   4539951   4545105  
  4150.000000   4550687   4556708   4563106   4569901   4577037  
  4140.000000   4584550   4592392   4600610   4609163   4618104  
  4130.000000   4627388   4637065   4647094   4657528   4668342  
  4120.000000   4679604   4691314   4703556   4716340   4729746  
  4110.000000   4743772   4758461   4773768   4789672   4806067  
  4100.000000   4822875   4839963   4857245   4874629   4892079  
  4090.000000   4909575   4927125   4944735   4962396   4980096  
  4080.000000   4997780   5015425   5032958   5050361   5067549  
  4070.000000   5084490   5101058   5117189   5132731   5147639  
  4060.000000   5161799   5175236   5187902   5199880   5211148  
  4050.000000   5221814   5231865   5241423   5250473   5259123  
  4040.000000   5267319   5275111   5282382   5289142   5295277  
  4030.000000   5300832   5305752   5310128   5313943   5317271  
  4020.000000   5320052   5322339   5324115   5325437   5326258  
  4010.000000   5326679   5326754   5326462   5325571   5324097  
  4000.000000   5322327  
##END= 
