##TITLE= Sample 016 By ssteindl date Dienstag, November 20 2018
##JCAMP-DX= 4.24
##DATA TYPE= INFRARED SPECTRUM
##ORIGIN= Exported PE Spectrum Data File
##OWNER= Sandra Steindl
##DATE= 18/11/20
##TIME= 16:23:20.00
##SPECTROMETER/DATA SYSTEM= PERKIN-ELMER Frontier FT-IR/NIR IR
##INSTRUMENT PARAMETERS=
  APODIZATION=stark
  DETECTOR=INGAAS
##RESOLUTION= 16.000000
##DELTAX= -2.000000
##XUNITS= 1/CM
##YUNITS= A
##XFACTOR= 1.00
##YFACTOR= 0.00000011920928955078
##FIRSTX= 10000.00
##LASTX= 4000.00
##NPOINTS= 3001
##FIRSTY= 0.226015
##MAXY= 0.620782
##MINY= 0.180529
##XYDATA= (X++(Y..Y))
 10000.000000   1895950   1896206   1896876   1898296   1900157  
  9990.000000   1901916   1903408   1904708   1905612   1905613  
  9980.000000   1904241   1901356   1897249   1892710   1888893  
  9970.000000   1886938   1887443   1890232   1894312   1898294  
  9960.000000   1900823   1901151   1899285   1895968   1892304  
  9950.000000   1889323   1887638   1887256   1887708   1888247  
  9940.000000   1888133   1886823   1884032   1879800   1874416  
  9930.000000   1868498   1862842   1858422   1856039   1856136  
  9920.000000   1858472   1862127   1865690   1867675   1867067  
  9910.000000   1863586   1857858   1850994   1844245   1838369  
  9900.000000   1833527   1829248   1824908   1820138   1815175  
  9890.000000   1810879   1808380   1808660   1812071   1818256  
  9880.000000   1826246   1834840   1842918   1849650   1854520  
  9870.000000   1857253   1857776   1856205   1852967   1848801  
  9860.000000   1844731   1841760   1840532   1840971   1842195  
  9850.000000   1842770   1841229   1836726   1829390   1820402  
  9840.000000   1811540   1804585   1800663   1799931   1801667  
  9830.000000   1804651   1807782   1810393   1812439   1814219  
  9820.000000   1816062   1818032   1819851   1821126   1821641  
  9810.000000   1821600   1821691   1822786   1825618   1830334  
  9800.000000   1836360   1842516   1847345   1849633   1848718  
  9790.000000   1844732   1838476   1831231   1824382   1819148  
  9780.000000   1816288   1816004   1817856   1820911   1823903  
  9770.000000   1825603   1825090   1822078   1816946   1810702  
  9760.000000   1804635   1799956   1797414   1797078   1798391  
  9750.000000   1800379   1802032   1802593   1801754   1799626  
  9740.000000   1796619   1793219   1789870   1786857   1784349  
  9730.000000   1782370   1780892   1779796   1778973   1778323  
  9720.000000   1777844   1777654   1777946   1778943   1780723  
  9710.000000   1783174   1785939   1788532   1790512   1791657  
  9700.000000   1792062   1792067   1792069   1792286   1792619  
  9690.000000   1792657   1791896   1789966   1786855   1782920  
  9680.000000   1778743   1774899   1771718   1769238   1767251  
  9670.000000   1765558   1764095   1763066   1762777   1763489  
  9660.000000   1765173   1767481   1769835   1771643   1772534  
  9650.000000   1772446   1771608   1770303   1768719   1766775  
  9640.000000   1764264   1760989   1757051   1752881   1749165  
  9630.000000   1746545   1745322   1745324   1745946   1746498  
  9620.000000   1746493   1745964   1745379   1745482   1746856  
  9610.000000   1749676   1753555   1757704   1761222   1763402  
  9600.000000   1763954   1762960   1760761   1757679   1753903  
  9590.000000   1749451   1744305   1738585   1732633   1726998  
  9580.000000   1722241   1718784   1716724   1715884   1715865  
  9570.000000   1716269   1716774   1717202   1717482   1717543  
  9560.000000   1717335   1716759   1715822   1714580   1713255  
  9550.000000   1712056   1711195   1710689   1710450   1710268  
  9540.000000   1709986   1709586   1709211   1709147   1709644  
  9530.000000   1710866   1712754   1715149   1717824   1720635  
  9520.000000   1723520   1726450   1729323   1731856   1733599  
  9510.000000   1734031   1732747   1729653   1725011   1719448  
  9500.000000   1713727   1708610   1704616   1702017   1700774  
  9490.000000   1700672   1701303   1702191   1702754   1702425  
  9480.000000   1700727   1697418   1692635   1686896   1681071  
  9470.000000   1676090   1672708   1671172   1671167   1671907  
  9460.000000   1672469   1672158   1670767   1668647   1666514  
  9450.000000   1665155   1665076   1666321   1668452   1670735  
  9440.000000   1672460   1673170   1672846   1671782   1670428  
  9430.000000   1669117   1667945   1666757   1665278   1663271  
  9420.000000   1660695   1657752   1654845   1652444   1650908  
  9410.000000   1650374   1650726   1651642   1652739   1653648  
  9400.000000   1654146   1654123   1653593   1652636   1651379  
  9390.000000   1650028   1648846   1648198   1648434   1649849  
  9380.000000   1652510   1656239   1660549   1664751   1668078  
  9370.000000   1669867   1669729   1667603   1663759   1658657  
  9360.000000   1652830   1646746   1640772   1635198   1630300  
  9350.000000   1626384   1623748   1622596   1622900   1624362  
  9340.000000   1626411   1628362   1629600   1629788   1628993  
  9330.000000   1627647   1626413   1625912   1626522   1628265  
  9320.000000   1630833   1633722   1636400   1638461   1639699  
  9310.000000   1640063   1639588   1638285   1636146   1633136  
  9300.000000   1629285   1624715   1619687   1614580   1609811  
  9290.000000   1605808   1602861   1601187   1600826   1601744  
  9280.000000   1603753   1606541   1609647   1612496   1614530  
  9270.000000   1615275   1614512   1612255   1608828   1604723  
  9260.000000   1600553   1596871   1594095   1592449   1591956  
  9250.000000   1592487   1593775   1595477   1597215   1598632  
  9240.000000   1599463   1599558   1598910   1597629   1595945  
  9230.000000   1594147   1592563   1591471   1591098   1591579  
  9220.000000   1592966   1595179   1597957   1600876   1603394  
  9210.000000   1605004   1605371   1604443   1602517   1600164  
  9200.000000   1598117   1596966   1596996   1598063   1599694  
  9190.000000   1601243   1602090   1601916   1600762   1599088  
  9180.000000   1597479   1596559   1596702   1598044   1600407  
  9170.000000   1603370   1606385   1608872   1610360   1610455  
  9160.000000   1608880   1605512   1600471   1594159   1587225  
  9150.000000   1580499   1574854   1571040   1569480   1570152  
  9140.000000   1572556   1575882   1579182   1581620   1582629  
  9130.000000   1582076   1580261   1577772   1575294   1573421  
  9120.000000   1572580   1572873   1574119   1575874   1577636  
  9110.000000   1578919   1579354   1578737   1577056   1574496  
  9100.000000   1571369   1568084   1565061   1562699   1561299  
  9090.000000   1561009   1561800   1563468   1565687   1568038  
  9080.000000   1570065   1571368   1571663   1570822   1568895  
  9070.000000   1566136   1563014   1560100   1557975   1557065  
  9060.000000   1557574   1559347   1561873   1564408   1566174  
  9050.000000   1566586   1565394   1562816   1559473   1556206  
  9040.000000   1553804   1552797   1553338   1555170   1557712  
  9030.000000   1560265   1562208   1563150   1562955   1561748  
  9020.000000   1559841   1557631   1555499   1553715   1552437  
  9010.000000   1551647   1551210   1550878   1550406   1549618  
  9000.000000   1548477   1547117   1545797   1544840   1544526  
  8990.000000   1544993   1546213   1547966   1549954   1551845  
  8980.000000   1553392   1554459   1555037   1555217   1555142  
  8970.000000   1554995   1554966   1555247   1555988   1557249  
  8960.000000   1558959   1560880   1562635   1563783   1563938  
  8950.000000   1562907   1560760   1557842   1554675   1551844  
  8940.000000   1549834   1548919   1549092   1550123   1551633  
  8930.000000   1553214   1554494   1555229   1555329   1554847  
  8920.000000   1553955   1552866   1551827   1551011   1550517  
  8910.000000   1550311   1550277   1550262   1550136   1549893  
  8900.000000   1549635   1549598   1550019   1551082   1552797  
  8890.000000   1554967   1557229   1559108   1560190   1560171  
  8880.000000   1558985   1556743   1553745   1550377   1547064  
  8870.000000   1544200   1542083   1540938   1540858   1541847  
  8860.000000   1543761   1546373   1549374   1552430   1555229  
  8850.000000   1557488   1559034   1559744   1559628   1558729  
  8840.000000   1557207   1555278   1553245   1551457   1550258  
  8830.000000   1549960   1550753   1552693   1555631   1559270  
  8820.000000   1563168   1566846   1569824   1571734   1572372  
  8810.000000   1571750   1570108   1567861   1565540   1563650  
  8800.000000   1562567   1562432   1563117   1564266   1565377  
  8790.000000   1565976   1565727   1564563   1562678   1560491  
  8780.000000   1558516   1557217   1556878   1557516   1558895  
  8770.000000   1560601   1562191   1563316   1563832   1563814  
  8760.000000   1563534   1563330   1563499   1564167   1565260  
  8750.000000   1566520   1567621   1568278   1568375   1568011  
  8740.000000   1567476   1567156   1567388   1568341   1569951  
  8730.000000   1571938   1573917   1575504   1576458   1576724  
  8720.000000   1576427   1575819   1575179   1574756   1574714  
  8710.000000   1575143   1576071   1577477   1579294   1581381  
  8700.000000   1583509   1585387   1586711   1587262   1586993  
  8690.000000   1586069   1584866   1583851   1583458   1583921  
  8680.000000   1585201   1587003   1588879   1590412   1591352  
  8670.000000   1591725   1591805   1592011   1592728   1594147  
  8660.000000   1596181   1598485   1600594   1602074   1602711  
  8650.000000   1602557   1601942   1601321   1601141   1601670  
  8640.000000   1602934   1604720   1606675   1608440   1609789  
  8630.000000   1610696   1611345   1612047   1613120   1614780  
  8620.000000   1617056   1619798   1622717   1625495   1627868  
  8610.000000   1629723   1631101   1632185   1633197   1634331  
  8600.000000   1635652   1637089   1638442   1639462   1639943  
  8590.000000   1639785   1639030   1637842   1636454   1635100  
  8580.000000   1633947   1633095   1632581   1632420   1632628  
  8570.000000   1633242   1634296   1635791   1637650   1639730  
  8560.000000   1641846   1643821   1645557   1647030   1648329  
  8550.000000   1649541   1650740   1651907   1652961   1653787  
  8540.000000   1654299   1654533   1654643   1654904   1655590  
  8530.000000   1656915   1658936   1661525   1664378   1667088  
  8520.000000   1669245   1670514   1670705   1669808   1668025  
  8510.000000   1665722   1663381   1661508   1660525   1660680  
  8500.000000   1661954   1664090   1666643   1669132   1671157  
  8490.000000   1672528   1673302   1673718   1674075   1674582  
  8480.000000   1675297   1676101   1676815   1677276   1677491  
  8470.000000   1677628   1677980   1678825   1680290   1682294  
  8460.000000   1684541   1686656   1688307   1689358   1689906  
  8450.000000   1690248   1690744   1691681   1693154   1695043  
  8440.000000   1697059   1698861   1700173   1700875   1701019  
  8430.000000   1700796   1700444   1700177   1700105   1700239  
  8420.000000   1700479   1700692   1700745   1700578   1700206  
  8410.000000   1699747   1699362   1699228   1699457   1700068  
  8400.000000   1700962   1701934   1702728   1703110   1702950  
  8390.000000   1702255   1701174   1699967   1698932   1698333  
  8380.000000   1698319   1698905   1699968   1701294   1702625  
  8370.000000   1703728   1704443   1704711   1704576   1704151  
  8360.000000   1703585   1703004   1702487   1702043   1701630  
  8350.000000   1701193   1700699   1700188   1699744   1699510  
  8340.000000   1699591   1700046   1700815   1701759   1702667  
  8330.000000   1703340   1703627   1703462   1702872   1701935  
  8320.000000   1700755   1699415   1697971   1696452   1694873  
  8310.000000   1693256   1691630   1690042   1688538   1687178  
  8300.000000   1686010   1685096   1684479   1684184   1684182  
  8290.000000   1684381   1684638   1684776   1684650   1684172  
  8280.000000   1683362   1682319   1681201   1680157   1679286  
  8270.000000   1678617   1678121   1677759   1677503   1677372  
  8260.000000   1677390   1677573   1677871   1678172   1678313  
  8250.000000   1678135   1677534   1676495   1675096   1673466  
  8240.000000   1671739   1670022   1668368   1666811   1665370  
  8230.000000   1664099   1663052   1662289   1661809   1661551  
  8220.000000   1661379   1661129   1660658   1659876   1658776  
  8210.000000   1657401   1655818   1654078   1652210   1650243  
  8200.000000   1648231   1646286   1644561   1643229   1642404  
  8190.000000   1642106   1642211   1642497   1642681   1642514  
  8180.000000   1641839   1640622   1638941   1636935   1634764  
  8170.000000   1632557   1630408   1628372   1626485   1624766  
  8160.000000   1623217   1621809   1620480   1619145   1617707  
  8150.000000   1616105   1614329   1612444   1610579   1608892  
  8140.000000   1607527   1606572   1606028   1605815   1605784  
  8130.000000   1605763   1605599   1605187   1604507   1603590  
  8120.000000   1602524   1601386   1600227   1599036   1597763  
  8110.000000   1596346   1594767   1593089   1591457   1590080  
  8100.000000   1589145   1588769   1588912   1589392   1589909  
  8090.000000   1590145   1589866   1588981   1587573   1585836  
  8080.000000   1584012   1582287   1580760   1579419   1578195  
  8070.000000   1577012   1575835   1574693   1573652   1572794  
  8060.000000   1572161   1571749   1571504   1571342   1571181  
  8050.000000   1570943   1570573   1570013   1569226   1568187  
  8040.000000   1566918   1565496   1564061   1562786   1561832  
  8030.000000   1561294   1561153   1561286   1561486   1561548  
  8020.000000   1561315   1560750   1559922   1558989   1558122  
  8010.000000   1557455   1557031   1556790   1556602   1556294  
  8000.000000   1555722   1554794   1553505   1551926   1550191  
  7990.000000   1548459   1546884   1545580   1544606   1543958  
  7980.000000   1543579   1543382   1543280   1543199   1543107  
  7970.000000   1542999   1542894   1542810   1542759   1542729  
  7960.000000   1542705   1542663   1542604   1542536   1542489  
  7950.000000   1542482   1542526   1542601   1542670   1542681  
  7940.000000   1542596   1542393   1542085   1541711   1541327  
  7930.000000   1540992   1540754   1540644   1540676   1540841  
  7920.000000   1541121   1541479   1541873   1542252   1542569  
  7910.000000   1542784   1542881   1542869   1542785   1542693  
  7900.000000   1542659   1542747   1542993   1543395   1543908  
  7890.000000   1544448   1544909   1545185   1545197   1544913  
  7880.000000   1544360   1543624   1542828   1542113   1541597  
  7870.000000   1541359   1541407   1541699   1542143   1542636  
  7860.000000   1543085   1543434   1543665   1543794   1543850  
  7850.000000   1543854   1543805   1543671   1543417   1543009  
  7840.000000   1542453   1541789   1541096   1540469   1539980  
  7830.000000   1539676   1539551   1539573   1539700   1539907  
  7820.000000   1540196   1540584   1541081   1541653   1542208  
  7810.000000   1542609   1542711   1542410   1541706   1540709  
  7800.000000   1539630   1538711   1538150   1538041   1538324  
  7790.000000   1538836   1539338   1539635   1539605   1539266  
  7780.000000   1538728   1538164   1537722   1537481   1537417  
  7770.000000   1537407   1537283   1536864   1536028   1534731  
  7760.000000   1533027   1531057   1529019   1527139   1525611  
  7750.000000   1524579   1524093   1524117   1524534   1525182  
  7740.000000   1525898   1526543   1527031   1527321   1527407  
  7730.000000   1527289   1526974   1526463   1525778   1524966  
  7720.000000   1524115   1523337   1522743   1522401   1522310  
  7710.000000   1522393   1522513   1522519   1522286   1521764  
  7700.000000   1520984   1520056   1519133   1518368   1517881  
  7690.000000   1517718   1517853   1518180   1518556   1518817  
  7680.000000   1518837   1518545   1517958   1517162   1516301  
  7670.000000   1515521   1514941   1514617   1514538   1514644  
  7660.000000   1514856   1515110   1515371   1515638   1515917  
  7650.000000   1516209   1516493   1516725   1516870   1516907  
  7640.000000   1516861   1516769   1516681   1516608   1516526  
  7630.000000   1516371   1516082   1515646   1515122   1514645  
  7620.000000   1514387   1514494   1515029   1515941   1517073  
  7610.000000   1518211   1519155   1519782   1520085   1520148  
  7600.000000   1520111   1520102   1520198   1520400   1520657  
  7590.000000   1520889   1521042   1521102   1521109   1521131  
  7580.000000   1521233   1521451   1521771   1522136   1522466  
  7570.000000   1522685   1522755   1522688   1522553   1522442  
  7560.000000   1522455   1522655   1523058   1523621   1524271  
  7550.000000   1524917   1525498   1525988   1526411   1526810  
  7540.000000   1527231   1527691   1528183   1528680   1529163  
  7530.000000   1529638   1530148   1530751   1531501   1532401  
  7520.000000   1533408   1534425   1535347   1536100   1536683  
  7510.000000   1537168   1537679   1538341   1539240   1540387  
  7500.000000   1541729   1543172   1544626   1546037   1547405  
  7490.000000   1548755   1550125   1551525   1552936   1554311  
  7480.000000   1555609   1556808   1557931   1559027   1560157  
  7470.000000   1561359   1562640   1563963   1565282   1566551  
  7460.000000   1567757   1568923   1570105   1571364   1572753  
  7450.000000   1574289   1575964   1577738   1579566   1581407  
  7440.000000   1583242   1585075   1586934   1588855   1590874  
  7430.000000   1593007   1595242   1597534   1599814   1602000  
  7420.000000   1604034   1605884   1607574   1609163   1610736  
  7410.000000   1612370   1614115   1615971   1617897   1619829  
  7400.000000   1621707   1623493   1625189   1626825   1628453  
  7390.000000   1630121   1631861   1633687   1635590   1637558  
  7380.000000   1639570   1641609   1643657   1645699   1647716  
  7370.000000   1649698   1651640   1653548   1655438   1657324  
  7360.000000   1659211   1661081   1662899   1664614   1666181  
  7350.000000   1667577   1668818   1669964   1671105   1672344  
  7340.000000   1673758   1675382   1677191   1679120   1681072  
  7330.000000   1682955   1684706   1686308   1687793   1689222  
  7320.000000   1690666   1692174   1693764   1695416   1697091  
  7310.000000   1698750   1700376   1701981   1703599   1705271  
  7300.000000   1707018   1708830   1710663   1712459   1714162  
  7290.000000   1715745   1717211   1718597   1719954   1721328  
  7280.000000   1722750   1724233   1725773   1727362   1728978  
  7270.000000   1730593   1732166   1733645   1734983   1736147  
  7260.000000   1737148   1738033   1738894   1739822   1740893  
  7250.000000   1742124   1743487   1744905   1746313   1747673  
  7240.000000   1749020   1750431   1752022   1753873   1756030  
  7230.000000   1758449   1761062   1763764   1766499   1769234  
  7220.000000   1772001   1774831   1777766   1780807   1783940  
  7210.000000   1787124   1790341   1793580   1796873   1800244  
  7200.000000   1803725   1807307   1810965   1814645   1818306  
  7190.000000   1821919   1825497   1829064   1832668   1836332  
  7180.000000   1840070   1843856   1847659   1851430   1855140  
  7170.000000   1858766   1862322   1865828   1869340   1872907  
  7160.000000   1876592   1880439   1884486   1888739   1893201  
  7150.000000   1897842   1902642   1907555   1912554   1917587  
  7140.000000   1922626   1927623   1932572   1937470   1942370  
  7130.000000   1947337   1952472   1957847   1963514   1969451  
  7120.000000   1975598   1981840   1988083   1994251   2000338  
  7110.000000   2006370   2012408   2018484   2024616   2030771  
  7100.000000   2036924   2043054   2049190   2055388   2061728  
  7090.000000   2068263   2075000   2081887   2088838   2095759  
  7080.000000   2102586   2109300   2115920   2122482   2129013  
  7070.000000   2135508   2141945   2148287   2154520   2160653  
  7060.000000   2166722   2172766   2178817   2184878   2190933  
  7050.000000   2196966   2202970   2208962   2214970   2221024  
  7040.000000   2227128   2233265   2239395   2245491   2251539  
  7030.000000   2257566   2263605   2269690   2275814   2281935  
  7020.000000   2287967   2293823   2299434   2304779   2309876  
  7010.000000   2314776   2319528   2324177   2328739   2333240  
  7000.000000   2337699   2342165   2346680   2351295   2356012  
  6990.000000   2360819   2365654   2370465   2375195   2379833  
  6980.000000   2384368   2388812   2393146   2397345   2401355  
  6970.000000   2405142   2408690   2412034   2415225   2418338  
  6960.000000   2421408   2424455   2427449   2430369   2433185  
  6950.000000   2435914   2438577   2441215   2443828   2446397  
  6940.000000   2448860   2451161   2453256   2455161   2456921  
  6930.000000   2458621   2460336   2462126   2464003   2465961  
  6920.000000   2467970   2470006   2472039   2474042   2475967  
  6910.000000   2477766   2479382   2480790   2482001   2483081  
  6900.000000   2484122   2485219   2486428   2487752   2489136  
  6890.000000   2490500   2491772   2492927   2493985   2495010  
  6880.000000   2496066   2497200   2498415   2499680   2500947  
  6870.000000   2502173   2503337   2504435   2505475   2506459  
  6860.000000   2507379   2508223   2508983   2509681   2510359  
  6850.000000   2511081   2511905   2512875   2513991   2515229  
  6840.000000   2516527   2517822   2519043   2520133   2521040  
  6830.000000   2521733   2522196   2522441   2522506   2522459  
  6820.000000   2522376   2522334   2522378   2522522   2522743  
  6810.000000   2523001   2523251   2523471   2523650   2523807  
  6800.000000   2523961   2524132   2524329   2524551   2524789  
  6790.000000   2525030   2525256   2525449   2525590   2525661  
  6780.000000   2525659   2525597   2525508   2525435   2525412  
  6770.000000   2525451   2525532   2525610   2525636   2525575  
  6760.000000   2525428   2525231   2525039   2524900   2524836  
  6750.000000   2524829   2524838   2524814   2524737   2524617  
  6740.000000   2524501   2524448   2524512   2524716   2525056  
  6730.000000   2525502   2526017   2526565   2527122   2527661  
  6720.000000   2528156   2528578   2528901   2529119   2529248  
  6710.000000   2529338   2529445   2529621   2529881   2530205  
  6700.000000   2530537   2530812   2530973   2530998   2530887  
  6690.000000   2530669   2530364   2529986   2529527   2528980  
  6680.000000   2528336   2527611   2526827   2526023   2525222  
  6670.000000   2524442   2523678   2522925   2522175   2521436  
  6660.000000   2520716   2520023   2519348   2518670   2517956  
  6650.000000   2517187   2516361   2515506   2514662   2513870  
  6640.000000   2513146   2512472   2511798   2511064   2510214  
  6630.000000   2509225   2508100   2506870   2505570   2504234  
  6620.000000   2502880   2501520   2500156   2498799   2497454  
  6610.000000   2496127   2494809   2493485   2492133   2490742  
  6600.000000   2489314   2487879   2486467   2485111   2483816  
  6590.000000   2482564   2481313   2480019   2478648   2477198  
  6580.000000   2475684   2474143   2472603   2471083   2469585  
  6570.000000   2468101   2466622   2465147   2463682   2462234  
  6560.000000   2460804   2459382   2457955   2456509   2455045  
  6550.000000   2453578   2452134   2450733   2449384   2448079  
  6540.000000   2446797   2445517   2444229   2442943   2441677  
  6530.000000   2440450   2439265   2438109   2436952   2435761  
  6520.000000   2434518   2433219   2431882   2430528   2429176  
  6510.000000   2427835   2426502   2425178   2423867   2422587  
  6500.000000   2421357   2420191   2419080   2418000   2416908  
  6490.000000   2415768   2414560   2413288   2411976   2410651  
  6480.000000   2409326   2407988   2406604   2405136   2403562  
  6470.000000   2401891   2400166   2398456   2396834   2395358  
  6460.000000   2394059   2392932   2391946   2391055   2390207  
  6450.000000   2389353   2388457   2387489   2386441   2385315  
  6440.000000   2384137   2382934   2381747   2380603   2379528  
  6430.000000   2378535   2377635   2376833   2376138   2375546  
  6420.000000   2375045   2374597   2374153   2373652   2373056  
  6410.000000   2372355   2371586   2370817   2370139   2369625  
  6400.000000   2369317   2369207   2369251   2369380   2369526  
  6390.000000   2369634   2369671   2369618   2369467   2369216  
  6380.000000   2368873   2368452   2367989   2367526   2367106  
  6370.000000   2366762   2366494   2366284   2366088   2365871  
  6360.000000   2365604   2365288   2364936   2364572   2364203  
  6350.000000   2363828   2363425   2362974   2362461   2361891  
  6340.000000   2361278   2360645   2360004   2359363   2358713  
  6330.000000   2358052   2357374   2356691   2356010   2355342  
  6320.000000   2354674   2353989   2353257   2352460   2351594  
  6310.000000   2350683   2349758   2348853   2347976   2347115  
  6300.000000   2346227   2345267   2344195   2343000   2341693  
  6290.000000   2340312   2338892   2337471   2336064   2334678  
  6280.000000   2333307   2331948   2330591   2329235   2327871  
  6270.000000   2326495   2325100   2323691   2322274   2320866  
  6260.000000   2319480   2318122   2316782   2315439   2314066  
  6250.000000   2312644   2311170   2309660   2308140   2306639  
  6240.000000   2305176   2303758   2302379   2301035   2299723  
  6230.000000   2298446   2297209   2296012   2294837   2293659  
  6220.000000   2292446   2291170   2289822   2288410   2286958  
  6210.000000   2285492   2284036   2282598   2281178   2279770  
  6200.000000   2278372   2276986   2275621   2274284   2272977  
  6190.000000   2271694   2270429   2269179   2267955   2266770  
  6180.000000   2265643   2264583   2263591   2262654   2261757  
  6170.000000   2260889   2260051   2259254   2258510   2257821  
  6160.000000   2257172   2256531   2255857   2255109   2254269  
  6150.000000   2253330   2252307   2251221   2250093   2248940  
  6140.000000   2247777   2246625   2245513   2244476   2243543  
  6130.000000   2242732   2242035   2241425   2240866   2240321  
  6120.000000   2239768   2239199   2238624   2238045   2237466  
  6110.000000   2236872   2236254   2235600   2234927   2234260  
  6100.000000   2233649   2233133   2232748   2232503   2232396  
  6090.000000   2232407   2232521   2232718   2232986   2233300  
  6080.000000   2233638   2233964   2234256   2234492   2234688  
  6070.000000   2234866   2235075   2235347   2235713   2236170  
  6060.000000   2236712   2237313   2237972   2238684   2239474  
  6050.000000   2240355   2241354   2242466   2243697   2245031  
  6040.000000   2246474   2248020   2249689   2251481   2253403  
  6030.000000   2255430   2257545   2259711   2261914   2264139  
  6020.000000   2266395   2268687   2271031   2273422   2275866  
  6010.000000   2278350   2280876   2283433   2286029   2288650  
  6000.000000   2291291   2293927   2296550   2299153   2301757  
  5990.000000   2304390   2307102   2309929   2312900   2316011  
  5980.000000   2319253   2322595   2326021   2329514   2333082  
  5970.000000   2336718   2340432   2344201   2348016   2351844  
  5960.000000   2355683   2359517   2363365   2367233   2371144  
  5950.000000   2375106   2379138   2383253   2387482   2391857  
  5940.000000   2396411   2401161   2406101   2411192   2416370  
  5930.000000   2421559   2426687   2431697   2436553   2441236  
  5920.000000   2445739   2450057   2454188   2458138   2461916  
  5910.000000   2465548   2469059   2472481   2475829   2479121  
  5900.000000   2482358   2485562   2488745   2491952   2495208  
  5890.000000   2498549   2501962   2505429   2508888   2512286  
  5880.000000   2515563   2518690   2521642   2524420   2527014  
  5870.000000   2529420   2531627   2533638   2535472   2537177  
  5860.000000   2538815   2540455   2542143   2543909   2545746  
  5850.000000   2547637   2549557   2551496   2553451   2555428  
  5840.000000   2557433   2559459   2561496   2563525   2565541  
  5830.000000   2567545   2569555   2571586   2573649   2575738  
  5820.000000   2577837   2579927   2581998   2584053   2586111  
  5810.000000   2588191   2590305   2592452   2594611   2596774  
  5800.000000   2598927   2601098   2603300   2605580   2607934  
  5790.000000   2610358   2612775   2615113   2617243   2619067  
  5780.000000   2620458   2621336   2621610   2621245   2620220  
  5770.000000   2618589   2616442   2613933   2611218   2608470  
  5760.000000   2605794   2603272   2600906   2598700   2596623  
  5750.000000   2594686   2592896   2591283   2589853   2588592  
  5740.000000   2587458   2586388   2585331   2584245   2583128  
  5730.000000   2581984   2580837   2579690   2578544   2577379  
  5720.000000   2576190   2574979   2573772   2572607   2571528  
  5710.000000   2570561   2569713   2568967   2568294   2567658  
  5700.000000   2567026   2566373   2565679   2564935   2564139  
  5690.000000   2563306   2562461   2561650   2560905   2560258  
  5680.000000   2559696   2559189   2558662   2558045   2557254  
  5670.000000   2556242   2554967   2553419   2551586   2549471  
  5660.000000   2547077   2544430   2541576   2538594   2535575  
  5650.000000   2532614   2529778   2527109   2524602   2522236  
  5640.000000   2519973   2517791   2515672   2513614   2511617  
  5630.000000   2509673   2507780   2505925   2504118   2502365  
  5620.000000   2500696   2499124   2497664   2496295   2494997  
  5610.000000   2493735   2492495   2491278   2490109   2489018  
  5600.000000   2488032   2487152   2486363   2485631   2484923  
  5590.000000   2484215   2483503   2482790   2482084   2481381  
  5580.000000   2480669   2479925   2479132   2478285   2477395  
  5570.000000   2476485   2475574   2474675   2473781   2472877  
  5560.000000   2471938   2470946   2469890   2468771   2467594  
  5550.000000   2466371   2465116   2463848   2462590   2461372  
  5540.000000   2460219   2459147   2458152   2457209   2456279  
  5530.000000   2455327   2454331   2453295   2452248   2451227  
  5520.000000   2450266   2449378   2448551   2447755   2446948  
  5510.000000   2446095   2445172   2444169   2443089   2441941  
  5500.000000   2440732   2439481   2438201   2436916   2435644  
  5490.000000   2434398   2433171   2431946   2430692   2429383  
  5480.000000   2428002   2426553   2425048   2423512   2421956  
  5470.000000   2420386   2418790   2417154   2415470   2413742  
  5460.000000   2411981   2410205   2408420   2406625   2404810  
  5450.000000   2402965   2401087   2399188   2397294   2395427  
  5440.000000   2393605   2391832   2390106   2388417   2386772  
  5430.000000   2385178   2383656   2382210   2380840   2379524  
  5420.000000   2378251   2377004   2375808   2374691   2373711  
  5410.000000   2372899   2372278   2371818   2371490   2371240  
  5400.000000   2371054   2370915   2370853   2370879   2371023  
  5390.000000   2371272   2371631   2372078   2372636   2373322  
  5380.000000   2374198   2375292   2376645   2378228   2380024  
  5370.000000   2381960   2384016   2386143   2388371   2390696  
  5360.000000   2393177   2395814   2398667   2401732   2405083  
  5350.000000   2408731   2412766   2417191   2422076   2427378  
  5340.000000   2433128   2439260   2445816   2452752   2460137  
  5330.000000   2467929   2476188   2484848   2493960   2503469  
  5320.000000   2513476   2523986   2535158   2547008   2559679  
  5310.000000   2573123   2587402   2602405   2618166   2634593  
  5300.000000   2651774   2669682   2688463   2708123   2728793  
  5290.000000   2750433   2773084   2796604   2820929   2845859  
  5280.000000   2871322   2897196   2923529   2950338   2977757  
  5270.000000   3005821   3034561   3063851   3093514   3123313  
  5260.000000   3153052   3182628   3212031   3241348   3270640  
  5250.000000   3299954   3329175   3358162   3386636   3414436  
  5240.000000   3441372   3467479   3492759   3517393   3541423  
  5230.000000   3564984   3587994   3610447   3632149   3653055  
  5220.000000   3673013   3692087   3710256   3727703   3744467  
  5210.000000   3760725   3776434   3791639   3806167   3819981  
  5200.000000   3832907   3844991   3856184   3866649   3876402  
  5190.000000   3885593   3894174   3902201   3909556   3916271  
  5180.000000   3922258   3927606   3932286   3936408   3939939  
  5170.000000   3942951   3945382   3947293   3948638   3949501  
  5160.000000   3949859   3949789   3949246   3948274   3946810  
  5150.000000   3944901   3942518   3939745   3936587   3933123  
  5140.000000   3929337   3925269   3920883   3916209   3911232  
  5130.000000   3906013   3900567   3894962   3889205   3883341  
  5120.000000   3877364   3871308   3865180   3859023   3852847  
  5110.000000   3846679   3840507   3834323   3828099   3821828  
  5100.000000   3815507   3809163   3802824   3796527   3790292  
  5090.000000   3784134   3778042   3772007   3766011   3760046  
  5080.000000   3754102   3748177   3742259   3736343   3730410  
  5070.000000   3724452   3718453   3712407   3706296   3700114  
  5060.000000   3693839   3687466   3680982   3674394   3667707  
  5050.000000   3660944   3654117   3647245   3640331   3633382  
  5040.000000   3626396   3619383   3612351   3605318   3598294  
  5030.000000   3591291   3584308   3577339   3570380   3563428  
  5020.000000   3556496   3549602   3542780   3536055   3529459  
  5010.000000   3523000   3516692   3510520   3504487   3498572  
  5000.000000   3492781   3487102   3481557   3476142   3470896  
  4990.000000   3465822   3460961   3456312   3451911   3447742  
  4980.000000   3443830   3440151   3436731   3433549   3430641  
  4970.000000   3427988   3425631   3423543   3421755   3420233  
  4960.000000   3419009   3418054   3417423   3417106   3417173  
  4950.000000   3417614   3418487   3419757   3421450   3423507  
  4940.000000   3425949   3428726   3431877   3435374   3439275  
  4930.000000   3443553   3448255   3453338   3458830   3464679  
  4920.000000   3470910   3477479   3484421   3491703   3499357  
  4910.000000   3507353   3515712   3524398   3533418   3542734  
  4900.000000   3552334   3562176   3572229   3582444   3592764  
  4890.000000   3603135   3613478   3623735   3633816   3643672  
  4880.000000   3653214   3662410   3671177   3679497   3687282  
  4870.000000   3694519   3701115   3707067   3712300   3716843  
  4860.000000   3720658   3723808   3726276   3728136   3729371  
  4850.000000   3730054   3730182   3729846   3729078   3727994  
  4840.000000   3726646   3725145   3723528   3721867   3720170  
  4830.000000   3718477   3716789   3715136   3713528   3711994  
  4820.000000   3710547   3709206   3707984   3706888   3705933  
  4810.000000   3705120   3704461   3703944   3703573   3703320  
  4800.000000   3703184   3703140   3703201   3703361   3703650  
  4790.000000   3704073   3704653   3705383   3706265   3707273  
  4780.000000   3708397   3709610   3710905   3712262   3713674  
  4770.000000   3715123   3716599   3718082   3719569   3721052  
  4760.000000   3722537   3724029   3725536   3727056   3728583  
  4750.000000   3730103   3731601   3733064   3734487   3735873  
  4740.000000   3737235   3738585   3739938   3741299   3742670  
  4730.000000   3744041   3745405   3746750   3748076   3749379  
  4720.000000   3750677   3751978   3753312   3754689   3756141  
  4710.000000   3757676   3759324   3761092   3763010   3765085  
  4700.000000   3767343   3769787   3772438   3775291   3778360  
  4690.000000   3781639   3785140   3788856   3792786   3796904  
  4680.000000   3801180   3805548   3809949   3814297   3818538  
  4670.000000   3822612   3826515   3830244   3833849   3837372  
  4660.000000   3840884   3844438   3848100   3851916   3855934  
  4650.000000   3860183   3864683   3869432   3874410   3879585  
  4640.000000   3884905   3890330   3895808   3901311   3906799  
  4630.000000   3912247   3917606   3922837   3927871   3932656  
  4620.000000   3937121   3941232   3944941   3948245   3951125  
  4610.000000   3953612   3955707   3957466   3958907   3960102  
  4600.000000   3961075   3961898   3962581   3963177   3963671  
  4590.000000   3964090   3964395   3964587   3964609   3964443  
  4580.000000   3964025   3963340   3962348   3961064   3959495  
  4570.000000   3957698   3955714   3953610   3951417   3949173  
  4560.000000   3946876   3944538   3942143   3939705   3937221  
  4550.000000   3934720   3932207   3929704   3927204   3924709  
  4540.000000   3922204   3919682   3917138   3914575   3911999  
  4530.000000   3909408   3906805   3904174   3901509   3898793  
  4520.000000   3896039   3893249   3890470   3887724   3885081  
  4510.000000   3882562   3880243   3878136   3876324   3874821  
  4500.000000   3873721   3873038   3872866   3873201   3874123  
  4490.000000   3875607   3877726   3880450   3883862   3887934  
  4480.000000   3892751   3898273   3904572   3911584   3919362  
  4470.000000   3927830   3937029   3946880   3957418   3968557  
  4460.000000   3980318   3992608   4005429   4018687   4032379  
  4450.000000   4046421   4060812   4075488   4090449   4105646  
  4440.000000   4121068   4136667   4152408   4168236   4184089  
  4430.000000   4199918   4215651   4231258   4246668   4261868  
  4420.000000   4276782   4291395   4305608   4319386   4332600  
  4410.000000   4345194   4357030   4368059   4378173   4387385  
  4400.000000   4395665   4403116   4409802   4415894   4421500  
  4390.000000   4426801   4431887   4436896   4441868   4446884  
  4380.000000   4451938   4457062   4462225   4467436   4472667  
  4370.000000   4477934   4483234   4488599   4494045   4499605  
  4360.000000   4505282   4511093   4517004   4523016   4529055  
  4350.000000   4535114   4541085   4546970   4552658   4558177  
  4340.000000   4563440   4568473   4573151   4577373   4580831  
  4330.000000   4583185   4583937   4582649   4578947   4572722  
  4320.000000   4564130   4553669   4542036   4530071   4518538  
  4310.000000   4508062   4499000   4491489   4485449   4480708  
  4300.000000   4477054   4474301   4472330   4471042   4470405  
  4290.000000   4470344   4470845   4471822   4473267   4475109  
  4280.000000   4477340   4479900   4482751   4485821   4489033  
  4270.000000   4492314   4495571   4498719   4501611   4504073  
  4260.000000   4505848   4506666   4506244   4504394   4501037  
  4250.000000   4496288   4490394   4483756   4476788   4469919  
  4240.000000   4463444   4457587   4452391   4447842   4443816  
  4230.000000   4440196   4436836   4433621   4430459   4427273  
  4220.000000   4424042   4420739   4417419   4414115   4410947  
  4210.000000   4407989   4405372   4403155   4401420   4400173  
  4200.000000   4399425   4399127   4399247   4399709   4400469  
  4190.000000   4401449   4402618   4403901   4405285   4406703  
  4180.000000   4408156   4409591   4411028   4412440   4413886  
  4170.000000   4415381   4417023   4418863   4421016   4423532  
  4160.000000   4426503   4429941   4433897   4438341   4443289  
  4150.000000   4448681   4454520   4460732   4467322   4474224  
  4140.000000   4481469   4489015   4496924   4505174   4513833  
  4130.000000   4522865   4532314   4542117   4552304   4562823  
  4120.000000   4573731   4585029   4596824   4609158   4622146  
  4110.000000   4635814   4650217   4665308   4681053   4697328  
  4100.000000   4714031   4731016   4748182   4765424   4782700  
  4090.000000   4799979   4817266   4834572   4851900   4869256  
  4080.000000   4886608   4903944   4921193   4938329   4955248  
  4070.000000   4971900   4988145   5003925   5019102   5033655  
  4060.000000   5047498   5060677   5073149   5084995   5096178  
  4050.000000   5106787   5116788   5126286   5135255   5143798  
  4040.000000   5151865   5159511   5166634   5173251   5179253  
  4030.000000   5184674   5189444   5193627   5197185   5200180  
  4020.000000   5202558   5204402   5205745   5206692   5207230  
  4010.000000   5207481   5207500   5207229   5206380   5204927  
  4000.000000   5203160  
##END= 
