##TITLE= Sample 014 By ssteindl date Montag, November 26 2018
##JCAMP-DX= 4.24
##DATA TYPE= INFRARED SPECTRUM
##ORIGIN= Exported PE Spectrum Data File
##OWNER= Sandra Steindl
##DATE= 18/11/26
##TIME= 13:11:41.00
##SPECTROMETER/DATA SYSTEM= PERKIN-ELMER Frontier FT-IR/NIR IR
##INSTRUMENT PARAMETERS=
  APODIZATION=stark
  DETECTOR=INGAAS
##RESOLUTION= 16.000000
##DELTAX= -2.000000
##XUNITS= 1/CM
##YUNITS= A
##XFACTOR= 1.00
##YFACTOR= 0.00000011920928955078
##FIRSTX= 10000.00
##LASTX= 4000.00
##NPOINTS= 3001
##FIRSTY= 0.241577
##MAXY= 0.615083
##MINY= 0.207452
##XYDATA= (X++(Y..Y))
 10000.000000   2026491   2027802   2028495   2027430   2023973  
  9990.000000   2018412   2011832   2005762   2001644   2000331  
  9980.000000   2001640   2004516   2007432   2009065   2008806  
  9970.000000   2006958   2004543   2002737   2002318   2003264  
  9960.000000   2004807   2005776   2005221   2002818   1999093  
  9950.000000   1995175   1992304   1991386   1992577   1995396  
  9940.000000   1998902   2002160   2004584   2006017   2006724  
  9930.000000   2007006   2007027   2006600   2005280   2002589  
  9920.000000   1998274   1992597   1986315   1980640   1976820  
  9910.000000   1975913   1978337   1983835   1991353   1999291  
  9900.000000   2005827   2009289   2008656   2003694   1995141  
  9890.000000   1984357   1973052   1962748   1954518   1948823  
  9880.000000   1945636   1944683   1945639   1948311   1952484  
  9870.000000   1957893   1963965   1969917   1974861   1978091  
  9860.000000   1979380   1979004   1977732   1976385   1975589  
  9850.000000   1975432   1975557   1975349   1974311   1972331  
  9840.000000   1969710   1967036   1964803   1963242   1962166  
  9830.000000   1961195   1959960   1958375   1956686   1955347  
  9820.000000   1954775   1955085   1956011   1956996   1957438  
  9810.000000   1956982   1955642   1953794   1951974   1950626  
  9800.000000   1949983   1949990   1950471   1951180   1951922  
  9790.000000   1952461   1952499   1951636   1949527   1946073  
  9780.000000   1941642   1937109   1933650   1932376   1933856  
  9770.000000   1937865   1943397   1948987   1953294   1955519  
  9760.000000   1955722   1954619   1953209   1952229   1951821  
  9750.000000   1951574   1950850   1949316   1947249   1945598  
  9740.000000   1945548   1948028   1953115   1959947   1966854  
  9730.000000   1971967   1973847   1971939   1966770   1959599  
  9720.000000   1951977   1945161   1939817   1936011   1933401  
  9710.000000   1931603   1930386   1929801   1930035   1931296  
  9700.000000   1933543   1936506   1939619   1942260   1943873  
  9690.000000   1944149   1943116   1941048   1938470   1935903  
  9680.000000   1933847   1932517   1931864   1931468   1930708  
  9670.000000   1928927   1925678   1920963   1915253   1909516  
  9660.000000   1904894   1902512   1903062   1906685   1912834  
  9650.000000   1920437   1928121   1934515   1938560   1939644  
  9640.000000   1937743   1933290   1927113   1920164   1913388  
  9630.000000   1907491   1902904   1899731   1897843   1896982  
  9620.000000   1896833   1897151   1897713   1898379   1899006  
  9610.000000   1899471   1899688   1899622   1899386   1899162  
  9600.000000   1899233   1899789   1900903   1902431   1904104  
  9590.000000   1905621   1906794   1907619   1908249   1908929  
  9580.000000   1909828   1910983   1912240   1913349   1914062  
  9570.000000   1914267   1914028   1913549   1913051   1912663  
  9560.000000   1912322   1911833   1910921   1909427   1907364  
  9550.000000   1904991   1902698   1900906   1899872   1899636  
  9540.000000   1899968   1900473   1900689   1900218   1898842  
  9530.000000   1896538   1893529   1890165   1886879   1884022  
  9520.000000   1881813   1880258   1879209   1878439   1877777  
  9510.000000   1877205   1876876   1877073   1878054   1879940  
  9500.000000   1882600   1885655   1888584   1890870   1892182  
  9490.000000   1892440   1891817   1890625   1889184   1887735  
  9480.000000   1886380   1885155   1884029   1883014   1882087  
  9470.000000   1881237   1880354   1879289   1877845   1875888  
  9460.000000   1873400   1870494   1867369   1864191   1861033  
  9450.000000   1857838   1854510   1851011   1847482   1844258  
  9440.000000   1841797   1840517   1840619   1841971   1844130  
  9430.000000   1846469   1848416   1849589   1849927   1849589  
  9420.000000   1848887   1848090   1847380   1846808   1846369  
  9410.000000   1846066   1845957   1846126   1846634   1847449  
  9400.000000   1848434   1849373   1850029   1850218   1849815  
  9390.000000   1848798   1847207   1845172   1842892   1840656  
  9380.000000   1838823   1837769   1837785   1838924   1840904  
  9370.000000   1843102   1844701   1844944   1843408   1840165  
  9360.000000   1835800   1831241   1827499   1825349   1825109  
  9350.000000   1826579   1829154   1832065   1834606   1836319  
  9340.000000   1837053   1836937   1836293   1835497   1834870  
  9330.000000   1834575   1834629   1834891   1835177   1835287  
  9320.000000   1835123   1834713   1834225   1833921   1834007  
  9310.000000   1834573   1835490   1836498   1837280   1837620  
  9300.000000   1837493   1837102   1836792   1836908   1837597  
  9290.000000   1838741   1839959   1840768   1840749   1839722  
  9280.000000   1837794   1835319   1832747   1830467   1828684  
  9270.000000   1827410   1826503   1825756   1824964   1823982  
  9260.000000   1822760   1821343   1819844   1818432   1817287  
  9250.000000   1816579   1816408   1816763   1817510   1818401  
  9240.000000   1819187   1819680   1819844   1819772   1819607  
  9230.000000   1819459   1819307   1819023   1818423   1817396  
  9220.000000   1816022   1814580   1813488   1813067   1813384  
  9210.000000   1814158   1814839   1814785   1813491   1810849  
  9200.000000   1807230   1803420   1800343   1798789   1799155  
  9190.000000   1801372   1804908   1808936   1812540   1814949  
  9180.000000   1815718   1814757   1812332   1808948   1805266  
  9170.000000   1801901   1799296   1797603   1796710   1796307  
  9160.000000   1796034   1795631   1795027   1794387   1793983  
  9150.000000   1794088   1794794   1795970   1797293   1798378  
  9140.000000   1798939   1798873   1798304   1797503   1796790  
  9130.000000   1796379   1796322   1796500   1796700   1796692  
  9120.000000   1796288   1795382   1793961   1792112   1790019  
  9110.000000   1787952   1786243   1785191   1784965   1785517  
  9100.000000   1786560   1787631   1788235   1788059   1787114  
  9090.000000   1785771   1784625   1784284   1785131   1787150  
  9080.000000   1789914   1792736   1794920   1795977   1795750  
  9070.000000   1794415   1792384   1790139   1788088   1786467  
  9060.000000   1785350   1784659   1784242   1783898   1783429  
  9050.000000   1782668   1781523   1780056   1778484   1777169  
  9040.000000   1776487   1776720   1777931   1779914   1782239  
  9030.000000   1784390   1785952   1786721   1786746   1786258  
  9020.000000   1785556   1784872   1784317   1783882   1783517  
  9010.000000   1783189   1782913   1782724   1782620   1782537  
  9000.000000   1782341   1781918   1781235   1780415   1779681  
  8990.000000   1779273   1779301   1779698   1780212   1780537  
  8980.000000   1780445   1779904   1779110   1778369   1777951  
  8970.000000   1777901   1778015   1777881   1777081   1775374  
  8960.000000   1772831   1769841   1766986   1764862   1763895  
  8950.000000   1764234   1765746   1768085   1770809   1773442  
  8940.000000   1775567   1776848   1777119   1776387   1774897  
  8930.000000   1773087   1771551   1770834   1771276   1772873  
  8920.000000   1775292   1777995   1780406   1782170   1783213  
  8910.000000   1783793   1784272   1785001   1786113   1787508  
  8900.000000   1788910   1789999   1790552   1790468   1789739  
  8890.000000   1788383   1786377   1783678   1780282   1776350  
  8880.000000   1772274   1768614   1765933   1764601   1764618  
  8870.000000   1765614   1766941   1767965   1768292   1767934  
  8860.000000   1767267   1766856   1767203   1768494   1770526  
  8850.000000   1772750   1774541   1775374   1775069   1773755  
  8840.000000   1771848   1769831   1768118   1766933   1766292  
  8830.000000   1766088   1766170   1766441   1766861   1767460  
  8820.000000   1768277   1769339   1770616   1772031   1773472  
  8810.000000   1774784   1775821   1776411   1776444   1775854  
  8800.000000   1774711   1773187   1771576   1770220   1769442  
  8790.000000   1769466   1770343   1771968   1774094   1776441  
  8780.000000   1778740   1780820   1782602   1784103   1785387  
  8770.000000   1786512   1787503   1788334   1788952   1789299  
  8760.000000   1789346   1789107   1788659   1788103   1787556  
  8750.000000   1787094   1786755   1786503   1786273   1785968  
  8740.000000   1785534   1784970   1784362   1783872   1783713  
  8730.000000   1784123   1785312   1787425   1790485   1794395  
  8720.000000   1798922   1803725   1808398   1812527   1815789  
  8710.000000   1817998   1819159   1819439   1819123   1818525  
  8700.000000   1817904   1817419   1817098   1816906   1816767  
  8690.000000   1816663   1816597   1816626   1816763   1816983  
  8680.000000   1817174   1817192   1816913   1816287   1815410  
  8670.000000   1814458   1813675   1813231   1813207   1813535  
  8660.000000   1814071   1814648   1815172   1815674   1816308  
  8650.000000   1817297   1818832   1821020   1823818   1827056  
  8640.000000   1830471   1833773   1836715   1839107   1840842  
  8630.000000   1841874   1842250   1842051   1841420   1840511  
  8620.000000   1839514   1838579   1837820   1837275   1836938  
  8610.000000   1836787   1836804   1837041   1837601   1838647  
  8600.000000   1840316   1842699   1845772   1849394   1853306  
  8590.000000   1857194   1860750   1863728   1865982   1867479  
  8580.000000   1868304   1868606   1868567   1868338   1868031  
  8570.000000   1867689   1867297   1866803   1866155   1865342  
  8560.000000   1864405   1863455   1862643   1862136   1862067  
  8550.000000   1862507   1863443   1864795   1866448   1868289  
  8540.000000   1870238   1872264   1874381   1876610   1878958  
  8530.000000   1881382   1883802   1886079   1888075   1889663  
  8520.000000   1890784   1891443   1891707   1891691   1891525  
  8510.000000   1891348   1891259   1891346   1891651   1892208  
  8500.000000   1892992   1893964   1895026   1896067   1896948  
  8490.000000   1897548   1897799   1897695   1897312   1896754  
  8480.000000   1896158   1895615   1895184   1894857   1894604  
  8470.000000   1894401   1894267   1894280   1894554   1895217  
  8460.000000   1896360   1898001   1900058   1902354   1904675  
  8450.000000   1906779   1908479   1909636   1910229   1910318  
  8440.000000   1910068   1909690   1909426   1909486   1910003  
  8430.000000   1911003   1912393   1914011   1915653   1917178  
  8420.000000   1918517   1919717   1920873   1922096   1923424  
  8410.000000   1924803   1926089   1927090   1927658   1927727  
  8400.000000   1927350   1926659   1925811   1924937   1924093  
  8390.000000   1923294   1922526   1921837   1921326   1921158  
  8380.000000   1921468   1922319   1923619   1925142   1926560  
  8370.000000   1927569   1927976   1927764   1927088   1926194  
  8360.000000   1925337   1924674   1924239   1923925   1923569  
  8350.000000   1923013   1922181   1921084   1919804   1918461  
  8340.000000   1917172   1916042   1915148   1914563   1914358  
  8330.000000   1914591   1915278   1916360   1917689   1919055  
  8320.000000   1920233   1921047   1921431   1921428   1921191  
  8310.000000   1920888   1920649   1920501   1920374   1920139  
  8300.000000   1919671   1918927   1917983   1917024   1916271  
  8290.000000   1915909   1916004   1916476   1917110   1917629  
  8280.000000   1917790   1917465   1916697   1915677   1914689  
  8270.000000   1914013   1913835   1914200   1914988   1915975  
  8260.000000   1916898   1917551   1917825   1917732   1917362  
  8250.000000   1916844   1916281   1915720   1915140   1914475  
  8240.000000   1913660   1912658   1911482   1910189   1908845  
  8230.000000   1907531   1906291   1905181   1904234   1903502  
  8220.000000   1903021   1902815   1902861   1903075   1903311  
  8210.000000   1903378   1903096   1902342   1901091   1899427  
  8200.000000   1897513   1895551   1893716   1892131   1890826  
  8190.000000   1889772   1888878   1888058   1887229   1886350  
  8180.000000   1885396   1884372   1883286   1882144   1880947  
  8170.000000   1879674   1878289   1876730   1874936   1872868  
  8160.000000   1870551   1868090   1865675   1863549   1861946  
  8150.000000   1861021   1860774   1861036   1861484   1861743  
  8140.000000   1861499   1860599   1859113   1857291   1855493  
  8130.000000   1854039   1853116   1852700   1852585   1852454  
  8120.000000   1852008   1851065   1849628   1847876   1846081  
  8110.000000   1844527   1843385   1842710   1842408   1842322  
  8100.000000   1842284   1842178   1841964   1841653   1841267  
  8090.000000   1840782   1840109   1839103   1837630   1835621  
  8080.000000   1833149   1830420   1827755   1825495   1823908  
  8070.000000   1823116   1823050   1823489   1824111   1824601  
  8060.000000   1824720   1824368   1823586   1822527   1821392  
  8050.000000   1820367   1819578   1819061   1818779   1818629  
  8040.000000   1818490   1818232   1817758   1816992   1815905  
  8030.000000   1814502   1812835   1810991   1809094   1807290  
  8020.000000   1805730   1804555   1803863   1803707   1804061  
  8010.000000   1804834   1805863   1806954   1807907   1808556  
  8000.000000   1808810   1808645   1808130   1807358   1806446  
  7990.000000   1805467   1804456   1803401   1802278   1801088  
  7980.000000   1799875   1798746   1797828   1797248   1797056  
  7970.000000   1797222   1797611   1798037   1798305   1798272  
  7960.000000   1797888   1797192   1796303   1795354   1794463  
  7950.000000   1793687   1793026   1792424   1791817   1791153  
  7940.000000   1790423   1789659   1788932   1788320   1787888  
  7930.000000   1787661   1787622   1787709   1787840   1787926  
  7920.000000   1787908   1787766   1787535   1787292   1787136  
  7910.000000   1787161   1787429   1787946   1788662   1789476  
  7900.000000   1790259   1790872   1791200   1791164   1790740  
  7890.000000   1789966   1788939   1787801   1786714   1785831  
  7880.000000   1785248   1784997   1785022   1785210   1785416  
  7870.000000   1785524   1785468   1785258   1784959   1784658  
  7860.000000   1784420   1784257   1784129   1783960   1783682  
  7850.000000   1783262   1782723   1782130   1781567   1781099  
  7840.000000   1780757   1780530   1780385   1780282   1780195  
  7830.000000   1780119   1780053   1780006   1779981   1779992  
  7820.000000   1780061   1780230   1780548   1781043   1781699  
  7810.000000   1782423   1783064   1783432   1783368   1782798  
  7800.000000   1781762   1780429   1779030   1777818   1776976  
  7790.000000   1776599   1776660   1777056   1777626   1778207  
  7780.000000   1778648   1778828   1778649   1778047   1776996  
  7770.000000   1775522   1773721   1771740   1769772   1768005  
  7760.000000   1766587   1765599   1765035   1764840   1764903  
  7750.000000   1765126   1765409   1765686   1765903   1766017  
  7740.000000   1765996   1765804   1765430   1764864   1764121  
  7730.000000   1763218   1762183   1761041   1759830   1758603  
  7720.000000   1757435   1756421   1755646   1755171   1754995  
  7710.000000   1755060   1755246   1755417   1755451   1755272  
  7700.000000   1754874   1754299   1753627   1752925   1752242  
  7690.000000   1751578   1750915   1750218   1749476   1748699  
  7680.000000   1747930   1747219   1746610   1746122   1745745  
  7670.000000   1745445   1745188   1744947   1744725   1744549  
  7660.000000   1744459   1744493   1744664   1744949   1745294  
  7650.000000   1745625   1745876   1746006   1746018   1745948  
  7640.000000   1745855   1745785   1745752   1745722   1745628  
  7630.000000   1745388   1744950   1744308   1743527   1742706  
  7620.000000   1741959   1741369   1740965   1740718   1740563  
  7610.000000   1740440   1740319   1740231   1740245   1740445  
  7600.000000   1740886   1741566   1742421   1743330   1744162  
  7590.000000   1744793   1745153   1745217   1745023   1744633  
  7580.000000   1744136   1743616   1743161   1742841   1742721  
  7570.000000   1742835   1743187   1743737   1744410   1745107  
  7560.000000   1745735   1746235   1746595   1746857   1747106  
  7550.000000   1747435   1747923   1748597   1749436   1750366  
  7540.000000   1751301   1752158   1752893   1753498   1754006  
  7530.000000   1754463   1754917   1755394   1755899   1756419  
  7520.000000   1756944   1757477   1758047   1758695   1759463  
  7510.000000   1760369   1761395   1762485   1763567   1764560  
  7500.000000   1765415   1766116   1766693   1767200   1767705  
  7490.000000   1768262   1768915   1769684   1770579   1771600  
  7480.000000   1772741   1773981   1775291   1776622   1777929  
  7470.000000   1779170   1780338   1781452   1782570   1783749  
  7460.000000   1785047   1786469   1787997   1789567   1791123  
  7450.000000   1792620   1794063   1795490   1796974   1798587  
  7440.000000   1800384   1802378   1804548   1806839   1809186  
  7430.000000   1811518   1813779   1815927   1817943   1819825  
  7420.000000   1821599   1823303   1824990   1826703   1828469  
  7410.000000   1830282   1832109   1833897   1835596   1837184  
  7400.000000   1838676   1840124   1841604   1843186   1844914  
  7390.000000   1846792   1848780   1850812   1852816   1854738  
  7380.000000   1856553   1858268   1859921   1861559   1863231  
  7370.000000   1864958   1866740   1868546   1870324   1872023  
  7360.000000   1873605   1875078   1876495   1877954   1879569  
  7350.000000   1881446   1883632   1886098   1888723   1891335  
  7340.000000   1893750   1895835   1897536   1898891   1900015  
  7330.000000   1901059   1902160   1903413   1904842   1906416  
  7320.000000   1908056   1909682   1911221   1912652   1913979  
  7310.000000   1915252   1916522   1917840   1919219   1920640  
  7300.000000   1922044   1923355   1924498   1925426   1926136  
  7290.000000   1926669   1927096   1927495   1927928   1928426  
  7280.000000   1928989   1929600   1930240   1930907   1931615  
  7270.000000   1932393   1933265   1934246   1935329   1936493  
  7260.000000   1937716   1938973   1940257   1941554   1942854  
  7250.000000   1944121   1945318   1946397   1947337   1948144  
  7240.000000   1948878   1949621   1950473   1951510   1952779  
  7230.000000   1954275   1955968   1957799   1959725   1961698  
  7220.000000   1963696   1965688   1967666   1969617   1971561  
  7210.000000   1973528   1975589   1977810   1980267   1982986  
  7200.000000   1985962   1989130   1992413   1995720   1998998  
  7190.000000   2002220   2005405   2008584   2011804   2015087  
  7180.000000   2018449   2021871   2025339   2028815   2032278  
  7170.000000   2035690   2039038   2042298   2045483   2048606  
  7160.000000   2051720   2054880   2058159   2061617   2065318  
  7150.000000   2069307   2073627   2078292   2083296   2088573  
  7140.000000   2094025   2099489   2104812   2109841   2114518  
  7130.000000   2118850   2122961   2127011   2131207   2135695  
  7120.000000   2140571   2145822   2151383   2157133   2162974  
  7110.000000   2168830   2174682   2180530   2186407   2192326  
  7100.000000   2198314   2204364   2210492   2216687   2222960  
  7090.000000   2229291   2235668   2242067   2248483   2254924  
  7080.000000   2261428   2268042   2274809   2281726   2288753  
  7070.000000   2295794   2302745   2309507   2316039   2322348  
  7060.000000   2328493   2334555   2340613   2346727   2352939  
  7050.000000   2359277   2365763   2372411   2379209   2386115  
  7040.000000   2393037   2399867   2406493   2412857   2418969  
  7030.000000   2424915   2430824   2436819   2442967   2449255  
  7020.000000   2455590   2461844   2467893   2473677   2479197  
  7010.000000   2484527   2489754   2494973   2500231   2505553  
  7000.000000   2510919   2516311   2521687   2527020   2532261  
  6990.000000   2537376   2542307   2547032   2551527   2555813  
  6980.000000   2559909   2563851   2567644   2571287   2574755  
  6970.000000   2578043   2581156   2584150   2587082   2590033  
  6960.000000   2593035   2596108   2599210   2602306   2605341  
  6950.000000   2608298   2611164   2613951   2616651   2619256  
  6940.000000   2621735   2624069   2626250   2628299   2630245  
  6930.000000   2632126   2633947   2635703   2637361   2638909  
  6920.000000   2640352   2641746   2643163   2644685   2646346  
  6910.000000   2648131   2649960   2651732   2653343   2654742  
  6900.000000   2655927   2656960   2657927   2658913   2659972  
  6890.000000   2661123   2662351   2663620   2664890   2666122  
  6880.000000   2667279   2668336   2669264   2670054   2670707  
  6870.000000   2671255   2671747   2672248   2672817   2673500  
  6860.000000   2674314   2675252   2676281   2677355   2678418  
  6850.000000   2679423   2680329   2681123   2681809   2682425  
  6840.000000   2683022   2683654   2684358   2685140   2685968  
  6830.000000   2686785   2687524   2688137   2688602   2688936  
  6820.000000   2689176   2689366   2689539   2689711   2689884  
  6810.000000   2690062   2690249   2690469   2690740   2691082  
  6800.000000   2691492   2691960   2692456   2692956   2693433  
  6790.000000   2693868   2694232   2694493   2694609   2694545  
  6780.000000   2694286   2693855   2693310   2692734   2692199  
  6770.000000   2691754   2691397   2691098   2690813   2690522  
  6760.000000   2690231   2689984   2689822   2689770   2689805  
  6750.000000   2689863   2689865   2689749   2689498   2689146  
  6740.000000   2688757   2688397   2688099   2687852   2687613  
  6730.000000   2687335   2686992   2686596   2686184   2685802  
  6720.000000   2685465   2685166   2684862   2684522   2684133  
  6710.000000   2683726   2683355   2683075   2682900   2682794  
  6700.000000   2682665   2682402   2681906   2681135   2680101  
  6690.000000   2678879   2677566   2676268   2675063   2674012  
  6680.000000   2673137   2672445   2671909   2671485   2671094  
  6670.000000   2670650   2670059   2669262   2668236   2667017  
  6660.000000   2665673   2664290   2662937   2661648   2660421  
  6650.000000   2659231   2658045   2656844   2655620   2654380  
  6640.000000   2653126   2651863   2650582   2649288   2647985  
  6630.000000   2646698   2645444   2644232   2643040   2641825  
  6620.000000   2640528   2639102   2637527   2635823   2634035  
  6610.000000   2632218   2630409   2628621   2626841   2625049  
  6600.000000   2623239   2621427   2619647   2617939   2616324  
  6590.000000   2614799   2613334   2611894   2610451   2608995  
  6580.000000   2607533   2606074   2604615   2603130   2601584  
  6570.000000   2599945   2598213   2596420   2594633   2592925  
  6560.000000   2591352   2589932   2588640   2587425   2586232  
  6550.000000   2585022   2583783   2582524   2581261   2580000  
  6540.000000   2578737   2577458   2576156   2574841   2573543  
  6530.000000   2572294   2571124   2570035   2569006   2567992  
  6520.000000   2566949   2565846   2564680   2563469   2562252  
  6510.000000   2561066   2559944   2558899   2557933   2557033  
  6500.000000   2556178   2555341   2554490   2553599   2552649  
  6490.000000   2551638   2550583   2549510   2548449   2547417  
  6480.000000   2546408   2545400   2544362   2543271   2542127  
  6470.000000   2540955   2539795   2538682   2537635   2536645  
  6460.000000   2535680   2534704   2533691   2532637   2531560  
  6450.000000   2530489   2529449   2528455   2527507   2526594  
  6440.000000   2525713   2524862   2524048   2523271   2522525  
  6430.000000   2521784   2521020   2520205   2519333   2518417  
  6420.000000   2517495   2516604   2515780   2515034   2514361  
  6410.000000   2513741   2513158   2512600   2512067   2511561  
  6400.000000   2511082   2510627   2510193   2509780   2509404  
  6390.000000   2509082   2508837   2508669   2508556   2508445  
  6380.000000   2508278   2507999   2507587   2507062   2506476  
  6370.000000   2505898   2505385   2504963   2504621   2504327  
  6360.000000   2504037   2503728   2503389   2503034   2502673  
  6350.000000   2502307   2501918   2501480   2500962   2500354  
  6340.000000   2499662   2498919   2498160   2497421   2496714  
  6330.000000   2496040   2495377   2494706   2494006   2493274  
  6320.000000   2492508   2491719   2490913   2490097   2489267  
  6310.000000   2488419   2487536   2486607   2485615   2484554  
  6300.000000   2483416   2482210   2480938   2479611   2478228  
  6290.000000   2476787   2475274   2473684   2472016   2470291  
  6280.000000   2468540   2466806   2465119   2463499   2461933  
  6270.000000   2460400   2458861   2457291   2455670   2454001  
  6260.000000   2452284   2450524   2448714   2446849   2444923  
  6250.000000   2442947   2440948   2438966   2437033   2435167  
  6240.000000   2433351   2431551   2429721   2427830   2425870  
  6230.000000   2423864   2421850   2419864   2417924   2416023  
  6220.000000   2414138   2412239   2410310   2408352   2406378  
  6210.000000   2404406   2402445   2400489   2398525   2396542  
  6200.000000   2394546   2392564   2390634   2388799   2387081  
  6190.000000   2385481   2383978   2382533   2381110   2379678  
  6180.000000   2378217   2376712   2375150   2373515   2371798  
  6170.000000   2370001   2368147   2366278   2364447   2362704  
  6160.000000   2361079   2359581   2358190   2356879   2355618  
  6150.000000   2354386   2353172   2351967   2350761   2349534  
  6140.000000   2348264   2346930   2345527   2344064   2342568  
  6130.000000   2341070   2339601   2338179   2336816   2335513  
  6120.000000   2334274   2333101   2331999   2330968   2330000  
  6110.000000   2329073   2328167   2327264   2326359   2325458  
  6100.000000   2324580   2323737   2322940   2322182   2321453  
  6090.000000   2320739   2320041   2319364   2318728   2318143  
  6080.000000   2317620   2317146   2316708   2316284   2315875  
  6070.000000   2315483   2315139   2314865   2314693   2314624  
  6060.000000   2314664   2314792   2315002   2315274   2315612  
  6050.000000   2316006   2316467   2316987   2317579   2318243  
  6040.000000   2319004   2319873   2320875   2322010   2323278  
  6030.000000   2324649   2326101   2327601   2329144   2330725  
  6020.000000   2332364   2334066   2335840   2337668   2339537  
  6010.000000   2341416   2343300   2345178   2347068   2348972  
  6000.000000   2350901   2352838   2354776   2356694   2358601  
  5990.000000   2360513   2362475   2364529   2366721   2369066  
  5980.000000   2371567   2374197   2376930   2379730   2382584  
  5970.000000   2385471   2388393   2391338   2394306   2397290  
  5960.000000   2400299   2403336   2406422   2409562   2412767  
  5950.000000   2416022   2419311   2422607   2425900   2429188  
  5940.000000   2432492   2435840   2439261   2442773   2446370  
  5930.000000   2450031   2453717   2457387   2461001   2464532  
  5920.000000   2467957   2471268   2474460   2477535   2480501  
  5910.000000   2483365   2486135   2488817   2491414   2493930  
  5900.000000   2496373   2498766   2501138   2503538   2506003  
  5890.000000   2508567   2511234   2513993   2516807   2519641  
  5880.000000   2522461   2525245   2527981   2530654   2533242  
  5870.000000   2535711   2538022   2540142   2542069   2543833  
  5860.000000   2545499   2547151   2548873   2550726   2552738  
  5850.000000   2554903   2557196   2559581   2562031   2564526  
  5840.000000   2567064   2569646   2572278   2574962   2577702  
  5830.000000   2580495   2583338   2586218   2589118   2592008  
  5820.000000   2594858   2597640   2600333   2602932   2605438  
  5810.000000   2607866   2610219   2612507   2614718   2616862  
  5800.000000   2618926   2620936   2622890   2624824   2626723  
  5790.000000   2628593   2630381   2632048   2633504   2634680  
  5780.000000   2635474   2635817   2635632   2634897   2633615  
  5770.000000   2631862   2629746   2627427   2625049   2622756  
  5760.000000   2620617   2618670   2616888   2615239   2613681  
  5750.000000   2612206   2610815   2609533   2608375   2607339  
  5740.000000   2606408   2605546   2604724   2603917   2603125  
  5730.000000   2602348   2601602   2600888   2600212   2599568  
  5720.000000   2598962   2598394   2597882   2597428   2597038  
  5710.000000   2596697   2596388   2596094   2595809   2595541  
  5700.000000   2595308   2595131   2595017   2594957   2594926  
  5690.000000   2594894   2594834   2594742   2594622   2594495  
  5680.000000   2594372   2594258   2594132   2593966   2593715  
  5670.000000   2593342   2592807   2592081   2591137   2589962  
  5660.000000   2588551   2586927   2585131   2583231   2581301  
  5650.000000   2579415   2577620   2575941   2574370   2572894  
  5640.000000   2571487   2570138   2568841   2567597   2566402  
  5630.000000   2565245   2564114   2562994   2561885   2560796  
  5620.000000   2559750   2558767   2557860   2557022   2556235  
  5610.000000   2555470   2554708   2553935   2553153   2552368  
  5600.000000   2551588   2550815   2550046   2549277   2548509  
  5590.000000   2547746   2546998   2546266   2545540   2544799  
  5580.000000   2544014   2543164   2542241   2541257   2540238  
  5570.000000   2539214   2538207   2537227   2536267   2535319  
  5560.000000   2534378   2533446   2532532   2531642   2530770  
  5550.000000   2529896   2528995   2528042   2527030   2525972  
  5540.000000   2524896   2523837   2522816   2521839   2520892  
  5530.000000   2519954   2519007   2518048   2517086   2516136  
  5520.000000   2515208   2514300   2513394   2512467   2511500  
  5510.000000   2510484   2509420   2508322   2507195   2506047  
  5500.000000   2504873   2503676   2502461   2501245   2500043  
  5490.000000   2498867   2497704   2496528   2495294   2493964  
  5480.000000   2492514   2490952   2489306   2487625   2485945  
  5470.000000   2484293   2482667   2481054   2479426   2477769  
  5460.000000   2476067   2474317   2472509   2470639   2468697  
  5450.000000   2466683   2464611   2462509   2460416   2458372  
  5440.000000   2456402   2454515   2452708   2450968   2449289  
  5430.000000   2447663   2446086   2444537   2442997   2441428  
  5420.000000   2439816   2438158   2436505   2434924   2433510  
  5410.000000   2432321   2431384   2430659   2430086   2429580  
  5400.000000   2429101   2428623   2428177   2427791   2427516  
  5390.000000   2427360   2427338   2427428   2427644   2427987  
  5380.000000   2428499   2429192   2430091   2431160   2432379  
  5370.000000   2433679   2435047   2436448   2437922   2439472  
  5360.000000   2441158   2442976   2444975   2447143   2449550  
  5350.000000   2452220   2455260   2458710   2462665   2467107  
  5340.000000   2472067   2477469   2483321   2489547   2496177  
  5330.000000   2503147   2510495   2518152   2526162   2534473  
  5320.000000   2543181   2552293   2561966   2572229   2583230  
  5310.000000   2594942   2607442   2620633   2634548   2649096  
  5300.000000   2664346   2680265   2696981   2714502   2732963  
  5290.000000   2752338   2772681   2793862   2815815   2838339  
  5280.000000   2861356   2884742   2908554   2932826   2957724  
  5270.000000   2983310   3009639   3036591   3063980   3091541  
  5260.000000   3119050   3146375   3173497   3200503   3227466  
  5250.000000   3254442   3281328   3307976   3334104   3359538  
  5240.000000   3384090   3407797   3430675   3452917   3474580  
  5230.000000   3495801   3516501   3536670   3556114   3574785  
  5220.000000   3592533   3609424   3625433   3640731   3655346  
  5210.000000   3669436   3682951   3695929   3708208   3719760  
  5200.000000   3730430   3740270   3749243   3757510   3765094  
  5190.000000   3772151   3778652   3784666   3790094   3794967  
  5180.000000   3799198   3802850   3805875   3808357   3810250  
  5170.000000   3811619   3812412   3812702   3812468   3811813  
  5160.000000   3810740   3809343   3807595   3805542   3803124  
  5150.000000   3800367   3797225   3793746   3789916   3785793  
  5140.000000   3781368   3776688   3771740   3766571   3761181  
  5130.000000   3755620   3749895   3744042   3738053   3731947  
  5120.000000   3725716   3719392   3712992   3706567   3700145  
  5110.000000   3693760   3687415   3681111   3674831   3668575  
  5100.000000   3662342   3656155   3650032   3643996   3638053  
  5090.000000   3632198   3626413   3620681   3614981   3609303  
  5080.000000   3603639   3597987   3592340   3586694   3581040  
  5070.000000   3575377   3569696   3563997   3558270   3552512  
  5060.000000   3546706   3540847   3534927   3528953   3522926  
  5050.000000   3516860   3510751   3504598   3498381   3492084  
  5040.000000   3485692   3479210   3472652   3466047   3459428  
  5030.000000   3452822   3446246   3439708   3433210   3426755  
  5020.000000   3420357   3414028   3407797   3401674   3395679  
  5010.000000   3389807   3384064   3378436   3372934   3367551  
  5000.000000   3362312   3357210   3352271   3347478   3342854  
  4990.000000   3338380   3334092   3329988   3326123   3322504  
  4980.000000   3319189   3316172   3313493   3311127   3309104  
  4970.000000   3307389   3306014   3304943   3304205   3303760  
  4960.000000   3303637   3303794   3304273   3305049   3306180  
  4950.000000   3307652   3309520   3311753   3314383   3317355  
  4940.000000   3320689   3324332   3328319   3332616   3337275  
  4930.000000   3342270   3347646   3353368   3359462   3365887  
  4920.000000   3372663   3379748   3387163   3394866   3402869  
  4910.000000   3411128   3419643   3428373   3437311   3446419  
  4900.000000   3455687   3465082   3474590   3484188   3493860  
  4890.000000   3503592   3513364   3523155   3532920   3542620  
  4880.000000   3552182   3561560   3570678   3579508   3587991  
  4870.000000   3596125   3603864   3611218   3618149   3624678  
  4860.000000   3630780   3636494   3641813   3646788   3651415  
  4850.000000   3655744   3659770   3663542   3667059   3670378  
  4840.000000   3673508   3676508   3679382   3682173   3684872  
  4830.000000   3687504   3690052   3692535   3694946   3697303  
  4820.000000   3699606   3701871   3704095   3706285   3708432  
  4810.000000   3710534   3712579   3714565   3716485   3718347  
  4800.000000   3720161   3721951   3723742   3725560   3727421  
  4790.000000   3729335   3731288   3733265   3735241   3737203  
  4780.000000   3739140   3741059   3742965   3744868   3746759  
  4770.000000   3748625   3750432   3752151   3753747   3755210  
  4760.000000   3756531   3757730   3758818   3759821   3760741  
  4750.000000   3761584   3762328   3762961   3763453   3763797  
  4740.000000   3763979   3764018   3763926   3763743   3763490  
  4730.000000   3763199   3762872   3762512   3762098   3761613  
  4720.000000   3761037   3760369   3759615   3758799   3757951  
  4710.000000   3757101   3756277   3755497   3754776   3754125  
  4700.000000   3753558   3753090   3752739   3752518   3752439  
  4690.000000   3752501   3752700   3753020   3753449   3753964  
  4680.000000   3754550   3755176   3755821   3756446   3757031  
  4670.000000   3757543   3757980   3758336   3758642   3758921  
  4660.000000   3759224   3759587   3760061   3760675   3761465  
  4650.000000   3762445   3763633   3765025   3766614   3768380  
  4640.000000   3770298   3772339   3774474   3776676   3778924  
  4630.000000   3781194   3783466   3785716   3787919   3790048  
  4620.000000   3792071   3793960   3795685   3797223   3798552  
  4610.000000   3799666   3800562   3801265   3801799   3802215  
  4600.000000   3802550   3802855   3803148   3803455   3803759  
  4590.000000   3804060   3804325   3804544   3804689   3804755  
  4580.000000   3804723   3804593   3804349   3803997   3803530  
  4570.000000   3802962   3802299   3801561   3800751   3799882  
  4560.000000   3798950   3797954   3796885   3795743   3794522  
  4550.000000   3793232   3791877   3790469   3789017   3787534  
  4540.000000   3786033   3784529   3783043   3781590   3780188  
  4530.000000   3778843   3777563   3776338   3775176   3774065  
  4520.000000   3773031   3772070   3771230   3770511   3769966  
  4510.000000   3769589   3769439   3769510   3769880   3770555  
  4500.000000   3771637   3773137   3775158   3777698   3780846  
  4490.000000   3784585   3788997   3794064   3799871   3806393  
  4480.000000   3813702   3821747   3830562   3840059   3850238  
  4470.000000   3860995   3872321   3884120   3896390   3909048  
  4460.000000   3922096   3935455   3949112   3962984   3977040  
  4450.000000   3991197   4005419   4019646   4033856   4048027  
  4440.000000   4062153   4076234   4090261   4104238   4118137  
  4430.000000   4131959   4145657   4159235   4172630   4185839  
  4420.000000   4198778   4211433   4223700   4235559   4246900  
  4410.000000   4257703   4267857   4277342   4286050   4293973  
  4400.000000   4301036   4307277   4312689   4317380   4321418  
  4390.000000   4324960   4328103   4331004   4333746   4336444  
  4380.000000   4339142   4341909   4344759   4347736   4350853  
  4370.000000   4354153   4357666   4361435   4365495   4369869  
  4360.000000   4374561   4379556   4384814   4390289   4395903  
  4350.000000   4401610   4407322   4413019   4418636   4424201  
  4340.000000   4429683   4435121   4440450   4445597   4450331  
  4330.000000   4454363   4457278   4458693   4458267   4455870  
  4320.000000   4451582   4445771   4438965   4431826   4424949  
  4310.000000   4418835   4413744   4409778   4406835   4404756  
  4300.000000   4403326   4402375   4401763   4401396   4401219  
  4290.000000   4401178   4401257   4401429   4401720   4402144  
  4280.000000   4402747   4403549   4404560   4405764   4407114  
  4270.000000   4408572   4410067   4411547   4412904   4414017  
  4260.000000   4414685   4414696   4413815   4411873   4408788  
  4250.000000   4404632   4399589   4393978   4388133   4382406  
  4240.000000   4377042   4372215   4367949   4364209   4360864  
  4230.000000   4357789   4354840   4351909   4348919   4345823  
  4220.000000   4342617   4339305   4335942   4332567   4329271  
  4210.000000   4326110   4323172   4320496   4318135   4316086  
  4200.000000   4314352   4312891   4311676   4310643   4309767  
  4190.000000   4308985   4308295   4307655   4307093   4306588  
  4180.000000   4306196   4305915   4305820   4305929   4306331  
  4170.000000   4307053   4308190   4309761   4311843   4314428  
  4160.000000   4317564   4321207   4325383   4330027   4335160  
  4150.000000   4340715   4346714   4353093   4359882   4367027  
  4140.000000   4374577   4382497   4390853   4399623   4408870  
  4130.000000   4418556   4428722   4439310   4450349   4461790  
  4120.000000   4473674   4485980   4498763   4512011   4525767  
  4110.000000   4540001   4554725   4569880   4585446   4601340  
  4100.000000   4617523   4633908   4650457   4667113   4683866  
  4090.000000   4700700   4717624   4734636   4751730   4768894  
  4080.000000   4786100   4803343   4820597   4837878   4855155  
  4070.000000   4872434   4889637   4906723   4923565   4940106  
  4060.000000   4956222   4971892   4987021   5001630   5015639  
  4050.000000   5029093   5041926   5054214   5065908   5077095  
  4040.000000   5087707   5097793   5107230   5116036   5124072  
  4030.000000   5131378   5137851   5143554   5148405   5152447  
  4020.000000   5155564   5157806   5159147   5159691   5159430  
  4010.000000   5158548   5157150   5155291   5152769   5149643  
  4000.000000   5146202  
##END= 
