##TITLE= Sample 010 By ssteindl date Montag, November 26 2018
##JCAMP-DX= 4.24
##DATA TYPE= INFRARED SPECTRUM
##ORIGIN= Exported PE Spectrum Data File
##OWNER= Sandra Steindl
##DATE= 18/11/26
##TIME= 13:00:52.00
##SPECTROMETER/DATA SYSTEM= PERKIN-ELMER Frontier FT-IR/NIR IR
##INSTRUMENT PARAMETERS=
  APODIZATION=stark
  DETECTOR=INGAAS
##RESOLUTION= 16.000000
##DELTAX= -2.000000
##XUNITS= 1/CM
##YUNITS= A
##XFACTOR= 1.00
##YFACTOR= 0.00000011920928955078
##FIRSTX= 10000.00
##LASTX= 4000.00
##NPOINTS= 3001
##FIRSTY= 0.273700
##MAXY= 0.644202
##MINY= 0.229889
##XYDATA= (X++(Y..Y))
 10000.000000   2295959   2291090   2287589   2287261   2290156  
  9990.000000   2294893   2300010   2304530   2307762   2309440  
  9980.000000   2309956   2309970   2309844   2309399   2308139  
  9970.000000   2305497   2301169   2295306   2288535   2281669  
  9960.000000   2275450   2270300   2266249   2263045   2260275  
  9950.000000   2257577   2254724   2251694   2248634   2245853  
  9940.000000   2243695   2242548   2242656   2244104   2246725  
  9930.000000   2250085   2253672   2256900   2259391   2260836  
  9920.000000   2261064   2259815   2256792   2251677   2244466  
  9910.000000   2235672   2226529   2218802   2214303   2214307  
  9900.000000   2218915   2226986   2236329   2244523   2249716  
  9890.000000   2251256   2249867   2247128   2244818   2244005  
  9880.000000   2244773   2246184   2246924   2245913   2242890  
  9870.000000   2238522   2234105   2231070   2230411   2232472  
  9860.000000   2236855   2242718   2248964   2254558   2258618  
  9850.000000   2260566   2260175   2257704   2253898   2249953  
  9840.000000   2247164   2246563   2248426   2252107   2256126  
  9830.000000   2258689   2258289   2254325   2247255   2238457  
  9820.000000   2229605   2222082   2216514   2212695   2209890  
  9810.000000   2207267   2204328   2201029   2197680   2194655  
  9800.000000   2192151   2190123   2188411   2186913   2185790  
  9790.000000   2185336   2185932   2187636   2190209   2192979  
  9780.000000   2195230   2196386   2196379   2195602   2194799  
  9770.000000   2194704   2195774   2198081   2201353   2205234  
  9760.000000   2209421   2213810   2218412   2223223   2228065  
  9750.000000   2232542   2236091   2238172   2238406   2236728  
  9740.000000   2233374   2228839   2223772   2218895   2214877  
  9730.000000   2212284   2211372   2212061   2213786   2215683  
  9720.000000   2216741   2216203   2213797   2209928   2205520  
  9710.000000   2201710   2199392   2198875   2199811   2201367  
  9700.000000   2202622   2202929   2202095   2200369   2198174  
  9690.000000   2195894   2193685   2191531   2189389   2187321  
  9680.000000   2185549   2184280   2183564   2183087   2182277  
  9670.000000   2180478   2177304   2172877   2167853   2163225  
  9660.000000   2159921   2158471   2158821   2160451   2162661  
  9650.000000   2164911   2166995   2168990   2171018   2172982  
  9640.000000   2174464   2174828   2173554   2170518   2166196  
  9630.000000   2161488   2157421   2154689   2153419   2153162  
  9620.000000   2153156   2152724   2151534   2149714   2147676  
  9610.000000   2145870   2144576   2143808   2143457   2143412  
  9600.000000   2143735   2144584   2146111   2148226   2150550  
  9590.000000   2152507   2153596   2153709   2153224   2152936  
  9580.000000   2153643   2155795   2159206   2163121   2166523  
  9570.000000   2168550   2168843   2167595   2165382   2162774  
  9560.000000   2160052   2157078   2153496   2149042   2143899  
  9550.000000   2138751   2134601   2132351   2132374   2134378  
  9540.000000   2137497   2140723   2143311   2145059   2146328  
  9530.000000   2147756   2149908   2152931   2156475   2159847  
  9520.000000   2162355   2163642   2163842   2163492   2163245  
  9510.000000   2163580   2164549   2165847   2166879   2167094  
  9500.000000   2166103   2163847   2160520   2156510   2152229  
  9490.000000   2148057   2144229   2140876   2137985   2135459  
  9480.000000   2133137   2130839   2128443   2125922   2123375  
  9470.000000   2120996   2118968   2117380   2116154   2115107  
  9460.000000   2114072   2113038   2112207   2111924   2112509  
  9450.000000   2114039   2116260   2118536   2120109   2120242  
  9440.000000   2118600   2115241   2110696   2105664   2100828  
  9430.000000   2096662   2093380   2091067   2089770   2089665  
  9420.000000   2091014   2094099   2098968   2105298   2112279  
  9410.000000   2118799   2123710   2126174   2125935   2123331  
  9400.000000   2119270   2114863   2111220   2109043   2108504  
  9390.000000   2109186   2110250   2110779   2110020   2107723  
  9380.000000   2104102   2099913   2096151   2093881   2093832  
  9370.000000   2096188   2100456   2105598   2110339   2113484  
  9360.000000   2114238   2112339   2108136   2102443   2096352  
  9350.000000   2090895   2086827   2084435   2083572   2083742  
  9340.000000   2084278   2084558   2084154   2083028   2081486  
  9330.000000   2080135   2079577   2080213   2082042   2084646  
  9320.000000   2087354   2089408   2090262   2089693   2087903  
  9310.000000   2085352   2082581   2079983   2077737   2075790  
  9300.000000   2074025   2072337   2070754   2069397   2068401  
  9290.000000   2067843   2067646   2067672   2067783   2068014  
  9280.000000   2068589   2069862   2072114   2075345   2079183  
  9270.000000   2082923   2085778   2087081   2086571   2084421  
  9260.000000   2081230   2077734   2074577   2072105   2070333  
  9250.000000   2069068   2068055   2067209   2066642   2066639  
  9240.000000   2067452   2069182   2071655   2074462   2077047  
  9230.000000   2078883   2079641   2079268   2077990   2076197  
  9220.000000   2074319   2072738   2071695   2071285   2071429  
  9210.000000   2071924   2072490   2072818   2072617   2071642  
  9200.000000   2069761   2066987   2063508   2059641   2055793  
  9190.000000   2052387   2049797   2048292   2047957   2048702  
  9180.000000   2050276   2052356   2054621   2056793   2058683  
  9170.000000   2060159   2061155   2061597   2061409   2060514  
  9160.000000   2058932   2056840   2054616   2052751   2051727  
  9150.000000   2051882   2053251   2055517   2058010   2059951  
  9140.000000   2060680   2059878   2057644   2054460   2051054  
  9130.000000   2048135   2046204   2045396   2045539   2046230  
  9120.000000   2047009   2047502   2047523   2047109   2046463  
  9110.000000   2045900   2045725   2046183   2047377   2049240  
  9100.000000   2051520   2053830   2055742   2056890   2057088  
  9090.000000   2056378   2055020   2053403   2051898   2050718  
  9080.000000   2049835   2049017   2047941   2046368   2044260  
  9070.000000   2041849   2039540   2037786   2036854   2036776  
  9060.000000   2037283   2037944   2038301   2038051   2037164  
  9050.000000   2035848   2034456   2033283   2032473   2031924  
  9040.000000   2031366   2030451   2028937   2026794   2024252  
  9030.000000   2021739   2019719   2018579   2018481   2019350  
  9020.000000   2020895   2022715   2024444   2025790   2026605  
  9010.000000   2026830   2026478   2025574   2024151   2022294  
  9000.000000   2020202   2018198   2016691   2016081   2016631  
  8990.000000   2018333   2020855   2023603   2025876   2027067  
  8980.000000   2026825   2025171   2022485   2019390   2016548  
  8970.000000   2014499   2013534   2013677   2014712   2016288  
  8960.000000   2018003   2019488   2020449   2020688   2020108  
  8950.000000   2018727   2016682   2014197   2011569   2009095  
  8940.000000   2007055   2005633   2004905   2004852   2005376  
  8930.000000   2006349   2007594   2008944   2010223   2011287  
  8920.000000   2012030   2012409   2012473   2012327   2012109  
  8910.000000   2011904   2011738   2011530   2011163   2010502  
  8900.000000   2009501   2008205   2006756   2005340   2004110  
  8890.000000   2003157   2002482   2002055   2001852   2001919  
  8880.000000   2002356   2003284   2004760   2006708   2008897  
  8870.000000   2010989   2012632   2013563   2013687   2013093  
  8860.000000   2012036   2010833   2009788   2009084   2008788  
  8850.000000   2008823   2009036   2009222   2009190   2008800  
  8840.000000   2008001   2006883   2005659   2004661   2004255  
  8830.000000   2004755   2006328   2008905   2012190   2015691  
  8820.000000   2018874   2021275   2022640   2022963   2022484  
  8810.000000   2021597   2020737   2020277   2020449   2021325  
  8800.000000   2022807   2024695   2026714   2028598   2030104  
  8790.000000   2031079   2031457   2031271   2030622   2029640  
  8780.000000   2028453   2027144   2025768   2024365   2023004  
  8770.000000   2021811   2020960   2020641   2020970   2021954  
  8760.000000   2023440   2025151   2026760   2027977   2028658  
  8750.000000   2028817   2028621   2028306   2028103   2028164  
  8740.000000   2028544   2029227   2030167   2031333   2032707  
  8730.000000   2034268   2035932   2037546   2038875   2039675  
  8720.000000   2039770   2039122   2037890   2036366   2034906  
  8710.000000   2033801   2033186   2033031   2033152   2033347  
  8700.000000   2033464   2033516   2033651   2034109   2035083  
  8690.000000   2036619   2038550   2040511   2042051   2042758  
  8680.000000   2042426   2041089   2039059   2036799   2034835  
  8670.000000   2033578   2033240   2033781   2034950   2036394  
  8660.000000   2037760   2038816   2039490   2039897   2040274  
  8650.000000   2040907   2042020   2043692   2045835   2048177  
  8640.000000   2050373   2052060   2053014   2053166   2052651  
  8630.000000   2051742   2050782   2050095   2049893   2050265  
  8620.000000   2051169   2052508   2054164   2056050   2058088  
  8610.000000   2060208   2062300   2064223   2065813   2066935  
  8600.000000   2067545   2067702   2067576   2067378   2067308  
  8590.000000   2067474   2067880   2068433   2068997   2069453  
  8580.000000   2069743   2069879   2069920   2069942   2069999  
  8570.000000   2070136   2070381   2070774   2071373   2072240  
  8560.000000   2073419   2074888   2076558   2078261   2079807  
  8550.000000   2081018   2081797   2082141   2082153   2082000  
  8540.000000   2081865   2081927   2082321   2083144   2084419  
  8530.000000   2086120   2088149   2090354   2092520   2094411  
  8520.000000   2095821   2096607   2096734   2096265   2095370  
  8510.000000   2094257   2093143   2092201   2091557   2091287  
  8500.000000   2091421   2091968   2092899   2094166   2095673  
  8490.000000   2097307   2098938   2100459   2101804   2102951  
  8480.000000   2103934   2104791   2105576   2106294   2106934  
  8470.000000   2107446   2107789   2107946   2107934   2107828  
  8460.000000   2107740   2107813   2108174   2108913   2110047  
  8450.000000   2111511   2113157   2114780   2116166   2117148  
  8440.000000   2117657   2117745   2117567   2117346   2117295  
  8430.000000   2117566   2118207   2119165   2120319   2121520  
  8420.000000   2122628   2123545   2124208   2124592   2124682  
  8410.000000   2124492   2124069   2123510   2122950   2122541  
  8400.000000   2122414   2122629   2123140   2123823   2124495  
  8390.000000   2125000   2125231   2125196   2124986   2124754  
  8380.000000   2124649   2124770   2125148   2125735   2126425  
  8370.000000   2127066   2127485   2127527   2127076   2126102  
  8360.000000   2124667   2122973   2121323   2120075   2119514  
  8350.000000   2119782   2120796   2122262   2123719   2124681  
  8340.000000   2124770   2123849   2122041   2119696   2117267  
  8330.000000   2115183   2113741   2113013   2112874   2113037  
  8320.000000   2113184   2113035   2112427   2111341   2109897  
  8310.000000   2108325   2106895   2105866   2105418   2105632  
  8300.000000   2106476   2107814   2109447   2111146   2112706  
  8290.000000   2113978   2114875   2115369   2115465   2115196  
  8280.000000   2114608   2113769   2112768   2111724   2110752  
  8270.000000   2109968   2109429   2109141   2109012   2108906  
  8260.000000   2108644   2108076   2107095   2105676   2103873  
  8250.000000   2101804   2099634   2097520   2095593   2093921  
  8240.000000   2092508   2091319   2090283   2089362   2088551  
  8230.000000   2087928   2087617   2087757   2088415   2089530  
  8220.000000   2090890   2092144   2092915   2092859   2091816  
  8210.000000   2089826   2087161   2084225   2081445   2079169  
  8200.000000   2077575   2076688   2076387   2076510   2076882  
  8190.000000   2077383   2077909   2078366   2078615   2078489  
  8180.000000   2077821   2076502   2074546   2072092   2069406  
  8170.000000   2066790   2064523   2062771   2061553   2060764  
  8160.000000   2060209   2059701   2059094   2058347   2057490  
  8150.000000   2056618   2055826   2055179   2054682   2054287  
  8140.000000   2053912   2053467   2052882   2052120   2051176  
  8130.000000   2050077   2048853   2047547   2046190   2044804  
  8120.000000   2043405   2041990   2040549   2039049   2037444  
  8110.000000   2035676   2033701   2031509   2029150   2026745  
  8100.000000   2024483   2022579   2021233   2020561   2020560  
  8090.000000   2021083   2021882   2022651   2023132   2023165  
  8080.000000   2022741   2021976   2021076   2020255   2019681  
  8070.000000   2019423   2019460   2019693   2019996   2020247  
  8060.000000   2020346   2020234   2019868   2019232   2018325  
  8050.000000   2017177   2015848   2014428   2013020   2011714  
  8040.000000   2010564   2009573   2008702   2007890   2007079  
  8030.000000   2006254   2005426   2004647   2003969   2003435  
  8020.000000   2003061   2002838   2002744   2002745   2002802  
  8010.000000   2002854   2002822   2002606   2002106   2001262  
  8000.000000   2000084   1998676   1997217   1995916   1994949  
  7990.000000   1994399   1994219   1994253   1994276   1994072  
  7980.000000   1993501   1992536   1991256   1989819   1988399  
  7970.000000   1987144   1986151   1985448   1985022   1984809  
  7960.000000   1984728   1984664   1984503   1984131   1983481  
  7950.000000   1982550   1981423   1980259   1979259   1978599  
  7940.000000   1978387   1978623   1979209   1979978   1980754  
  7930.000000   1981394   1981819   1982006   1981966   1981723  
  7920.000000   1981297   1980717   1980044   1979376   1978853  
  7910.000000   1978611   1978737   1979223   1979945   1980693  
  7900.000000   1981227   1981364   1981039   1980324   1979404  
  7890.000000   1978515   1977856   1977543   1977576   1977867  
  7880.000000   1978287   1978718   1979089   1979386   1979619  
  7870.000000   1979810   1979946   1979997   1979912   1979665  
  7860.000000   1979271   1978795   1978342   1978017   1977886  
  7850.000000   1977949   1978124   1978279   1978259   1977949  
  7840.000000   1977305   1976373   1975281   1974193   1973268  
  7830.000000   1972610   1972241   1972108   1972106   1972127  
  7820.000000   1972094   1971990   1971850   1971740   1971715  
  7810.000000   1971785   1971899   1971950   1971817   1971396  
  7800.000000   1970650   1969624   1968438   1967262   1966265  
  7790.000000   1965578   1965254   1965266   1965509   1965839  
  7780.000000   1966100   1966173   1965989   1965555   1964929  
  7770.000000   1964215   1963519   1962932   1962496   1962208  
  7760.000000   1962017   1961847   1961616   1961257   1960729  
  7750.000000   1960025   1959160   1958168   1957095   1955993  
  7740.000000   1954914   1953912   1953028   1952290   1951703  
  7730.000000   1951246   1950873   1950529   1950156   1949714  
  7720.000000   1949188   1948591   1947962   1947354   1946825  
  7710.000000   1946417   1946150   1946013   1945967   1945953  
  7700.000000   1945909   1945789   1945578   1945297   1944995  
  7690.000000   1944724   1944512   1944341   1944148   1943845  
  7680.000000   1943357   1942667   1941839   1941009   1940339  
  7670.000000   1939967   1939938   1940188   1940547   1940794  
  7660.000000   1940731   1940243   1939348   1938175   1936932  
  7650.000000   1935826   1935008   1934526   1934338   1934330  
  7640.000000   1934371   1934352   1934221   1933989   1933712  
  7630.000000   1933480   1933368   1933426   1933655   1934008  
  7620.000000   1934406   1934745   1934938   1934909   1934631  
  7610.000000   1934106   1933374   1932495   1931547   1930605  
  7600.000000   1929755   1929071   1928622   1928449   1928555  
  7590.000000   1928892   1929368   1929873   1930312   1930645  
  7580.000000   1930903   1931176   1931579   1932187   1933008  
  7570.000000   1933943   1934828   1935473   1935746   1935611  
  7560.000000   1935151   1934533   1933948   1933549   1933409  
  7550.000000   1933511   1933775   1934095   1934391   1934619  
  7540.000000   1934779   1934889   1934970   1935031   1935081  
  7530.000000   1935128   1935209   1935368   1935667   1936142  
  7520.000000   1936810   1937644   1938596   1939602   1940613  
  7510.000000   1941596   1942543   1943460   1944366   1945278  
  7500.000000   1946218   1947201   1948235   1949307   1950386  
  7490.000000   1951415   1952334   1953091   1953671   1954099  
  7480.000000   1954443   1954782   1955183   1955670   1956231  
  7470.000000   1956821   1957407   1957988   1958611   1959355  
  7460.000000   1960302   1961502   1962951   1964591   1966341  
  7450.000000   1968121   1969891   1971637   1973373   1975101  
  7440.000000   1976805   1978441   1979967   1981356   1982633  
  7430.000000   1983862   1985138   1986543   1988119   1989852  
  7420.000000   1991679   1993518   1995295   1996966   1998523  
  7410.000000   1999985   2001377   2002719   2004025   2005307  
  7400.000000   2006583   2007878   2009218   2010619   2012078  
  7390.000000   2013576   2015082   2016577   2018056   2019531  
  7380.000000   2021012   2022497   2023954   2025331   2026579  
  7370.000000   2027673   2028639   2029545   2030489   2031562  
  7360.000000   2032819   2034262   2035846   2037505   2039177  
  7350.000000   2040818   2042412   2043945   2045403   2046755  
  7340.000000   2047974   2049045   2049997   2050900   2051853  
  7330.000000   2052954   2054266   2055793   2057477   2059226  
  7320.000000   2060942   2062562   2064063   2065465   2066806  
  7310.000000   2068118   2069408   2070656   2071822   2072876  
  7300.000000   2073806   2074638   2075430   2076259   2077198  
  7290.000000   2078300   2079570   2080967   2082399   2083757  
  7280.000000   2084939   2085882   2086587   2087124   2087609  
  7270.000000   2088175   2088916   2089861   2090957   2092100  
  7260.000000   2093174   2094098   2094859   2095506   2096129  
  7250.000000   2096806   2097580   2098425   2099289   2100101  
  7240.000000   2100844   2101545   2102300   2103207   2104360  
  7230.000000   2105780   2107445   2109281   2111220   2113209  
  7220.000000   2115243   2117330   2119505   2121777   2124153  
  7210.000000   2126609   2129131   2131689   2134279   2136870  
  7200.000000   2139445   2141954   2144368   2146665   2148876  
  7190.000000   2151070   2153362   2155861   2158659   2161773  
  7180.000000   2165167   2168740   2172388   2176012   2179558  
  7170.000000   2183005   2186375   2189690   2192997   2196317  
  7160.000000   2199694   2203146   2206702   2210359   2214109  
  7150.000000   2217912   2221737   2225557   2229395   2233299  
  7140.000000   2237359   2241641   2246189   2250969   2255914  
  7130.000000   2260914   2265896   2270813   2275704   2280627  
  7120.000000   2285677   2290905   2296336   2301930   2307638  
  7110.000000   2313398   2319192   2325024   2330938   2336966  
  7100.000000   2343139   2349439   2355833   2362252   2368631  
  7090.000000   2374899   2381018   2386965   2392761   2398455  
  7080.000000   2404140   2409914   2415878   2422081   2428516  
  7070.000000   2435093   2441680   2448126   2454328   2460250  
  7060.000000   2465948   2471538   2477165   2482948   2488953  
  7050.000000   2495178   2501567   2508039   2514520   2520964  
  7040.000000   2527357   2533708   2540030   2546333   2552606  
  7030.000000   2558828   2564965   2570981   2576845   2582540  
  7020.000000   2588061   2593439   2598710   2603941   2609183  
  7010.000000   2614481   2619834   2625218   2630562   2635797  
  7000.000000   2640851   2645691   2650306   2654732   2659009  
  6990.000000   2663203   2667363   2671545   2675773   2680068  
  6980.000000   2684409   2688762   2693046   2697184   2701088  
  6970.000000   2704714   2708050   2711143   2714059   2716883  
  6960.000000   2719669   2722452   2725222   2727970   2730674  
  6950.000000   2733352   2736018   2738711   2741438   2744193  
  6940.000000   2746922   2749570   2752064   2754366   2756456  
  6930.000000   2758353   2760086   2761699   2763229   2764714  
  6920.000000   2766177   2767646   2769124   2770617   2772103  
  6910.000000   2773562   2774961   2776288   2777535   2778722  
  6900.000000   2779868   2780995   2782107   2783199   2784254  
  6890.000000   2785261   2786215   2787125   2787998   2788839  
  6880.000000   2789634   2790367   2791024   2791614   2792172  
  6870.000000   2792756   2793426   2794217   2795125   2796106  
  6860.000000   2797088   2798008   2798824   2799542   2800198  
  6850.000000   2800845   2801524   2802254   2803022   2803800  
  6840.000000   2804557   2805273   2805937   2806548   2807101  
  6830.000000   2807593   2808017   2808381   2808703   2809025  
  6820.000000   2809381   2809797   2810268   2810764   2811237  
  6810.000000   2811642   2811950   2812158   2812274   2812309  
  6800.000000   2812257   2812102   2811823   2811424   2810938  
  6790.000000   2810437   2810002   2809711   2809588   2809616  
  6780.000000   2809721   2809822   2809845   2809757   2809564  
  6770.000000   2809301   2809007   2808708   2808406   2808088  
  6760.000000   2807743   2807372   2806998   2806654   2806372  
  6750.000000   2806173   2806051   2805989   2805954   2805915  
  6740.000000   2805842   2805711   2805502   2805203   2804814  
  6730.000000   2804353   2803852   2803353   2802892   2802485  
  6720.000000   2802116   2801750   2801338   2800850   2800274  
  6710.000000   2799634   2798960   2798288   2797628   2796972  
  6700.000000   2796300   2795598   2794871   2794150   2793469  
  6690.000000   2792858   2792312   2791803   2791273   2790681  
  6680.000000   2789997   2789240   2788443   2787660   2786917  
  6670.000000   2786220   2785538   2784828   2784044   2783154  
  6660.000000   2782139   2780993   2779706   2778275   2776702  
  6650.000000   2775016   2773266   2771538   2769911   2768457  
  6640.000000   2767195   2766101   2765104   2764122   2763076  
  6630.000000   2761921   2760639   2759239   2757736   2756148  
  6620.000000   2754492   2752794   2751091   2749434   2747870  
  6610.000000   2746427   2745094   2743819   2742522   2741128  
  6600.000000   2739589   2737906   2736118   2734295   2732498  
  6590.000000   2730767   2729108   2727502   2725923   2724348  
  6580.000000   2722767   2721177   2719576   2717958   2716311  
  6570.000000   2714629   2712916   2711189   2709475   2707799  
  6560.000000   2706169   2704575   2702994   2701403   2699793  
  6550.000000   2698177   2696581   2695034   2693553   2692131  
  6540.000000   2690751   2689388   2688032   2686692   2685389  
  6530.000000   2684143   2682960   2681817   2680676   2679495  
  6520.000000   2678247   2676933   2675584   2674243   2672955  
  6510.000000   2671744   2670615   2669556   2668548   2667576  
  6500.000000   2666631   2665708   2664793   2663870   2662915  
  6490.000000   2661912   2660859   2659771   2658679   2657611  
  6480.000000   2656584   2655592   2654615   2653623   2652594  
  6470.000000   2651521   2650415   2649298   2648189   2647103  
  6460.000000   2646042   2645007   2644000   2643024   2642090  
  6450.000000   2641201   2640351   2639524   2638702   2637868  
  6440.000000   2637021   2636174   2635346   2634551   2633791  
  6430.000000   2633052   2632314   2631561   2630792   2630023  
  6420.000000   2629282   2628588   2627946   2627337   2626734  
  6410.000000   2626110   2625456   2624784   2624124   2623507  
  6400.000000   2622951   2622456   2622009   2621592   2621200  
  6390.000000   2620845   2620545   2620311   2620137   2619987  
  6380.000000   2619811   2619556   2619195   2618731   2618204  
  6370.000000   2617671   2617178   2616753   2616388   2616055  
  6360.000000   2615719   2615353   2614948   2614511   2614051  
  6350.000000   2613571   2613061   2612503   2611879   2611184  
  6340.000000   2610427   2609635   2608836   2608057   2607314  
  6330.000000   2606616   2605956   2605333   2604733   2604150  
  6320.000000   2603564   2602957   2602304   2601587   2600793  
  6310.000000   2599924   2598983   2597982   2596923   2595809  
  6300.000000   2594635   2593406   2592131   2590836   2589542  
  6290.000000   2588273   2587028   2585801   2584556   2583269  
  6280.000000   2581910   2580477   2578975   2577430   2575859  
  6270.000000   2574282   2572701   2571112   2569500   2567854  
  6260.000000   2566160   2564413   2562613   2560770   2558899  
  6250.000000   2557025   2555169   2553356   2551591   2549867  
  6240.000000   2548162   2546449   2544702   2542913   2541082  
  6230.000000   2539220   2537336   2535429   2533489   2531502  
  6220.000000   2529464   2527389   2525313   2523284   2521341  
  6210.000000   2519503   2517757   2516064   2514378   2512662  
  6200.000000   2510910   2509140   2507389   2505692   2504063  
  6190.000000   2502489   2500941   2499381   2497790   2496165  
  6180.000000   2494524   2492894   2491300   2489753   2488251  
  6170.000000   2486784   2485339   2483907   2482480   2481047  
  6160.000000   2479599   2478122   2476615   2475085   2473561  
  6150.000000   2472076   2470669   2469360   2468145   2466999  
  6140.000000   2465888   2464778   2463654   2462519   2461387  
  6130.000000   2460271   2459175   2458081   2456969   2455820  
  6120.000000   2454635   2453431   2452244   2451104   2450034  
  6110.000000   2449032   2448082   2447157   2446245   2445340  
  6100.000000   2444456   2443610   2442820   2442087   2441408  
  6090.000000   2440768   2440164   2439591   2439064   2438587  
  6080.000000   2438170   2437803   2437476   2437165   2436868  
  6070.000000   2436578   2436319   2436109   2435987   2435974  
  6060.000000   2436102   2436377   2436814   2437396   2438113  
  6050.000000   2438925   2439808   2440719   2441653   2442608  
  6040.000000   2443625   2444737   2445997   2447418   2449007  
  6030.000000   2450724   2452534   2454389   2456269   2458163  
  6020.000000   2460091   2462060   2464084   2466148   2468242  
  6010.000000   2470334   2472415   2474477   2476535   2478599  
  6000.000000   2480688   2482808   2484971   2487179   2489452  
  5990.000000   2491799   2494242   2496780   2499410   2502104  
  5980.000000   2504840   2507592   2510359   2513148   2515986  
  5970.000000   2518889   2521871   2524921   2528029   2531172  
  5960.000000   2534352   2537567   2540837   2544161   2547540  
  5950.000000   2550941   2554338   2557698   2561020   2564327  
  5940.000000   2567672   2571115   2574710   2578479   2582410  
  5930.000000   2586458   2590561   2594650   2598668   2602572  
  5920.000000   2606334   2609941   2613393   2616702   2619889  
  5910.000000   2622984   2626012   2628991   2631919   2634788  
  5900.000000   2637575   2640276   2642892   2645455   2647994  
  5890.000000   2650547   2653123   2655717   2658294   2660823  
  5880.000000   2663276   2665649   2667951   2670200   2672409  
  5870.000000   2674573   2676676   2678697   2680630   2682491  
  5860.000000   2684322   2686173   2688093   2690111   2692236  
  5850.000000   2694456   2696756   2699124   2701563   2704076  
  5840.000000   2706671   2709339   2712068   2714834   2717627  
  5830.000000   2720442   2723296   2726203   2729171   2732188  
  5820.000000   2735216   2738201   2741088   2743838   2746432  
  5810.000000   2748882   2751204   2753438   2755598   2757716  
  5800.000000   2759791   2761850   2763883   2765913   2767907  
  5790.000000   2769857   2771691   2773367   2774794   2775920  
  5780.000000   2776665   2776988   2776831   2776176   2775003  
  5770.000000   2773349   2771270   2768885   2766314   2763706  
  5760.000000   2761169   2758795   2756611   2754627   2752811  
  5750.000000   2751141   2749586   2748133   2746768   2745484  
  5740.000000   2744276   2743137   2742072   2741077   2740161  
  5730.000000   2739314   2738529   2737775   2737031   2736268  
  5720.000000   2735484   2734682   2733887   2733122   2732410  
  5710.000000   2731759   2731173   2730649   2730193   2729812  
  5700.000000   2729522   2729326   2729210   2729143   2729076  
  5690.000000   2728965   2728777   2728512   2728185   2727839  
  5680.000000   2727502   2727196   2726905   2726598   2726212  
  5670.000000   2725691   2724971   2724015   2722790   2721302  
  5660.000000   2719570   2717648   2715604   2713523   2711476  
  5650.000000   2709522   2707679   2705942   2704280   2702660  
  5640.000000   2701052   2699445   2697842   2696250   2694681  
  5630.000000   2693138   2691629   2690162   2688762   2687454  
  5620.000000   2686266   2685204   2684254   2683372   2682507  
  5610.000000   2681605   2680646   2679631   2678598   2677592  
  5600.000000   2676653   2675799   2675024   2674304   2673606  
  5590.000000   2672902   2672175   2671417   2670622   2669787  
  5580.000000   2668905   2667975   2667002   2666001   2664988  
  5570.000000   2663976   2662965   2661941   2660880   2659761  
  5560.000000   2658570   2657315   2656015   2654698   2653388  
  5550.000000   2652100   2650840   2649612   2648417   2647266  
  5540.000000   2646164   2645115   2644110   2643127   2642142  
  5530.000000   2641136   2640101   2639051   2638005   2636985  
  5520.000000   2636001   2635048   2634107   2633157   2632182  
  5510.000000   2631175   2630135   2629064   2627955   2626805  
  5500.000000   2625605   2624362   2623093   2621829   2620593  
  5490.000000   2619393   2618200   2616969   2615637   2614168  
  5480.000000   2612549   2610818   2609035   2607273   2605579  
  5470.000000   2603969   2602415   2600870   2599280   2597606  
  5460.000000   2595829   2593951   2591976   2589915   2587777  
  5450.000000   2585577   2583341   2581108   2578918   2576801  
  5440.000000   2574769   2572809   2570902   2569028   2567192  
  5430.000000   2565407   2563700   2562078   2560537   2559037  
  5420.000000   2557547   2556035   2554520   2553042   2551679  
  5410.000000   2550484   2549491   2548671   2547979   2547344  
  5400.000000   2546737   2546142   2545602   2545148   2544833  
  5390.000000   2544659   2544630   2544714   2544919   2545248  
  5380.000000   2545756   2546474   2547443   2548640   2550040  
  5370.000000   2551564   2553173   2554812   2556499   2558231  
  5360.000000   2560071   2562027   2564167   2566495   2569091  
  5350.000000   2571970   2575223   2578856   2582932   2587409  
  5340.000000   2592311   2597573   2603241   2609282   2615779  
  5330.000000   2622707   2630132   2637987   2646304   2655006  
  5320.000000   2664162   2673751   2683915   2694668   2706160  
  5310.000000   2718360   2731350   2745036   2759460   2774532  
  5300.000000   2790335   2806837   2824178   2842371   2861560  
  5290.000000   2881727   2902937   2925069   2948067   2971724  
  5280.000000   2995957   3020615   3045732   3071312   3097499  
  5270.000000   3124344   3151909   3180089   3208726   3237583  
  5260.000000   3266459   3295233   3323888   3352497   3381118  
  5250.000000   3409780   3438354   3466668   3494419   3521425  
  5240.000000   3547493   3572668   3596978   3620631   3643690  
  5230.000000   3666296   3688364   3709870   3730604   3750508  
  5220.000000   3769427   3787433   3804513   3820860   3836515  
  5210.000000   3851651   3866218   3880253   3893577   3906154  
  5200.000000   3917811   3928600   3938472   3947590   3955970  
  5190.000000   3963764   3970934   3977550   3983514   3988870  
  5180.000000   3993542   3997612   4001041   4003919   4006193  
  5170.000000   4007926   4009052   4009642   4009671   4009241  
  5160.000000   4008356   4007109   4005469   4003481   4001084  
  5150.000000   3998314   3995135   3991611   3987738   3983579  
  5140.000000   3979117   3974389   3969371   3964106   3958599  
  5130.000000   3952921   3947099   3941195   3935210   3929166  
  5120.000000   3923038   3916836   3910550   3904208   3897821  
  5110.000000   3891417   3884996   3878567   3872122   3865676  
  5100.000000   3859242   3852854   3846538   3840316   3834185  
  5090.000000   3828132   3822129   3816157   3810204   3804274  
  5080.000000   3798380   3792532   3786727   3780952   3775181  
  5070.000000   3769392   3763567   3757708   3751819   3745917  
  5060.000000   3740000   3734064   3728082   3722033   3715885  
  5050.000000   3709627   3703249   3696758   3690159   3683467  
  5040.000000   3676687   3669837   3662927   3655983   3649029  
  5030.000000   3642097   3635214   3628406   3621689   3615074  
  5020.000000   3608569   3602172   3595888   3589707   3583630  
  5010.000000   3577640   3571739   3565911   3560170   3554513  
  5000.000000   3548973   3543560   3538323   3533270   3528451  
  4990.000000   3523863   3519543   3515473   3511675   3508117  
  4980.000000   3504817   3501739   3498912   3496315   3494001  
  4970.000000   3491966   3490273   3488916   3487945   3487332  
  4960.000000   3487111   3487243   3487765   3488649   3489945  
  4950.000000   3491629   3493740   3496229   3499110   3502311  
  4940.000000   3505845   3509654   3513779   3518196   3522966  
  4930.000000   3528072   3533563   3539401   3545612   3552147  
  4920.000000   3559025   3566205   3573712   3581515   3589637  
  4910.000000   3598046   3606758   3615739   3624991   3634476  
  4900.000000   3644179   3654052   3664060   3674156   3684301  
  4890.000000   3694462   3704605   3714708   3724730   3734642  
  4880.000000   3744385   3753925   3763193   3772166   3780779  
  4870.000000   3789019   3796823   3804183   3811040   3817404  
  4860.000000   3823244   3828605   3833491   3837977   3842078  
  4850.000000   3845867   3849347   3852577   3855555   3858340  
  4840.000000   3860935   3863398   3865734   3867985   3870144  
  4830.000000   3872233   3874239   3876182   3878059   3879896  
  4820.000000   3881699   3883488   3885269   3887048   3888824  
  4810.000000   3890597   3892358   3894102   3895819   3897500  
  4800.000000   3899142   3900747   3902331   3903923   3905558  
  4790.000000   3907276   3909102   3911053   3913116   3915272  
  4780.000000   3917482   3919710   3921921   3924091   3926195  
  4770.000000   3928223   3930155   3931984   3933695   3935288  
  4760.000000   3936762   3938133   3939410   3940615   3941750  
  4750.000000   3942824   3943826   3944752   3945584   3946321  
  4740.000000   3946950   3947479   3947902   3948234   3948472  
  4730.000000   3948630   3948707   3948713   3948653   3948536  
  4720.000000   3948369   3948164   3947934   3947693   3947461  
  4710.000000   3947254   3947094   3946998   3946984   3947060  
  4700.000000   3947240   3947527   3947928   3948444   3949083  
  4690.000000   3949845   3950738   3951756   3952895   3954135  
  4680.000000   3955454   3956809   3958168   3959481   3960724  
  4670.000000   3961863   3962905   3963852   3964741   3965601  
  4660.000000   3966483   3967422   3968467   3969649   3971010  
  4650.000000   3972574   3974365   3976391   3978648   3981112  
  4640.000000   3983747   3986509   3989349   3992225   3995106  
  4630.000000   3997966   4000789   4003559   4006254   4008854  
  4620.000000   4011324   4013635   4015750   4017646   4019296  
  4610.000000   4020700   4021850   4022771   4023481   4024030  
  4600.000000   4024449   4024798   4025100   4025400   4025693  
  4590.000000   4025991   4026261   4026494   4026643   4026696  
  4580.000000   4026614   4026389   4025994   4025431   4024687  
  4570.000000   4023774   4022694   4021468   4020107   4018637  
  4560.000000   4017068   4015425   4013714   4011957   4010159  
  4550.000000   4008343   4006514   4004687   4002862   4001041  
  4540.000000   3999222   3997400   3995580   3993763   3991970  
  4530.000000   3990206   3988499   3986850   3985290   3983816  
  4520.000000   3982468   3981246   3980200   3979328   3978685  
  4510.000000   3978257   3978098   3978191   3978605   3979337  
  4500.000000   3980483   3982053   3984156   3986790   3990051  
  4490.000000   3993918   3998470   4003676   4009614   4016250  
  4480.000000   4023661   4031802   4040730   4050382   4060785  
  4470.000000   4071855   4083596   4095909   4108784   4122118  
  4460.000000   4135893   4150010   4164444   4179104   4193959  
  4450.000000   4208924   4223965   4239018   4254059   4269063  
  4440.000000   4284030   4298974   4313899   4328828   4343737  
  4430.000000   4358628   4373428   4388109   4402562   4416745  
  4420.000000   4430538   4443909   4456750   4469051   4480721  
  4410.000000   4491769   4502116   4511777   4520684   4528866  
  4400.000000   4536281   4542995   4549008   4554428   4559298  
  4390.000000   4563750   4567849   4571724   4575438   4579099  
  4380.000000   4582748   4586456   4590236   4594126   4598126  
  4370.000000   4602263   4606542   4610994   4615635   4620487  
  4360.000000   4625555   4630844   4636322   4641968   4647707  
  4350.000000   4653502   4659250   4664926   4670440   4675817  
  4340.000000   4681016   4686087   4690968   4695603   4699762  
  4330.000000   4703160   4705375   4706017   4704743   4701432  
  4320.000000   4696182   4689386   4681607   4673537   4665797  
  4310.000000   4658908   4653144   4648611   4645209   4642771  
  4300.000000   4641072   4639924   4639175   4638714   4638480  
  4290.000000   4638407   4638486   4638679   4639011   4639476  
  4280.000000   4640109   4640913   4641890   4643035   4644319  
  4270.000000   4645737   4647248   4648821   4650346   4651680  
  4260.000000   4652580   4652781   4651997   4650025   4646764  
  4250.000000   4642293   4636822   4630700   4624298   4617993  
  4240.000000   4612050   4606652   4601830   4597553   4593699  
  4230.000000   4590154   4586784   4583494   4580209   4576879  
  4220.000000   4573494   4570050   4566599   4563183   4559903  
  4210.000000   4556821   4554032   4551566   4549461   4547683  
  4200.000000   4546208   4544962   4543906   4542972   4542149  
  4190.000000   4541395   4540734   4540144   4539669   4539298  
  4180.000000   4539088   4539034   4539203   4539601   4540300  
  4170.000000   4541311   4542712   4544511   4546781   4549515  
  4160.000000   4552771   4556515   4560783   4565518   4570745  
  4150.000000   4576398   4582502   4588996   4595913   4603201  
  4140.000000   4610913   4619014   4627576   4636578   4646092  
  4130.000000   4656088   4666609   4677592   4689053   4700918  
  4120.000000   4713206   4725872   4738969   4752495   4766520  
  4110.000000   4781043   4796104   4811654   4827665   4844035  
  4100.000000   4860697   4877545   4894531   4911608   4928777  
  4090.000000   4946044   4963427   4980931   4998538   5016229  
  4080.000000   5033951   5051685   5069381   5087037   5104594  
  4070.000000   5122037   5139263   5156228   5172807   5188975  
  4060.000000   5204641   5219833   5234493   5248666   5262277  
  4050.000000   5275361   5287830   5299736   5311015   5321752  
  4040.000000   5331889   5341500   5350492   5358909   5366637  
  4030.000000   5373725   5380076   5385745   5390650   5394829  
  4020.000000   5398174   5400744   5402522   5403606   5403962  
  4010.000000   5403736   5403000   5401756   5399759   5397066  
  4000.000000   5394020  
##END= 
