##TITLE= Sample 001 By ssteindl date Donnerstag, November 22 2018
##JCAMP-DX= 4.24
##DATA TYPE= INFRARED SPECTRUM
##ORIGIN= Exported PE Spectrum Data File
##OWNER= Sandra Steindl
##DATE= 18/11/22
##TIME= 13:07:53.00
##SPECTROMETER/DATA SYSTEM= PERKIN-ELMER Frontier FT-IR/NIR IR
##INSTRUMENT PARAMETERS=
  APODIZATION=stark
  DETECTOR=INGAAS
##RESOLUTION= 16.000000
##DELTAX= -2.000000
##XUNITS= 1/CM
##YUNITS= A
##XFACTOR= 1.00
##YFACTOR= 0.00000011920928955078
##FIRSTX= 10000.00
##LASTX= 4000.00
##NPOINTS= 3001
##FIRSTY= 0.239959
##MAXY= 0.592939
##MINY= 0.196908
##XYDATA= (X++(Y..Y))
 10000.000000   2012926   2012574   2012882   2014247   2015714  
  9990.000000   2015392   2011825   2004493   1993816   1981012  
  9980.000000   1967981   1956741   1948779   1944796   1944703  
  9970.000000   1947843   1953179   1959590   1966055   1971734  
  9960.000000   1976070   1978749   1979786   1979434   1978215  
  9950.000000   1976707   1975476   1974852   1974944   1975652  
  9940.000000   1976810   1978331   1980171   1982343   1984648  
  9930.000000   1986724   1987916   1987609   1985331   1981102  
  9920.000000   1975427   1969244   1963636   1959452   1957070  
  9910.000000   1956185   1955970   1955245   1952919   1948247  
  9900.000000   1941134   1932117   1922350   1913298   1906530  
  9890.000000   1903312   1904367   1909601   1918119   1928390  
  9880.000000   1938650   1947383   1953707   1957612   1959861  
  9870.000000   1961685   1964268   1968286   1973667   1979590  
  9860.000000   1984866   1988319   1989240   1987536   1983668  
  9850.000000   1978415   1972515   1966516   1960658   1955047  
  9840.000000   1949759   1945045   1941237   1938766   1937830  
  9830.000000   1938458   1940311   1942965   1945942   1948939  
  9820.000000   1951807   1954494   1956869   1958600   1959120  
  9810.000000   1957759   1954034   1947875   1939865   1931086  
  9800.000000   1922879   1916354   1911960   1909340   1907386  
  9790.000000   1904746   1900356   1893951   1886265   1878770  
  9780.000000   1873188   1870734   1871662   1875033   1879133  
  9770.000000   1882033   1882468   1880233   1876336   1872522  
  9760.000000   1870602   1871757   1876145   1882905   1890600  
  9750.000000   1897725   1903263   1906817   1908548   1908860  
  9740.000000   1908093   1906434   1903964   1900887   1897669  
  9730.000000   1895010   1893605   1893819   1895414   1897602  
  9720.000000   1899250   1899407   1897623   1894201   1890026  
  9710.000000   1886203   1883595   1882480   1882538   1883048  
  9700.000000   1883322   1882995   1882174   1881279   1880756  
  9690.000000   1880838   1881417   1882194   1882846   1883270  
  9680.000000   1883627   1884258   1885478   1887355   1889612  
  9670.000000   1891691   1892955   1892932   1891490   1888844  
  9660.000000   1885449   1881798   1878275   1875109   1872377  
  9650.000000   1870130   1868392   1867225   1866629   1866540  
  9640.000000   1866784   1867138   1867398   1867443   1867270  
  9630.000000   1866908   1866385   1865610   1864441   1862740  
  9620.000000   1860517   1857995   1855604   1853859   1853192  
  9610.000000   1853796   1855534   1857988   1860559   1862662  
  9600.000000   1863844   1863898   1862857   1860955   1858573  
  9590.000000   1856132   1854079   1852723   1852238   1852498  
  9580.000000   1853138   1853582   1853230   1851701   1848953  
  9570.000000   1845453   1841988   1839577   1839064   1840948  
  9560.000000   1845138   1851018   1857542   1863503   1867773  
  9550.000000   1869514   1868337   1864305   1857963   1850138  
  9540.000000   1841862   1834069   1827513   1822559   1819204  
  9530.000000   1817109   1815750   1814664   1813579   1812596  
  9520.000000   1812074   1812542   1814411   1817822   1822525  
  9510.000000   1827947   1833345   1838004   1841439   1843461  
  9500.000000   1844222   1844070   1843431   1842596   1841643  
  9490.000000   1840365   1838408   1835378   1831069   1825571  
  9480.000000   1819303   1812978   1807359   1803158   1800746  
  9470.000000   1800188   1801193   1803336   1806175   1809402  
  9460.000000   1812818   1816252   1819451   1822020   1823512  
  9450.000000   1823530   1821977   1819072   1815426   1811772  
  9440.000000   1808776   1806751   1805563   1804741   1803693  
  9430.000000   1802032   1799721   1797119   1794789   1793283  
  9420.000000   1792893   1793550   1794852   1796249   1797264  
  9410.000000   1797661   1797491   1797011   1796552   1796378  
  9400.000000   1796642   1797348   1798418   1799661   1800837  
  9390.000000   1801602   1801606   1800556   1798337   1795135  
  9380.000000   1791402   1787851   1785213   1784120   1784844  
  9370.000000   1787281   1790913   1795009   1798765   1801492  
  9360.000000   1802710   1802167   1799895   1796127   1791359  
  9350.000000   1786171   1781212   1776985   1773787   1771639  
  9340.000000   1770310   1769502   1768941   1768658   1768877  
  9330.000000   1770058   1772499   1776244   1780874   1785624  
  9320.000000   1789622   1792077   1792594   1791078   1787811  
  9310.000000   1783106   1777307   1770638   1763338   1755754  
  9300.000000   1748417   1742099   1737607   1735651   1736503  
  9290.000000   1739992   1745450   1751967   1758562   1764364  
  9280.000000   1768736   1771235   1771722   1770236   1767145  
  9270.000000   1762998   1758587   1754720   1752086   1751022  
  9260.000000   1751410   1752783   1754488   1756009   1757062  
  9250.000000   1757724   1758234   1758848   1759604   1760277  
  9240.000000   1760494   1759920   1758514   1756564   1754640  
  9230.000000   1753300   1752869   1753286   1754156   1754955  
  9220.000000   1755241   1754868   1753966   1752900   1752021  
  9210.000000   1751550   1751476   1751665   1751982   1752383  
  9200.000000   1752896   1753498   1754005   1754020   1753044  
  9190.000000   1750660   1746800   1741845   1736622   1732092  
  9180.000000   1729036   1727759   1727999   1729064   1730103  
  9170.000000   1730528   1730220   1729578   1729271   1729949  
  9160.000000   1731951   1735136   1738928   1742505   1745129  
  9150.000000   1746299   1745887   1744090   1741333   1738128  
  9140.000000   1734917   1732051   1729766   1728200   1727369  
  9130.000000   1727137   1727226   1727269   1726882   1725771  
  9120.000000   1723800   1721092   1718023   1715108   1712873  
  9110.000000   1711688   1711713   1712826   1714675   1716785  
  9100.000000   1718701   1720112   1720893   1721135   1721065  
  9090.000000   1720956   1720999   1721234   1721585   1721852  
  9080.000000   1721848   1721412   1720498   1719111   1717282  
  9070.000000   1715031   1712380   1709427   1706390   1703659  
  9060.000000   1701726   1701078   1701987   1704399   1707852  
  9050.000000   1711617   1714895   1717086   1717979   1717761  
  9040.000000   1716927   1716010   1715391   1715136   1715035  
  9030.000000   1714731   1713935   1712583   1710884   1709228  
  9020.000000   1708007   1707470   1707603   1708158   1708717  
  9010.000000   1708878   1708372   1707143   1705338   1703275  
  9000.000000   1701366   1700021   1699551   1700080   1701516  
  8990.000000   1703511   1705525   1706931   1707220   1706154  
  8980.000000   1703878   1700892   1697911   1695650   1694605  
  8970.000000   1694901   1696298   1698285   1700291   1701833  
  8960.000000   1702632   1702630   1701923   1700691   1699112  
  8950.000000   1697387   1695741   1694446   1693761   1693882  
  8940.000000   1694845   1696494   1698464   1700312   1701626  
  8930.000000   1702147   1701820   1700743   1699130   1697160  
  8920.000000   1694968   1692602   1690107   1687578   1685185  
  8910.000000   1683176   1681793   1681224   1681533   1682659  
  8900.000000   1684423   1686575   1688820   1690835   1692323  
  8890.000000   1693024   1692825   1691767   1690117   1688303  
  8880.000000   1686839   1686150   1686441   1687616   1689335  
  8870.000000   1691132   1692585   1693442   1693670   1693408  
  8860.000000   1692865   1692199   1691480   1690701   1689879  
  8850.000000   1689117   1688629   1688676   1689444   1690960  
  8840.000000   1693025   1695295   1697388   1699042   1700195  
  8830.000000   1700955   1701517   1702009   1702428   1702620  
  8820.000000   1702386   1701609   1700374   1698985   1697872  
  8810.000000   1697438   1697877   1699125   1700855   1702648  
  8800.000000   1704115   1705060   1705487   1705586   1705604  
  8790.000000   1705765   1706170   1706812   1707595   1708393  
  8780.000000   1709095   1709587   1709774   1709546   1708828  
  8770.000000   1707587   1705884   1703876   1701797   1699904  
  8760.000000   1698421   1697479   1697124   1697332   1698054  
  8750.000000   1699247   1700858   1702816   1704994   1707209  
  8740.000000   1709254   1710947   1712215   1713096   1713758  
  8730.000000   1714380   1715112   1715953   1716803   1717460  
  8720.000000   1717753   1717595   1717050   1716308   1715612  
  8710.000000   1715197   1715205   1715711   1716713   1718204  
  8700.000000   1720171   1722601   1725424   1728477   1731479  
  8690.000000   1734079   1735953   1736901   1736934   1736274  
  8680.000000   1735303   1734417   1733912   1733884   1734237  
  8670.000000   1734746   1735163   1735326   1735198   1734872  
  8660.000000   1734501   1734240   1734188   1734371   1734773  
  8650.000000   1735351   1736083   1736955   1737967   1739100  
  8640.000000   1740314   1741558   1742807   1744067   1745392  
  8630.000000   1746827   1748401   1750045   1751618   1752918  
  8620.000000   1753777   1754124   1754049   1753803   1753724  
  8610.000000   1754167   1755358   1757361   1760034   1763098  
  8600.000000   1766201   1769008   1771265   1772820   1773628  
  8590.000000   1773723   1773203   1772211   1770941   1769617  
  8580.000000   1768479   1767750   1767596   1768094   1769188  
  8570.000000   1770718   1772438   1774090   1775445   1776363  
  8560.000000   1776828   1776924   1776836   1776771   1776935  
  8550.000000   1777464   1778402   1779701   1781243   1782893  
  8540.000000   1784523   1786068   1787515   1788895   1790245  
  8530.000000   1791570   1792835   1793935   1794743   1795125  
  8520.000000   1795018   1794435   1793483   1792359   1791317  
  8510.000000   1790632   1790527   1791161   1792563   1794640  
  8500.000000   1797155   1799791   1802219   1804159   1805455  
  8490.000000   1806083   1806176   1805938   1805594   1805300  
  8480.000000   1805146   1805141   1805266   1805522   1805952  
  8470.000000   1806648   1807681   1809076   1810757   1812568  
  8460.000000   1814310   1815804   1816954   1817760   1818313  
  8450.000000   1818727   1819098   1819471   1819853   1820244  
  8440.000000   1820664   1821190   1821908   1822908   1824193  
  8430.000000   1825701   1827280   1828773   1830052   1831057  
  8420.000000   1831800   1832310   1832606   1832635   1832292  
  8410.000000   1831474   1830154   1828455   1826635   1825059  
  8400.000000   1824082   1823965   1824770   1826355   1828395  
  8390.000000   1830490   1832263   1833431   1833857   1833554  
  8380.000000   1832676   1831459   1830174   1829087   1828414  
  8370.000000   1828299   1828768   1829737   1831022   1832395  
  8360.000000   1833621   1834504   1834903   1834752   1834047  
  8350.000000   1832826   1831171   1829194   1827079   1825053  
  8340.000000   1823386   1822318   1821999   1822446   1823513  
  8330.000000   1824932   1826360   1827509   1828207   1828450  
  8320.000000   1828379   1828212   1828182   1828432   1828992  
  8310.000000   1829755   1830533   1831121   1831362   1831203  
  8300.000000   1830686   1829963   1829225   1828677   1828446  
  8290.000000   1828571   1828975   1829501   1829936   1830078  
  8280.000000   1829777   1828984   1827754   1826232   1824605  
  8270.000000   1823061   1821743   1820740   1820070   1819697  
  8260.000000   1819544   1819524   1819542   1819517   1819382  
  8250.000000   1819094   1818640   1818035   1817317   1816537  
  8240.000000   1815743   1814979   1814271   1813641   1813099  
  8230.000000   1812668   1812359   1812182   1812103   1812062  
  8220.000000   1811950   1811644   1811025   1810008   1808573  
  8210.000000   1806765   1804703   1802535   1800420   1798479  
  8200.000000   1796777   1795320   1794052   1792903   1791796  
  8190.000000   1790709   1789669   1788776   1788142   1787865  
  8180.000000   1787959   1788329   1788774   1789020   1788800  
  8170.000000   1787907   1786280   1784013   1781346   1778594  
  8160.000000   1776065   1773983   1772436   1771379   1770658  
  8150.000000   1770069   1769413   1768554   1767443   1766120  
  8140.000000   1764690   1763277   1761993   1760897   1759998  
  8130.000000   1759242   1758557   1757862   1757119   1756327  
  8120.000000   1755533   1754800   1754174   1753664   1753235  
  8110.000000   1752823   1752374   1751868   1751333   1750835  
  8100.000000   1750439   1750179   1750018   1749865   1749595  
  8090.000000   1749105   1748350   1747366   1746240   1745077  
  8080.000000   1743949   1742868   1741798   1740679   1739474  
  8070.000000   1738197   1736912   1735708   1734657   1733787  
  8060.000000   1733069   1732441   1731836   1731224   1730621  
  8050.000000   1730075   1729638   1729329   1729124   1728957  
  8040.000000   1728753   1728458   1728062   1727594   1727106  
  8030.000000   1726642   1726212   1725800   1725368   1724885  
  8020.000000   1724343   1723759   1723163   1722574   1721986  
  8010.000000   1721358   1720632   1719757   1718713   1717528  
  8000.000000   1716271   1715039   1713932   1713026   1712363  
  7990.000000   1711942   1711724   1711646   1711624   1711578  
  7980.000000   1711440   1711172   1710772   1710280   1709767  
  7970.000000   1709311   1708979   1708793   1708730   1708714  
  7960.000000   1708642   1708404   1707921   1707162   1706154  
  7950.000000   1704982   1703770   1702649   1701733   1701087  
  7940.000000   1700715   1700552   1700493   1700414   1700217  
  7930.000000   1699858   1699365   1698831   1698385   1698152  
  7920.000000   1698217   1698597   1699246   1700061   1700926  
  7910.000000   1701730   1702399   1702894   1703210   1703353  
  7900.000000   1703336   1703163   1702837   1702368   1701783  
  7890.000000   1701135   1700503   1699988   1699678   1699644  
  7880.000000   1699888   1700350   1700892   1701340   1701514  
  7870.000000   1701295   1700662   1699704   1698603   1697581  
  7860.000000   1696825   1696433   1696378   1696530   1696708  
  7850.000000   1696754   1696584   1696212   1695728   1695250  
  7840.000000   1694862   1694580   1694355   1694099   1693737  
  7830.000000   1693247   1692668   1692097   1691635   1691365  
  7820.000000   1691306   1691421   1691612   1691762   1691751  
  7810.000000   1691485   1690918   1690044   1688917   1687623  
  7800.000000   1686275   1684983   1683829   1682867   1682108  
  7790.000000   1681553   1681199   1681067   1681180   1681561  
  7780.000000   1682174   1682923   1683637   1684113   1684179  
  7770.000000   1683743   1682846   1681626   1680291   1679018  
  7760.000000   1677911   1676962   1676088   1675190   1674219  
  7750.000000   1673219   1672311   1671655   1671361   1671463  
  7740.000000   1671885   1672494   1673145   1673740   1674244  
  7730.000000   1674661   1674997   1675205   1675195   1674845  
  7720.000000   1674078   1672906   1671466   1669984   1668707  
  7710.000000   1667826   1667404   1667376   1667568   1667784  
  7700.000000   1667857   1667712   1667354   1666851   1666283  
  7690.000000   1665701   1665116   1664496   1663805   1663009  
  7680.000000   1662113   1661136   1660122   1659118   1658169  
  7670.000000   1657320   1656616   1656095   1655785   1655685  
  7660.000000   1655768   1655970   1656216   1656433   1656574  
  7650.000000   1656629   1656621   1656593   1656589   1656635  
  7640.000000   1656737   1656878   1657033   1657165   1657246  
  7630.000000   1657239   1657114   1656837   1656387   1655763  
  7620.000000   1654993   1654141   1653296   1652564   1652038  
  7610.000000   1651781   1651804   1652067   1652483   1652944  
  7600.000000   1653348   1653629   1653768   1653798   1653787  
  7590.000000   1653810   1653928   1654148   1654437   1654714  
  7580.000000   1654904   1654943   1654823   1654577   1654276  
  7570.000000   1653997   1653796   1653703   1653721   1653844  
  7560.000000   1654082   1654464   1655036   1655830   1656845  
  7550.000000   1658023   1659260   1660421   1661392   1662100  
  7540.000000   1662547   1662789   1662929   1663069   1663297  
  7530.000000   1663661   1664175   1664830   1665604   1666477  
  7520.000000   1667425   1668427   1669456   1670490   1671514  
  7510.000000   1672523   1673533   1674554   1675592   1676618  
  7500.000000   1677585   1678416   1679056   1679480   1679731  
  7490.000000   1679912   1680169   1680652   1681472   1682668  
  7480.000000   1684191   1685928   1687735   1689486   1691113  
  7470.000000   1692606   1694015   1695402   1696815   1698247  
  7460.000000   1699647   1700926   1702020   1702905   1703643  
  7450.000000   1704352   1705179   1706242   1707593   1709193  
  7440.000000   1710933   1712671   1714305   1715799   1717204  
  7430.000000   1718625   1720186   1721970   1723992   1726195  
  7420.000000   1728485   1730760   1732957   1735055   1737076  
  7410.000000   1739055   1741018   1742966   1744883   1746745  
  7400.000000   1748542   1750276   1751965   1753621   1755247  
  7390.000000   1756830   1758361   1759844   1761305   1762796  
  7380.000000   1764367   1766055   1767856   1769737   1771647  
  7370.000000   1773553   1775450   1777365   1779339   1781394  
  7360.000000   1783507   1785605   1787584   1789343   1790828  
  7350.000000   1792047   1793076   1794033   1795036   1796179  
  7340.000000   1797508   1799033   1800736   1802591   1804559  
  7330.000000   1806586   1808589   1810470   1812128   1813505  
  7320.000000   1814603   1815505   1816343   1817268   1818390  
  7310.000000   1819749   1821298   1822930   1824518   1825965  
  7300.000000   1827229   1828333   1829329   1830282   1831236  
  7290.000000   1832213   1833214   1834240   1835289   1836370  
  7280.000000   1837479   1838598   1839686   1840696   1841588  
  7270.000000   1842354   1843024   1843650   1844301   1845017  
  7260.000000   1845810   1846649   1847488   1848281   1849020  
  7250.000000   1849725   1850461   1851298   1852305   1853514  
  7240.000000   1854928   1856504   1858191   1859920   1861647  
  7230.000000   1863333   1864978   1866589   1868207   1869865  
  7220.000000   1871615   1873484   1875504   1877672   1879988  
  7210.000000   1882423   1884958   1887561   1890210   1892877  
  7200.000000   1895553   1898227   1900919   1903651   1906469  
  7190.000000   1909406   1912488   1915697   1918992   1922291  
  7180.000000   1925521   1928614   1931559   1934378   1937138  
  7170.000000   1939903   1942741   1945683   1948758   1951962  
  7160.000000   1955309   1958797   1962436   1966208   1970088  
  7150.000000   1974022   1977971   1981906   1985859   1989886  
  7140.000000   1994093   1998548   2003301   2008310   2013507  
  7130.000000   2018776   2024043   2029247   2034408   2039551  
  7120.000000   2044736   2049984   2055309   2060685   2066107  
  7110.000000   2071569   2077105   2082748   2088539   2094478  
  7100.000000   2100548   2106691   2112862   2119016   2125152  
  7090.000000   2131281   2137441   2143654   2149943   2156310  
  7080.000000   2162764   2169304   2175943   2182673   2189480  
  7070.000000   2196318   2203133   2209865   2216484   2222987  
  7060.000000   2229409   2235801   2242212   2248670   2255186  
  7050.000000   2261747   2268341   2274955   2281578   2288188  
  7040.000000   2294743   2301188   2307463   2313541   2319445  
  7030.000000   2325256   2331092   2337067   2343241   2349598  
  7020.000000   2356034   2362408   2368576   2374467   2380077  
  7010.000000   2385489   2390805   2396126   2401494   2406905  
  7000.000000   2412308   2417655   2422903   2428054   2433113  
  6990.000000   2438103   2443009   2447815   2452476   2456974  
  6980.000000   2461302   2465499   2469611   2473705   2477808  
  6970.000000   2481941   2486074   2490184   2494219   2498153  
  6960.000000   2501944   2505580   2509032   2512298   2515364  
  6950.000000   2518245   2520953   2523512   2525935   2528234  
  6940.000000   2530406   2532458   2534397   2536260   2538082  
  6930.000000   2539923   2541819   2543805   2545876   2548023  
  6920.000000   2550206   2552390   2554528   2556581   2558505  
  6910.000000   2560273   2561870   2563310   2564631   2565901  
  6900.000000   2567184   2568533   2569965   2571460   2572969  
  6890.000000   2574443   2575843   2577165   2578426   2579661  
  6880.000000   2580891   2582119   2583326   2584488   2585587  
  6870.000000   2586634   2587653   2588683   2589748   2590851  
  6860.000000   2591965   2593051   2594073   2595019   2595902  
  6850.000000   2596761   2597637   2598564   2599544   2600567  
  6840.000000   2601594   2602589   2603515   2604346   2605064  
  6830.000000   2605661   2606134   2606496   2606762   2606963  
  6820.000000   2607126   2607282   2607444   2607629   2607838  
  6810.000000   2608083   2608369   2608709   2609102   2609536  
  6800.000000   2609978   2610384   2610704   2610906   2610976  
  6790.000000   2610923   2610772   2610554   2610297   2610027  
  6780.000000   2609774   2609573   2609458   2609459   2609570  
  6770.000000   2609753   2609934   2610028   2609971   2609746  
  6760.000000   2609390   2608984   2608615   2608342   2608169  
  6750.000000   2608055   2607931   2607747   2607493   2607208  
  6740.000000   2606952   2606779   2606699   2606675   2606630  
  6730.000000   2606493   2606221   2605828   2605368   2604915  
  6720.000000   2604522   2604209   2603952   2603714   2603460  
  6710.000000   2603185   2602900   2602632   2602388   2602163  
  6700.000000   2601925   2601644   2601300   2600894   2600434  
  6690.000000   2599926   2599352   2598682   2597871   2596912  
  6680.000000   2595830   2594704   2593628   2592688   2591907  
  6670.000000   2591250   2590619   2589903   2589015   2587926  
  6660.000000   2586660   2585284   2583860   2582431   2581008  
  6650.000000   2579588   2578172   2576790   2575489   2574319  
  6640.000000   2573298   2572405   2571568   2570703   2569732  
  6630.000000   2568620   2567372   2566026   2564621   2563179  
  6620.000000   2561699   2560167   2558579   2556960   2555355  
  6610.000000   2553820   2552385   2551042   2549732   2548384  
  6600.000000   2546931   2545354   2543681   2541985   2540342  
  6590.000000   2538804   2537382   2536040   2534724   2533381  
  6580.000000   2531980   2530516   2529005   2527466   2525914  
  6570.000000   2524362   2522825   2521325   2519888   2518536  
  6560.000000   2517272   2516065   2514864   2513609   2512258  
  6550.000000   2510809   2509305   2507813   2506408   2505134  
  6540.000000   2503996   2502955   2501956   2500943   2499885  
  6530.000000   2498779   2497647   2496516   2495417   2494362  
  6520.000000   2493361   2492410   2491503   2490624   2489752  
  6510.000000   2488854   2487904   2486886   2485812   2484720  
  6500.000000   2483669   2482719   2481901   2481209   2480596  
  6490.000000   2479991   2479324   2478553   2477672   2476708  
  6480.000000   2475704   2474695   2473694   2472698   2471695  
  6470.000000   2470678   2469659   2468661   2467713   2466834  
  6460.000000   2466022   2465258   2464507   2463742   2462943  
  6450.000000   2462105   2461236   2460343   2459437   2458526  
  6440.000000   2457622   2456743   2455909   2455138   2454437  
  6430.000000   2453791   2453177   2452561   2451924   2451265  
  6420.000000   2450606   2449981   2449427   2448957   2448567  
  6410.000000   2448227   2447907   2447577   2447231   2446874  
  6400.000000   2446527   2446205   2445917   2445662   2445434  
  6390.000000   2445231   2445056   2444916   2444819   2444762  
  6380.000000   2444735   2444713   2444670   2444580   2444423  
  6370.000000   2444190   2443876   2443485   2443021   2442501  
  6360.000000   2441944   2441384   2440851   2440372   2439954  
  6350.000000   2439589   2439244   2438886   2438478   2438002  
  6340.000000   2437452   2436846   2436203   2435550   2434907  
  6330.000000   2434296   2433722   2433190   2432684   2432181  
  6320.000000   2431634   2430996   2430221   2429285   2428193  
  6310.000000   2426980   2425701   2424419   2423176   2421995  
  6300.000000   2420875   2419807   2418777   2417793   2416861  
  6290.000000   2415998   2415200   2414451   2413707   2412921  
  6280.000000   2412040   2411035   2409890   2408611   2407210  
  6270.000000   2405707   2404117   2402462   2400759   2399038  
  6260.000000   2397324   2395638   2393982   2392347   2390705  
  6250.000000   2389034   2387316   2385557   2383773   2381992  
  6240.000000   2380228   2378488   2376760   2375029   2373282  
  6230.000000   2371525   2369778   2368069   2366421   2364841  
  6220.000000   2363314   2361806   2360275   2358683   2357006  
  6210.000000   2355240   2353402   2351520   2349635   2347789  
  6200.000000   2346020   2344356   2342808   2341365   2339997  
  6190.000000   2338661   2337311   2335914   2334457   2332948  
  6180.000000   2331412   2329873   2328356   2326865   2325402  
  6170.000000   2323963   2322549   2321170   2319842   2318576  
  6160.000000   2317374   2316222   2315097   2313973   2312833  
  6150.000000   2311671   2310495   2309317   2308149   2306994  
  6140.000000   2305852   2304716   2303590   2302475   2301380  
  6130.000000   2300305   2299242   2298172   2297073   2295932  
  6120.000000   2294754   2293563   2292400   2291306   2290311  
  6110.000000   2289421   2288621   2287879   2287165   2286451  
  6100.000000   2285726   2284985   2284238   2283486   2282742  
  6090.000000   2282011   2281311   2280659   2280081   2279587  
  6080.000000   2279186   2278859   2278588   2278344   2278119  
  6070.000000   2277909   2277737   2277623   2277589   2277637  
  6060.000000   2277759   2277926   2278115   2278299   2278475  
  6050.000000   2278644   2278831   2279055   2279352   2279743  
  6040.000000   2280259   2280914   2281721   2282671   2283749  
  6030.000000   2284920   2286157   2287422   2288704   2289992  
  6020.000000   2291296   2292617   2293962   2295321   2296687  
  6010.000000   2298043   2299391   2300729   2302078   2303448  
  6000.000000   2304856   2306298   2307776   2309276   2310801  
  5990.000000   2312346   2313924   2315536   2317192   2318885  
  5980.000000   2320623   2322406   2324264   2326224   2328333  
  5970.000000   2330620   2333104   2335766   2338573   2341465  
  5960.000000   2344396   2347320   2350224   2353100   2355966  
  5950.000000   2358826   2361698   2364582   2367490   2370433  
  5940.000000   2373430   2376500   2379662   2382920   2386268  
  5930.000000   2389686   2393143   2396608   2400046   2403428  
  5920.000000   2406725   2409912   2412967   2415880   2418650  
  5910.000000   2421289   2423819   2426264   2428647   2430988  
  5900.000000   2433301   2435608   2437925   2440281   2442694  
  5890.000000   2445184   2447743   2450362   2453006   2455648  
  5880.000000   2458254   2460805   2463283   2465671   2467950  
  5870.000000   2470093   2472079   2473898   2475566   2477122  
  5860.000000   2478625   2480140   2481723   2483410   2485210  
  5850.000000   2487118   2489119   2491194   2493324   2495489  
  5840.000000   2497665   2499822   2501933   2503984   2505979  
  5830.000000   2507940   2509907   2511912   2513976   2516091  
  5820.000000   2518233   2520366   2522466   2524527   2526560  
  5810.000000   2528594   2530645   2532728   2534826   2536929  
  5800.000000   2539009   2541078   2543132   2545204   2547287  
  5790.000000   2549381   2551421   2553346   2555047   2556439  
  5780.000000   2557427   2557957   2557985   2557512   2556555  
  5770.000000   2555183   2553480   2551572   2549574   2547609  
  5760.000000   2545748   2544039   2542475   2541039   2539692  
  5750.000000   2538421   2537212   2536078   2535024   2534055  
  5740.000000   2533163   2532333   2531554   2530816   2530124  
  5730.000000   2529475   2528873   2528299   2527739   2527166  
  5720.000000   2526577   2525976   2525396   2524868   2524428  
  5710.000000   2524087   2523842   2523664   2523525   2523398  
  5700.000000   2523271   2523148   2523037   2522954   2522903  
  5690.000000   2522889   2522906   2522954   2523021   2523102  
  5680.000000   2523170   2523201   2523152   2522991   2522682  
  5670.000000   2522208   2521554   2520720   2519695   2518479  
  5660.000000   2517063   2515460   2513693   2511819   2509900  
  5650.000000   2508010   2506198   2504498   2502906   2501405  
  5640.000000   2499958   2498541   2497133   2495732   2494342  
  5630.000000   2492970   2491629   2490329   2489086   2487912  
  5620.000000   2486819   2485803   2484856   2483948   2483051  
  5610.000000   2482137   2481199   2480243   2479293   2478375  
  5600.000000   2477509   2476697   2475927   2475176   2474423  
  5590.000000   2473654   2472869   2472072   2471269   2470464  
  5580.000000   2469656   2468842   2468024   2467207   2466398  
  5570.000000   2465598   2464795   2463969   2463089   2462133  
  5560.000000   2461088   2459964   2458783   2457578   2456376  
  5550.000000   2455195   2454042   2452921   2451837   2450801  
  5540.000000   2449822   2448907   2448042   2447202   2446347  
  5530.000000   2445442   2444466   2443422   2442334   2441241  
  5520.000000   2440175   2439159   2438196   2437278   2436388  
  5510.000000   2435511   2434634   2433744   2432825   2431860  
  5500.000000   2430828   2429723   2428554   2427348   2426140  
  5490.000000   2424967   2423837   2422744   2421649   2420517  
  5480.000000   2419311   2418022   2416656   2415237   2413785  
  5470.000000   2412316   2410825   2409302   2407734   2406120  
  5460.000000   2404461   2402768   2401047   2399300   2397520  
  5450.000000   2395706   2393863   2392013   2390182   2388398  
  5440.000000   2386676   2385014   2383396   2381799   2380209  
  5430.000000   2378617   2377032   2375456   2373895   2372343  
  5420.000000   2370808   2369297   2367847   2366499   2365307  
  5410.000000   2364292   2363455   2362749   2362131   2361547  
  5400.000000   2360994   2360483   2360075   2359815   2359749  
  5390.000000   2359867   2360147   2360529   2360981   2361472  
  5380.000000   2362023   2362647   2363384   2364232   2365199  
  5370.000000   2366251   2367388   2368588   2369886   2371283  
  5360.000000   2372835   2374541   2376449   2378551   2380901  
  5350.000000   2383504   2386434   2389695   2393345   2397351  
  5340.000000   2401738   2406448   2411513   2416894   2422651  
  5330.000000   2428748   2435235   2442050   2449225   2456696  
  5320.000000   2464531   2472722   2481399   2490589   2500431  
  5310.000000   2510910   2522103   2533929   2546420   2559485  
  5300.000000   2573184   2587476   2602478   2618196   2634760  
  5290.000000   2652156   2670449   2689534   2709372   2729787  
  5280.000000   2750719   2772051   2793832   2816076   2838926  
  5270.000000   2862427   2886629   2911425   2936663   2962108  
  5260.000000   2987573   3012933   3038175   3063360   3088558  
  5250.000000   3113810   3139034   3164096   3188749   3212832  
  5240.000000   3236171   3258787   3280690   3302047   3322913  
  5230.000000   3343411   3363473   3383076   3402034   3420281  
  5220.000000   3437668   3454247   3470008   3485129   3499672  
  5210.000000   3513808   3527514   3540827   3553577   3565708  
  5200.000000   3577041   3587594   3597312   3606330   3614664  
  5190.000000   3622450   3629650   3636321   3642366   3647819  
  5180.000000   3652615   3656841   3660482   3663643   3666289  
  5170.000000   3668482   3670152   3671338   3671986   3672166  
  5160.000000   3671856   3671135   3669976   3668432   3666459  
  5150.000000   3664104   3661350   3658272   3654879   3651246  
  5140.000000   3647364   3643271   3638932   3634369   3629559  
  5130.000000   3624549   3619345   3614004   3608536   3602980  
  5120.000000   3597330   3591610   3585816   3579977   3574099  
  5110.000000   3568210   3562316   3556433   3550558   3544702  
  5100.000000   3538860   3533044   3527246   3521467   3515691  
  5090.000000   3509910   3504112   3498299   3492478   3486666  
  5080.000000   3480876   3475117   3469384   3463670   3457958  
  5070.000000   3452244   3446526   3440813   3435110   3429423  
  5060.000000   3423739   3418042   3412305   3406510   3400642  
  5050.000000   3394703   3388698   3382641   3376541   3370407  
  5040.000000   3364242   3358054   3351851   3345648   3339459  
  5030.000000   3333296   3327166   3321068   3314999   3308955  
  5020.000000   3302942   3296970   3291066   3285249   3279554  
  5010.000000   3273991   3268585   3263332   3258245   3253308  
  5000.000000   3248535   3243905   3239431   3235090   3230903  
  4990.000000   3226851   3222972   3219261   3215772   3212507  
  4980.000000   3209520   3206804   3204400   3202288   3200500  
  4970.000000   3199010   3197853   3197002   3196491   3196286  
  4960.000000   3196420   3196854   3197625   3198702   3200130  
  4950.000000   3201883   3204003   3206452   3209256   3212359  
  4940.000000   3215777   3219456   3223421   3227638   3232153  
  4930.000000   3236946   3242070   3247511   3253314   3259457  
  4920.000000   3265970   3272814   3279997   3287468   3295224  
  4910.000000   3303217   3311455   3319912   3328606   3337523  
  4900.000000   3346669   3356011   3365526   3375164   3384881  
  4890.000000   3394634   3404378   3414080   3423691   3433178  
  4880.000000   3442481   3451568   3460383   3468914   3477118  
  4870.000000   3485004   3492528   3499695   3506449   3512788  
  4860.000000   3518659   3524078   3529020   3533537   3537634  
  4850.000000   3541383   3544799   3547951   3550849   3553551  
  4840.000000   3556057   3558416   3560626   3562727   3564717  
  4830.000000   3566631   3568468   3570256   3571990   3573685  
  4820.000000   3575328   3576921   3578450   3579919   3581326  
  4810.000000   3582686   3584015   3585337   3586677   3588057  
  4800.000000   3589497   3591009   3592600   3594267   3595998  
  4790.000000   3597773   3599564   3601346   3603095   3604804  
  4780.000000   3606474   3608123   3609768   3611427   3613104  
  4770.000000   3614793   3616470   3618112   3619688   3621181  
  4760.000000   3622570   3623858   3625034   3626106   3627065  
  4750.000000   3627919   3628659   3629295   3629821   3630250  
  4740.000000   3630578   3630817   3630964   3631035   3631030  
  4730.000000   3630967   3630850   3630692   3630486   3630229  
  4720.000000   3629904   3629499   3629003   3628416   3627751  
  4710.000000   3627031   3626287   3625554   3624867   3624253  
  4700.000000   3623740   3623346   3623087   3622970   3623007  
  4690.000000   3623198   3623548   3624050   3624700   3625480  
  4680.000000   3626369   3627324   3628310   3629270   3630170  
  4670.000000   3630971   3631671   3632274   3632820   3633342  
  4660.000000   3633894   3634507   3635219   3636048   3637018  
  4650.000000   3638140   3639438   3640921   3642602   3644472  
  4640.000000   3646510   3648678   3650932   3653226   3655522  
  4630.000000   3657797   3660038   3662242   3664408   3666529  
  4620.000000   3668584   3670547   3672374   3674030   3675471  
  4610.000000   3676679   3677640   3678376   3678910   3679302  
  4600.000000   3679593   3679846   3680084   3680341   3680604  
  4590.000000   3680868   3681090   3681253   3681310   3681248  
  4580.000000   3681034   3680665   3680122   3679412   3678527  
  4570.000000   3677486   3676292   3674972   3673539   3672021  
  4560.000000   3670428   3668783   3667090   3665365   3663607  
  4550.000000   3661827   3660017   3658178   3656302   3654385  
  4540.000000   3652426   3650431   3648416   3646399   3644406  
  4530.000000   3642449   3640546   3638688   3636880   3635103  
  4520.000000   3633367   3631659   3630008   3628411   3626917  
  4510.000000   3625525   3624299   3623248   3622453   3621935  
  4500.000000   3621792   3622043   3622784   3624010   3625801  
  4490.000000   3628137   3631092   3634644   3638872   3643748  
  4480.000000   3649346   3655618   3662614   3670268   3678615  
  4470.000000   3687583   3697199   3707389   3718168   3729449  
  4460.000000   3741230   3753419   3766002   3778893   3792076  
  4450.000000   3805472   3819057   3832760   3846553   3860384  
  4440.000000   3874235   3888087   3901931   3915770   3929583  
  4430.000000   3943366   3957065   3970664   3984079   3997288  
  4420.000000   4010194   4022778   4034936   4046654   4057821  
  4410.000000   4068421   4078342   4087569   4096000   4103636  
  4400.000000   4110408   4116355   4121460   4125818   4129470  
  4390.000000   4132562   4135180   4137483   4139557   4141530  
  4380.000000   4143449   4145385   4147346   4149373   4151477  
  4370.000000   4153705   4156096   4158707   4161582   4164757  
  4360.000000   4168249   4172059   4176174   4180575   4185216  
  4350.000000   4190075   4195078   4200207   4205389   4210637  
  4340.000000   4215910   4221236   4226543   4231745   4236592  
  4330.000000   4240759   4243794   4245263   4244794   4242238  
  4320.000000   4237684   4231519   4224314   4216767   4209506  
  4310.000000   4203050   4197666   4193452   4190299   4188039  
  4300.000000   4186450   4185362   4184640   4184198   4183994  
  4290.000000   4183980   4184156   4184489   4185004   4185695  
  4280.000000   4186591   4187691   4188992   4190475   4192106  
  4270.000000   4193865   4195705   4197591   4199424   4201070  
  4260.000000   4202307   4202885   4202531   4201047   4198331  
  4250.000000   4194452   4189606   4184130   4178378   4172714  
  4240.000000   4167390   4162580   4158306   4154537   4151159  
  4230.000000   4148070   4145156   4142337   4139551   4136747  
  4220.000000   4133903   4130993   4128047   4125082   4122192  
  4210.000000   4119441   4116949   4114778   4113008   4111648  
  4200.000000   4110709   4110141   4109912   4109947   4110209  
  4190.000000   4110628   4111187   4111829   4112563   4113346  
  4180.000000   4114208   4115123   4116141   4117259   4118551  
  4170.000000   4120042   4121829   4123953   4126513   4129526  
  4160.000000   4133053   4137064   4141573   4146513   4151891  
  4150.000000   4157642   4163795   4170305   4177214   4184482  
  4140.000000   4192149   4200170   4208592   4217376   4226584  
  4130.000000   4236192   4246260   4256758   4267724   4279111  
  4120.000000   4290942   4303172   4315833   4328904   4342435  
  4110.000000   4356414   4370876   4385779   4401107   4416769  
  4100.000000   4432709   4448826   4465077   4481407   4497821  
  4090.000000   4514323   4530942   4547698   4564601   4581659  
  4080.000000   4598851   4616173   4633585   4651071   4668556  
  4070.000000   4685988   4703241   4720243   4736862   4753066  
  4060.000000   4768776   4784022   4798758   4813028   4826762  
  4050.000000   4839995   4852650   4864790   4876367   4887472  
  4040.000000   4898043   4908134   4917616   4926494   4934623  
  4030.000000   4942032   4948630   4954497   4959581   4963948  
  4020.000000   4967502   4970290   4972265   4973495   4973931  
  4010.000000   4973716   4972940   4971644   4969629   4966968  
  4000.000000   4963978  
##END= 
