##TITLE= Sample 002 By ssteindl date Donnerstag, November 22 2018
##JCAMP-DX= 4.24
##DATA TYPE= INFRARED SPECTRUM
##ORIGIN= Exported PE Spectrum Data File
##OWNER= Sandra Steindl
##DATE= 18/11/22
##TIME= 13:08:59.00
##SPECTROMETER/DATA SYSTEM= PERKIN-ELMER Frontier FT-IR/NIR IR
##INSTRUMENT PARAMETERS=
  APODIZATION=stark
  DETECTOR=INGAAS
##RESOLUTION= 16.000000
##DELTAX= -2.000000
##XUNITS= 1/CM
##YUNITS= A
##XFACTOR= 1.00
##YFACTOR= 0.00000011920928955078
##FIRSTX= 10000.00
##LASTX= 4000.00
##NPOINTS= 3001
##FIRSTY= 0.239033
##MAXY= 0.656277
##MINY= 0.194459
##XYDATA= (X++(Y..Y))
 10000.000000   2005152   2006019   2007927   2011722   2016337  
  9990.000000   2019668   2020349   2018188   2013606   2007425  
  9980.000000   2000926   1995409   1991593   1989544   1988885  
  9970.000000   1989117   1989705   1990357   1990926   1991429  
  9960.000000   1991859   1992222   1992494   1992657   1992750  
  9950.000000   1992722   1992495   1991759   1990147   1987237  
  9940.000000   1982832   1977084   1970585   1964306   1959327  
  9930.000000   1956622   1956696   1959559   1964617   1970936  
  9920.000000   1977389   1982971   1986974   1989073   1989341  
  9910.000000   1988069   1985667   1982443   1978613   1974220  
  9900.000000   1969332   1964070   1958776   1953965   1950192  
  9890.000000   1947922   1947223   1947834   1949103   1950369  
  9880.000000   1951159   1951445   1951620   1952264   1953848  
  9870.000000   1956371   1959317   1961714   1962559   1961150  
  9860.000000   1957439   1952045   1946058   1940685   1936835  
  9850.000000   1934951   1934910   1936274   1938408   1940737  
  9840.000000   1942721   1943920   1943948   1942528   1939650  
  9830.000000   1935562   1930888   1926326   1922528   1919723  
  9820.000000   1917665   1915724   1913166   1909656   1905459  
  9810.000000   1901607   1899486   1900413   1904959   1912674  
  9800.000000   1922052   1930943   1937213   1939302   1936753  
  9790.000000   1930150   1921005   1911120   1902177   1895258  
  9780.000000   1890723   1888284   1887216   1886737   1886225  
  9770.000000   1885508   1884772   1884567   1885406   1887618  
  9760.000000   1891064   1895126   1898905   1901390   1901948  
  9750.000000   1900349   1897000   1892602   1888007   1883814  
  9740.000000   1880285   1877324   1874712   1872355   1870437  
  9730.000000   1869432   1869838   1871992   1875776   1880732  
  9720.000000   1886108   1891233   1895621   1899116   1901776  
  9710.000000   1903716   1905004   1905532   1905164   1903725  
  9700.000000   1901197   1897625   1893132   1887785   1881589  
  9690.000000   1874620   1867106   1859703   1853301   1849035  
  9680.000000   1847712   1849678   1854457   1860961   1867754  
  9670.000000   1873475   1877237   1878617   1877686   1874582  
  9660.000000   1869511   1862523   1853858   1843987   1833875  
  9650.000000   1824809   1818167   1815019   1815725   1819876  
  9640.000000   1826297   1833580   1840386   1845946   1850044  
  9630.000000   1852948   1855108   1856874   1858451   1859788  
  9620.000000   1860800   1861277   1861052   1859847   1857396  
  9610.000000   1853447   1847957   1841249   1834015   1827310  
  9600.000000   1822162   1819385   1819179   1821217   1824700  
  9590.000000   1828797   1832853   1836605   1840022   1843107  
  9580.000000   1845681   1847270   1847345   1845450   1841613  
  9570.000000   1836272   1830312   1824624   1819857   1816176  
  9560.000000   1813291   1810782   1808348   1806158   1804731  
  9550.000000   1804796   1806840   1810868   1816283   1822051  
  9540.000000   1827056   1830398   1831671   1830928   1828605  
  9530.000000   1825278   1821530   1817879   1814767   1812597  
  9520.000000   1811659   1812056   1813552   1815575   1817273  
  9510.000000   1817792   1816510   1813292   1808528   1803015  
  9500.000000   1797711   1793418   1790598   1789293   1789215  
  9490.000000   1789914   1790942   1791975   1792838   1793490  
  9480.000000   1793958   1794293   1794532   1794683   1794715  
  9470.000000   1794530   1794017   1793060   1791654   1789927  
  9460.000000   1788144   1786623   1785588   1785079   1784902  
  9450.000000   1784701   1784118   1782936   1781182   1779104  
  9440.000000   1777032   1775238   1773808   1772669   1771686  
  9430.000000   1770804   1770129   1769888   1770299   1771395  
  9420.000000   1772910   1774313   1774973   1774443   1772659  
  9410.000000   1770016   1767199   1764929   1763660   1763445  
  9400.000000   1763939   1764587   1764839   1764337   1762975  
  9390.000000   1760826   1758059   1754790   1751145   1747224  
  9380.000000   1743258   1739525   1736358   1733954   1732352  
  9370.000000   1731417   1730952   1730898   1731376   1732756  
  9360.000000   1735420   1739624   1745233   1751697   1758145  
  9350.000000   1763644   1767509   1769424   1769510   1768080  
  9340.000000   1765533   1762118   1757990   1753225   1747985  
  9330.000000   1742595   1737505   1733235   1730119   1728328  
  9320.000000   1727738   1728184   1729444   1731444   1734117  
  9310.000000   1737354   1740856   1744110   1746528   1747573  
  9300.000000   1747010   1744932   1741793   1738156   1734546  
  9290.000000   1731228   1728240   1725467   1722817   1720335  
  9280.000000   1718167   1716517   1715440   1714866   1714529  
  9270.000000   1714191   1713711   1713219   1713031   1713492  
  9260.000000   1714759   1716614   1718539   1719814   1719845  
  9250.000000   1718280   1715185   1710911   1706035   1701109  
  9240.000000   1696595   1692804   1689945   1688198   1687675  
  9230.000000   1688445   1690392   1693278   1696696   1700258  
  9220.000000   1703643   1706718   1709465   1711869   1713807  
  9210.000000   1714954   1714938   1713406   1710316   1705926  
  9200.000000   1700836   1695729   1691181   1687471   1684542  
  9190.000000   1682152   1680027   1678151   1676764   1676334  
  9180.000000   1677263   1679732   1683540   1688138   1692787  
  9170.000000   1696745   1699527   1700924   1701052   1700158  
  9160.000000   1698576   1696624   1694590   1692754   1691325  
  9150.000000   1690493   1690315   1690753   1691596   1692570  
  9140.000000   1693369   1693758   1693568   1692667   1690946  
  9130.000000   1688298   1684717   1680303   1675375   1670450  
  9120.000000   1666214   1663317   1662175   1662834   1664951  
  9110.000000   1667920   1671036   1673741   1675728   1677004  
  9100.000000   1677776   1678333   1678934   1679711   1680693  
  9090.000000   1681777   1682821   1683601   1683893   1683424  
  9080.000000   1681987   1679495   1676082   1672109   1668077  
  9070.000000   1664555   1661991   1660654   1660523   1661441  
  9060.000000   1663178   1665573   1668493   1671829   1675388  
  9050.000000   1678816   1681600   1683154   1683061   1681183  
  9040.000000   1677806   1673522   1669119   1665309   1662548  
  9030.000000   1660961   1660363   1660431   1660804   1661244  
  9020.000000   1661630   1661969   1662286   1662592   1662823  
  9010.000000   1662896   1662745   1662357   1661799   1661175  
  9000.000000   1660622   1660233   1660049   1660022   1660027  
  8990.000000   1659886   1659395   1658382   1656746   1654523  
  8980.000000   1651887   1649141   1646631   1644685   1643514  
  8970.000000   1643157   1643462   1644143   1644853   1645274  
  8960.000000   1645170   1644429   1643090   1641297   1639300  
  8950.000000   1637369   1635793   1634760   1634333   1634383  
  8940.000000   1634647   1634793   1634551   1633831   1632782  
  8930.000000   1631770   1631238   1631544   1632813   1634866  
  8920.000000   1637291   1639566   1641269   1642177   1642325  
  8910.000000   1641929   1641278   1640608   1640052   1639655  
  8900.000000   1639454   1639510   1639915   1640741   1641949  
  8890.000000   1643355   1644622   1645389   1645398   1644638  
  8880.000000   1643372   1642060   1641194   1641104   1641844  
  8870.000000   1643162   1644625   1645766   1646269   1646045  
  8860.000000   1645248   1644164   1643103   1642280   1641780  
  8850.000000   1641572   1641582   1641749   1642073   1642597  
  8840.000000   1643386   1644474   1645847   1647429   1649095  
  8830.000000   1650700   1652119   1653265   1654124   1654747  
  8820.000000   1655256   1655811   1656569   1657636   1659023  
  8810.000000   1660635   1662287   1663756   1664831   1665391  
  8800.000000   1665414   1664986   1664254   1663390   1662558  
  8790.000000   1661881   1661449   1661302   1661440   1661813  
  8780.000000   1662306   1662777   1663069   1663094   1662860  
  8770.000000   1662514   1662314   1662539   1663425   1665021  
  8760.000000   1667192   1669581   1671743   1673237   1673786  
  8750.000000   1673353   1672184   1670756   1669667   1669478  
  8740.000000   1670562   1673001   1676558   1680731   1684873  
  8730.000000   1688345   1690698   1691778   1691763   1691079  
  8720.000000   1690255   1689759   1689874   1690650   1691942  
  8710.000000   1693505   1695110   1696626   1698019   1699325  
  8700.000000   1700543   1701614   1702400   1702759   1702624  
  8690.000000   1702065   1701305   1700653   1700404   1700735  
  8680.000000   1701640   1702961   1704461   1705929   1707259  
  8670.000000   1708457   1709598   1710742   1711873   1712872  
  8660.000000   1713578   1713861   1713740   1713387   1713129  
  8650.000000   1713310   1714184   1715807   1718013   1720472  
  8640.000000   1722809   1724730   1726137   1727112   1727888  
  8630.000000   1728702   1729725   1730974   1732339   1733639  
  8620.000000   1734738   1735618   1736407   1737348   1738690  
  8610.000000   1740603   1743085   1745967   1748946   1751688  
  8600.000000   1753926   1755520   1756487   1756956   1757118  
  8590.000000   1757155   1757202   1757345   1757640   1758129  
  8580.000000   1758842   1759804   1760996   1762381   1763864  
  8570.000000   1765364   1766807   1768189   1769539   1770909  
  8560.000000   1772326   1773744   1775049   1776076   1776696  
  8550.000000   1776844   1776581   1776051   1775465   1775011  
  8540.000000   1774810   1774897   1775247   1775824   1776620  
  8530.000000   1777681   1779073   1780856   1783016   1785454  
  8520.000000   1787993   1790427   1792583   1794358   1795748  
  8510.000000   1796807   1797648   1798359   1799009   1799610  
  8500.000000   1800159   1800624   1800986   1801236   1801403  
  8490.000000   1801557   1801800   1802268   1803082   1804344  
  8480.000000   1806081   1808248   1810718   1813323   1815901  
  8470.000000   1818331   1820561   1822581   1824413   1826048  
  8460.000000   1827445   1828539   1829285   1829708   1829909  
  8450.000000   1830077   1830410   1831086   1832157   1833574  
  8440.000000   1835173   1836767   1838167   1839243   1839921  
  8430.000000   1840169   1839987   1839378   1838381   1837079  
  8420.000000   1835640   1834282   1833237   1832688   1832720  
  8410.000000   1833315   1834358   1835718   1837284   1839015  
  8400.000000   1840906   1842946   1845063   1847104   1848867  
  8390.000000   1850161   1850897   1851115   1850999   1850785  
  8380.000000   1850686   1850806   1851114   1851480   1851732  
  8370.000000   1851763   1851555   1851209   1850865   1850674  
  8360.000000   1850713   1851008   1851518   1852193   1852973  
  8350.000000   1853814   1854654   1855412   1855962   1856183  
  8340.000000   1855988   1855383   1854470   1853429   1852452  
  8330.000000   1851679   1851133   1850721   1850267   1849596  
  8320.000000   1848604   1847301   1845801   1844288   1842944  
  8310.000000   1841901   1841201   1840818   1840665   1840658  
  8300.000000   1840720   1840816   1840938   1841097   1841303  
  8290.000000   1841548   1841804   1842003   1842061   1841852  
  8280.000000   1841267   1840222   1838719   1836852   1834815  
  8270.000000   1832862   1831250   1830184   1829750   1829908  
  8260.000000   1830493   1831283   1832044   1832594   1832820  
  8250.000000   1832693   1832244   1831561   1830754   1829947  
  8240.000000   1829256   1828778   1828558   1828583   1828755  
  8230.000000   1828912   1828846   1828369   1827350   1825773  
  8220.000000   1823719   1821368   1818923   1816588   1814492  
  8210.000000   1812704   1811212   1809983   1808964   1808120  
  8200.000000   1807410   1806792   1806177   1805451   1804464  
  8190.000000   1803087   1801253   1799000   1796496   1793984  
  8180.000000   1791738   1789951   1788686   1787827   1787116  
  8170.000000   1786221   1784849   1782852   1780290   1777426  
  8160.000000   1774644   1772328   1770740   1769946   1769804  
  8150.000000   1770013   1770230   1770160   1769662   1768744  
  8140.000000   1767544   1766232   1764950   1763751   1762617  
  8130.000000   1761473   1760261   1758961   1757620   1756331  
  8120.000000   1755194   1754293   1753645   1753234   1752999  
  8110.000000   1752884   1752844   1752841   1752843   1752785  
  8100.000000   1752578   1752095   1751213   1749844   1747981  
  8090.000000   1745722   1743271   1740897   1738877   1737424  
  8080.000000   1736623   1736411   1736581   1736840   1736888  
  8070.000000   1736506   1735610   1734278   1732717   1731197  
  8060.000000   1729969   1729188   1728876   1728922   1729126  
  8050.000000   1729267   1729163   1728715   1727909   1726805  
  8040.000000   1725484   1724034   1722521   1720991   1719484  
  8030.000000   1718036   1716691   1715483   1714419   1713481  
  8020.000000   1712612   1711755   1710865   1709941   1709031  
  8010.000000   1708206   1707538   1707048   1706697   1706378  
  8000.000000   1705958   1705319   1704413   1703273   1702025  
  7990.000000   1700833   1699858   1699199   1698867   1698782  
  7980.000000   1698811   1698799   1698636   1698265   1697710  
  7970.000000   1697036   1696336   1695688   1695139   1694710  
  7960.000000   1694403   1694223   1694189   1694333   1694681  
  7950.000000   1695235   1695944   1696710   1697389   1697835  
  7940.000000   1697934   1697637   1696983   1696071   1695042  
  7930.000000   1694022   1693097   1692288   1691569   1690893  
  7920.000000   1690229   1689588   1689025   1688622   1688449  
  7910.000000   1688534   1688846   1689306   1689813   1690281  
  7900.000000   1690672   1690995   1691306   1691665   1692109  
  7890.000000   1692627   1693164   1693631   1693943   1694039  
  7880.000000   1693902   1693559   1693067   1692495   1691902  
  7870.000000   1691337   1690823   1690377   1689998   1689687  
  7860.000000   1689436   1689237   1689079   1688947   1688829  
  7850.000000   1688708   1688567   1688374   1688100   1687705  
  7840.000000   1687170   1686492   1685711   1684907   1684187  
  7830.000000   1683669   1683439   1683545   1683962   1684618  
  7820.000000   1685393   1686164   1686816   1687266   1687465  
  7810.000000   1687382   1687006   1686319   1685313   1683993  
  7800.000000   1682398   1680613   1678774   1677052   1675616  
  7790.000000   1674607   1674079   1673998   1674225   1674569  
  7780.000000   1674816   1674805   1674461   1673809   1672967  
  7770.000000   1672088   1671320   1670751   1670394   1670192  
  7760.000000   1670051   1669875   1669598   1669196   1668678  
  7750.000000   1668079   1667425   1666744   1666056   1665387  
  7740.000000   1664773   1664250   1663840   1663527   1663252  
  7730.000000   1662914   1662410   1661666   1660676   1659506  
  7720.000000   1658285   1657158   1656242   1655597   1655211  
  7710.000000   1655020   1654941   1654903   1654864   1654810  
  7700.000000   1654743   1654659   1654547   1654383   1654152  
  7690.000000   1653855   1653519   1653182   1652887   1652657  
  7680.000000   1652486   1652349   1652207   1652027   1651790  
  7670.000000   1651488   1651122   1650688   1650180   1649589  
  7660.000000   1648917   1648180   1647417   1646672   1645994  
  7650.000000   1645419   1644967   1644654   1644491   1644500  
  7640.000000   1644699   1645097   1645678   1646386   1647135  
  7630.000000   1647814   1648325   1648597   1648613   1648391  
  7620.000000   1647993   1647483   1646936   1646413   1645973  
  7610.000000   1645664   1645523   1645568   1645782   1646122  
  7600.000000   1646520   1646909   1647249   1647532   1647794  
  7590.000000   1648082   1648440   1648874   1649352   1649809  
  7580.000000   1650188   1650459   1650646   1650813   1651049  
  7570.000000   1651425   1651968   1652650   1653403   1654140  
  7560.000000   1654794   1655331   1655760   1656113   1656444  
  7550.000000   1656797   1657212   1657708   1658296   1658971  
  7540.000000   1659724   1660530   1661368   1662211   1663049  
  7530.000000   1663878   1664713   1665564   1666443   1667332  
  7520.000000   1668215   1669060   1669868   1670657   1671493  
  7510.000000   1672447   1673594   1674972   1676580   1678374  
  7500.000000   1680289   1682257   1684230   1686180   1688097  
  7490.000000   1689971   1691794   1693547   1695221   1696805  
  7480.000000   1698311   1699747   1701124   1702424   1703627  
  7470.000000   1704695   1705627   1706454   1707263   1708176  
  7460.000000   1709319   1710792   1712637   1714833   1717310  
  7450.000000   1719973   1722738   1725535   1728324   1731063  
  7440.000000   1733722   1736256   1738639   1740848   1742905  
  7430.000000   1744848   1746750   1748675   1750675   1752773  
  7420.000000   1754968   1757248   1759592   1761990   1764424  
  7410.000000   1766875   1769316   1771715   1774052   1776327  
  7400.000000   1778569   1780821   1783126   1785504   1787940  
  7390.000000   1790388   1792791   1795109   1797335   1799500  
  7380.000000   1801658   1803857   1806115   1808408   1810688  
  7370.000000   1812896   1815000   1816997   1818922   1820829  
  7360.000000   1822772   1824793   1826920   1829176   1831575  
  7350.000000   1834138   1836868   1839744   1842705   1845659  
  7340.000000   1848508   1851172   1853614   1855835   1857866  
  7330.000000   1859739   1861469   1863048   1864461   1865722  
  7320.000000   1866881   1868047   1869346   1870898   1872748  
  7310.000000   1874863   1877109   1879316   1881317   1883015  
  7300.000000   1884411   1885596   1886711   1887898   1889245  
  7290.000000   1890770   1892421   1894103   1895713   1897173  
  7280.000000   1898446   1899539   1900490   1901364   1902225  
  7270.000000   1903136   1904136   1905236   1906418   1907633  
  7260.000000   1908823   1909928   1910916   1911787   1912584  
  7250.000000   1913371   1914234   1915236   1916423   1917795  
  7240.000000   1919334   1920990   1922729   1924515   1926354  
  7230.000000   1928252   1930251   1932370   1934636   1937031  
  7220.000000   1939530   1942075   1944628   1947158   1949688  
  7210.000000   1952267   1954993   1957945   1961187   1964707  
  7200.000000   1968437   1972253   1976033   1979680   1983175  
  7190.000000   1986560   1989937   1993406   1997048   2000865  
  7180.000000   2004811   2008783   2012692   2016461   2020081  
  7170.000000   2023567   2026982   2030378   2033815   2037321  
  7160.000000   2040938   2044693   2048637   2052812   2057264  
  7150.000000   2062007   2067036   2072300   2077740   2083266  
  7140.000000   2088818   2094325   2099769   2105124   2110415  
  7130.000000   2115653   2120895   2126176   2131567   2137110  
  7120.000000   2142860   2148832   2155042   2161468   2168097  
  7110.000000   2174888   2181814   2188821   2195877   2202926  
  7100.000000   2209952   2216930   2223886   2230839   2237840  
  7090.000000   2244918   2252102   2259398   2266823   2274385  
  7080.000000   2282113   2290023   2298123   2306372   2314691  
  7070.000000   2322955   2331042   2338856   2346375   2353647  
  7060.000000   2360787   2367925   2375180   2382613   2390229  
  7050.000000   2397984   2405810   2413642   2421432   2429154  
  7040.000000   2436785   2444314   2451718   2458990   2466131  
  7030.000000   2473170   2480142   2487092   2494042   2500993  
  7020.000000   2507916   2514779   2521545   2528203   2534747  
  7010.000000   2541187   2547515   2553726   2559795   2565722  
  7000.000000   2571518   2577241   2582949   2588713   2594550  
  6990.000000   2600451   2606335   2612124   2617727   2623110  
  6980.000000   2628274   2633275   2638171   2643025   2647847  
  6970.000000   2652626   2657301   2661816   2666106   2670154  
  6960.000000   2673958   2677579   2681088   2684602   2688208  
  6950.000000   2691984   2695926   2699981   2704012   2707867  
  6940.000000   2711385   2714481   2717136   2719433   2721487  
  6930.000000   2723441   2725388   2727388   2729430   2731496  
  6920.000000   2733560   2735625   2737699   2739791   2741871  
  6910.000000   2743886   2745746   2747386   2748775   2749966  
  6900.000000   2751069   2752236   2753600   2755242   2757159  
  6890.000000   2759274   2761457   2763573   2765502   2767180  
  6880.000000   2768588   2769761   2770758   2771663   2772558  
  6870.000000   2773515   2774568   2775715   2776911   2778088  
  6860.000000   2779175   2780134   2780966   2781726   2782487  
  6850.000000   2783326   2784279   2785341   2786464   2787589  
  6840.000000   2788667   2789682   2790646   2791591   2792537  
  6830.000000   2793492   2794433   2795338   2796189   2796990  
  6820.000000   2797756   2798504   2799227   2799896   2800457  
  6810.000000   2800869   2801110   2801215   2801249   2801302  
  6800.000000   2801438   2801686   2802013   2802352   2802618  
  6790.000000   2802745   2802703   2802505   2802190   2801816  
  6780.000000   2801438   2801109   2800868   2800751   2800778  
  6770.000000   2800953   2801257   2801643   2802048   2802406  
  6760.000000   2802661   2802780   2802755   2802600   2802344  
  6750.000000   2802021   2801675   2801352   2801101   2800966  
  6740.000000   2800966   2801091   2801288   2801481   2801591  
  6730.000000   2801562   2801383   2801092   2800751   2800425  
  6720.000000   2800146   2799912   2799688   2799440   2799157  
  6710.000000   2798875   2798650   2798550   2798605   2798800  
  6700.000000   2799059   2799281   2799360   2799230   2798868  
  6690.000000   2798302   2797579   2796759   2795888   2795008  
  6680.000000   2794146   2793336   2792596   2791941   2791347  
  6670.000000   2790770   2790139   2789389   2788477   2787410  
  6660.000000   2786228   2785005   2783806   2782674   2781610  
  6650.000000   2780588   2779566   2778518   2777429   2776310  
  6640.000000   2775169   2774010   2772808   2771533   2770146  
  6630.000000   2768638   2767022   2765350   2763683   2762084  
  6620.000000   2760585   2759192   2757866   2756556   2755198  
  6610.000000   2753745   2752170   2750475   2748689   2746857  
  6600.000000   2745026   2743240   2741519   2739864   2738256  
  6590.000000   2736673   2735095   2733525   2731981   2730498  
  6580.000000   2729102   2727805   2726587   2725407   2724210  
  6570.000000   2722947   2721591   2720135   2718595   2716994  
  6560.000000   2715353   2713685   2712004   2710329   2708688  
  6550.000000   2707118   2705648   2704295   2703044   2701861  
  6540.000000   2700699   2699521   2698311   2697080   2695855  
  6530.000000   2694659   2693500   2692353   2691181   2689941  
  6520.000000   2688608   2687184   2685703   2684212   2682760  
  6510.000000   2681382   2680094   2678893   2677764   2676691  
  6500.000000   2675652   2674629   2673606   2672569   2671517  
  6490.000000   2670463   2669431   2668450   2667540   2666694  
  6480.000000   2665882   2665050   2664143   2663127   2662000  
  6470.000000   2660798   2659578   2658402   2657312   2656322  
  6460.000000   2655424   2654598   2653819   2653069   2652329  
  6450.000000   2651577   2650783   2649913   2648946   2647881  
  6440.000000   2646755   2645626   2644565   2643621   2642812  
  6430.000000   2642110   2641466   2640822   2640147   2639437  
  6420.000000   2638722   2638040   2637419   2636864   2636361  
  6410.000000   2635886   2635428   2634990   2634595   2634265  
  6400.000000   2634014   2633826   2633675   2633523   2633349  
  6390.000000   2633150   2632948   2632767   2632629   2632531  
  6380.000000   2632456   2632377   2632275   2632145   2632002  
  6370.000000   2631869   2631762   2631683   2631618   2631545  
  6360.000000   2631445   2631315   2631159   2630988   2630805  
  6350.000000   2630599   2630343   2630013   2629591   2629079  
  6340.000000   2628495   2627869   2627223   2626575   2625924  
  6330.000000   2625271   2624611   2623954   2623304   2622670  
  6320.000000   2622038   2621390   2620688   2619908   2619033  
  6310.000000   2618079   2617071   2616045   2615020   2613999  
  6300.000000   2612959   2611872   2610711   2609474   2608169  
  6290.000000   2606828   2605469   2604114   2602759   2601406  
  6280.000000   2600041   2598668   2597282   2595883   2594451  
  6270.000000   2592961   2591376   2589670   2587831   2585883  
  6260.000000   2583868   2581848   2579874   2577980   2576168  
  6250.000000   2574426   2572722   2571036   2569351   2567664  
  6240.000000   2565973   2564274   2562555   2560805   2559007  
  6230.000000   2557157   2555258   2553324   2551372   2549423  
  6220.000000   2547492   2545594   2543739   2541934   2540179  
  6210.000000   2538466   2536778   2535093   2533391   2531663  
  6200.000000   2529914   2528164   2526442   2524772   2523166  
  6190.000000   2521623   2520130   2518668   2517221   2515780  
  6180.000000   2514341   2512897   2511439   2509951   2508420  
  6170.000000   2506835   2505203   2503541   2501878   2500246  
  6160.000000   2498668   2497161   2495734   2494390   2493128  
  6150.000000   2491945   2490826   2489745   2488663   2487532  
  6140.000000   2486317   2485000   2483597   2482143   2480692  
  6130.000000   2479286   2477951   2476683   2475461   2474254  
  6120.000000   2473044   2471827   2470619   2469444   2468325  
  6110.000000   2467273   2466290   2465368   2464502   2463686  
  6100.000000   2462922   2462207   2461540   2460906   2460298  
  6090.000000   2459701   2459124   2458573   2458070   2457623  
  6080.000000   2457244   2456918   2456640   2456393   2456185  
  6070.000000   2456024   2455941   2455951   2456071   2456289  
  6060.000000   2456592   2456950   2457353   2457786   2458266  
  6050.000000   2458798   2459407   2460090   2460857   2461698  
  6040.000000   2462622   2463628   2464732   2465939   2467257  
  6030.000000   2468675   2470182   2471759   2473399   2475094  
  6020.000000   2476849   2478656   2480512   2482390   2484267  
  6010.000000   2486110   2487911   2489666   2491400   2493137  
  6000.000000   2494913   2496741   2498638   2500596   2502620  
  5990.000000   2504701   2506854   2509081   2511399   2513812  
  5980.000000   2516332   2518955   2521691   2524535   2527497  
  5970.000000   2530562   2533727   2536958   2540239   2543537  
  5960.000000   2546853   2550181   2553551   2556980   2560499  
  5950.000000   2564113   2567826   2571622   2575489   2579415  
  5940.000000   2583397   2587441   2591554   2595745   2600011  
  5930.000000   2604341   2608710   2613085   2617417   2621656  
  5920.000000   2625748   2629649   2633328   2636781   2640025  
  5910.000000   2643101   2646054   2648932   2651761   2654564  
  5900.000000   2657344   2660114   2662884   2665686   2668542  
  5890.000000   2671479   2674492   2677565   2680653   2683710  
  5880.000000   2686690   2689565   2692319   2694952   2697462  
  5870.000000   2699848   2702100   2704214   2706193   2708056  
  5860.000000   2709838   2711584   2713340   2715145   2717026  
  5850.000000   2719001   2721080   2723271   2725570   2727970  
  5840.000000   2730453   2732989   2735550   2738105   2740642  
  5830.000000   2743157   2745659   2748157   2750660   2753163  
  5820.000000   2755662   2758146   2760616   2763078   2765541  
  5810.000000   2768015   2770489   2772956   2775383   2777764  
  5800.000000   2780078   2782354   2784597   2786845   2789084  
  5790.000000   2791307   2793445   2795436   2797174   2798582  
  5780.000000   2799559   2800050   2799993   2799383   2798228  
  5770.000000   2796604   2794603   2792369   2790023   2787692  
  5760.000000   2785440   2783311   2781295   2779390   2777578  
  5750.000000   2775879   2774308   2772894   2771643   2770542  
  5740.000000   2769556   2768638   2767754   2766877   2766007  
  5730.000000   2765142   2764293   2763454   2762625   2761792  
  5720.000000   2760962   2760143   2759356   2758614   2757927  
  5710.000000   2757281   2756661   2756050   2755443   2754855  
  5700.000000   2754307   2753825   2753417   2753080   2752787  
  5690.000000   2752517   2752245   2751973   2751702   2751445  
  5680.000000   2751191   2750917   2750576   2750118   2749489  
  5670.000000   2748661   2747610   2746336   2744836   2743124  
  5660.000000   2741210   2739135   2736948   2734726   2732539  
  5650.000000   2730453   2728491   2726646   2724874   2723128  
  5640.000000   2721370   2719588   2717802   2716043   2714348  
  5630.000000   2712733   2711200   2709731   2708315   2706937  
  5620.000000   2705605   2704325   2703109   2701954   2700857  
  5610.000000   2699802   2698785   2697800   2696854   2695950  
  5600.000000   2695084   2694236   2693382   2692495   2691564  
  5590.000000   2690591   2689598   2688610   2687649   2686718  
  5580.000000   2685809   2684905   2683990   2683060   2682121  
  5570.000000   2681185   2680256   2679331   2678392   2677416  
  5560.000000   2676383   2675279   2674104   2672864   2671570  
  5550.000000   2670234   2668868   2667494   2666138   2664835  
  5540.000000   2663616   2662499   2661477   2660524   2659592  
  5530.000000   2658638   2657630   2656561   2655443   2654303  
  5520.000000   2653166   2652049   2650959   2649898   2648865  
  5510.000000   2647863   2646893   2645950   2645015   2644061  
  5500.000000   2643051   2641960   2640773   2639501   2638161  
  5490.000000   2636780   2635366   2633919   2632424   2630873  
  5480.000000   2629263   2627614   2625950   2624299   2622666  
  5470.000000   2621044   2619404   2617725   2615990   2614204  
  5460.000000   2612383   2610545   2608695   2606824   2604913  
  5450.000000   2602949   2600933   2598887   2596847   2594845  
  5440.000000   2592900   2591006   2589148   2587310   2585498  
  5430.000000   2583726   2582026   2580409   2578871   2577369  
  5420.000000   2575865   2574320   2572745   2571178   2569704  
  5410.000000   2568392   2567294   2566399   2565671   2565039  
  5400.000000   2564467   2563929   2563457   2563080   2562847  
  5390.000000   2562764   2562836   2563028   2563340   2563763  
  5380.000000   2564342   2565097   2566069   2567238   2568588  
  5370.000000   2570051   2571600   2573189   2574843   2576564  
  5360.000000   2578415   2580403   2582588   2584967   2587607  
  5350.000000   2590517   2593788   2597434   2601532   2606054  
  5340.000000   2611031   2616397   2622179   2628322   2634884  
  5330.000000   2641820   2649192   2656938   2665105   2673634  
  5320.000000   2682607   2692016   2702003   2712590   2723922  
  5310.000000   2735981   2748850   2762442   2776800   2791833  
  5300.000000   2807611   2824089   2841391   2859508   2878569  
  5290.000000   2898535   2919463   2941226   2963779   2986935  
  5280.000000   3010644   3034794   3059450   3084641   3110526  
  5270.000000   3137152   3164566   3192643   3221208   3250005  
  5260.000000   3278824   3307539   3336135   3364690   3393276  
  5250.000000   3421939   3450578   3479042   3507051   3534421  
  5240.000000   3560952   3586663   3611553   3635804   3659469  
  5230.000000   3682689   3705397   3727590   3749076   3769801  
  5220.000000   3789600   3808523   3826533   3843803   3860371  
  5210.000000   3876418   3891919   3906934   3921308   3935007  
  5200.000000   3947851   3959865   3970970   3981298   3990842  
  5190.000000   3999743   4007963   4015582   4022519   4028838  
  5180.000000   4034477   4039529   4043955   4047843   4051131  
  5170.000000   4053870   4055986   4057544   4058510   4058985  
  5160.000000   4058962   4058530   4057647   4056353   4054586  
  5150.000000   4052393   4049750   4046748   4043395   4039773  
  5140.000000   4035860   4031686   4027200   4022425   4017341  
  5130.000000   4012008   4006450   4000736   3994882   3988929  
  5120.000000   3982872   3976741   3970542   3964320   3958093  
  5110.000000   3951893   3945713   3939547   3933365   3927156  
  5100.000000   3920910   3914650   3908397   3902186   3896032  
  5090.000000   3889946   3883919   3877948   3872020   3866139  
  5080.000000   3860300   3854503   3848730   3842960   3837160  
  5070.000000   3831305   3825375   3819368   3813285   3807141  
  5060.000000   3800939   3794683   3788363   3781979   3775524  
  5050.000000   3769005   3762427   3755802   3749135   3742431  
  5040.000000   3735686   3728906   3722095   3715267   3708442  
  5030.000000   3701639   3694875   3688163   3681513   3674930  
  5020.000000   3668429   3662018   3655720   3649540   3643497  
  5010.000000   3637583   3631807   3626152   3620628   3615224  
  5000.000000   3609967   3604855   3599925   3595173   3590633  
  4990.000000   3586291   3582177   3578271   3574606   3571165  
  4980.000000   3567986   3565054   3562414   3560050   3558011  
  4970.000000   3556279   3554903   3553855   3553176   3552829  
  4960.000000   3552850   3553200   3553920   3554978   3556423  
  4950.000000   3558225   3560431   3563006   3565990   3569344  
  4940.000000   3573111   3577254   3581819   3586767   3592136  
  4930.000000   3597877   3604019   3610514   3617394   3624624  
  4920.000000   3632244   3640221   3648584   3657288   3666342  
  4910.000000   3675698   3685365   3695311   3705551   3716063  
  4900.000000   3726847   3737867   3749089   3760462   3771935  
  4890.000000   3783459   3794980   3806456   3817819   3829022  
  4880.000000   3839978   3850642   3860925   3870801   3880197  
  4870.000000   3889105   3897455   3905250   3912428   3919014  
  4860.000000   3924977   3930384   3935241   3939640   3943596  
  4850.000000   3947193   3950429   3953369   3956005   3958399  
  4840.000000   3960550   3962520   3964314   3965985   3967535  
  4830.000000   3969008   3970406   3971764   3973085   3974386  
  4820.000000   3975656   3976892   3978078   3979210   3980291  
  4810.000000   3981340   3982385   3983453   3984570   3985746  
  4800.000000   3986987   3988289   3989653   3991083   3992590  
  4790.000000   3994183   3995868   3997640   3999487   4001389  
  4780.000000   4003330   4005299   4007292   4009307   4011341  
  4770.000000   4013384   4015414   4017408   4019335   4021177  
  4760.000000   4022918   4024559   4026097   4027541   4028890  
  4750.000000   4030155   4031333   4032444   4033491   4034497  
  4740.000000   4035462   4036393   4037270   4038078   4038788  
  4730.000000   4039384   4039851   4040191   4040412   4040533  
  4720.000000   4040574   4040553   4040492   4040411   4040334  
  4710.000000   4040283   4040286   4040364   4040542   4040832  
  4700.000000   4041252   4041809   4042517   4043379   4044410  
  4690.000000   4045607   4046978   4048510   4050199   4052016  
  4680.000000   4053940   4055926   4057937   4059915   4061823  
  4670.000000   4063613   4065274   4066799   4068220   4069574  
  4660.000000   4070926   4072335   4073868   4075571   4077485  
  4650.000000   4079628   4082003   4084595   4087378   4090317  
  4640.000000   4093371   4096501   4099668   4102842   4105992  
  4630.000000   4109093   4112117   4115040   4117832   4120474  
  4620.000000   4122939   4125214   4127272   4129100   4130666  
  4610.000000   4131963   4132968   4133705   4134189   4134488  
  4600.000000   4134650   4134756   4134833   4134920   4134985  
  4590.000000   4135009   4134920   4134679   4134227   4133553  
  4580.000000   4132632   4131484   4130110   4128541   4126783  
  4570.000000   4124870   4122814   4120650   4118394   4116078  
  4560.000000   4113709   4111309   4108872   4106409   4103911  
  4550.000000   4101389   4098837   4096263   4093666   4091053  
  4540.000000   4088425   4085792   4083163   4080546   4077956  
  4530.000000   4075389   4072854   4070333   4067834   4065340  
  4520.000000   4062878   4060451   4058112   4055874   4053803  
  4510.000000   4051907   4050257   4048855   4047787   4047062  
  4500.000000   4046780   4046951   4047672   4048932   4050818  
  4490.000000   4053302   4056474   4060311   4064915   4070265  
  4480.000000   4076456   4083442   4091284   4099908   4109349  
  4470.000000   4119520   4130452   4142057   4154358   4167257  
  4460.000000   4180755   4194741   4209192   4224000   4239136  
  4450.000000   4254507   4270089   4285815   4301665   4317596  
  4440.000000   4333587   4349610   4365635   4381639   4397575  
  4430.000000   4413423   4429117   4444640   4459910   4474913  
  4420.000000   4489551   4503813   4517592   4530878   4543560  
  4410.000000   4555629   4566972   4577576   4587330   4596234  
  4400.000000   4604208   4611298   4617489   4622895   4627570  
  4390.000000   4631680   4635318   4638655   4641777   4644824  
  4380.000000   4647843   4650919   4654065   4657323   4660691  
  4370.000000   4664198   4667848   4671667   4675666   4679859  
  4360.000000   4684246   4688829   4693583   4698509   4703564  
  4350.000000   4708755   4714026   4719394   4724798   4730264  
  4340.000000   4735724   4741168   4746460   4751454   4755844  
  4330.000000   4759286   4761335   4761608   4759801   4755845  
  4320.000000   4749905   4742425   4734010   4725371   4717134  
  4310.000000   4709806   4703649   4698748   4694996   4692221  
  4300.000000   4690212   4688800   4687863   4687316   4687122  
  4290.000000   4687225   4687620   4688258   4689153   4690288  
  4280.000000   4691688   4693351   4695271   4697423   4699750  
  4270.000000   4702200   4704681   4707107   4709329   4711177  
  4260.000000   4712407   4712774   4712021   4709985   4706603  
  4250.000000   4701988   4696368   4690115   4683603   4677220  
  4240.000000   4671225   4665805   4660981   4656719   4652887  
  4230.000000   4649361   4646002   4642702   4639383   4635988  
  4220.000000   4632509   4628942   4625352   4621791   4618383  
  4210.000000   4615209   4612388   4609968   4608005   4606477  
  4200.000000   4605371   4604614   4604169   4603960   4603963  
  4190.000000   4604120   4604432   4604856   4605408   4606050  
  4180.000000   4606808   4607649   4608613   4609684   4610929  
  4170.000000   4612364   4614088   4616139   4618624   4621567  
  4160.000000   4625044   4629033   4633562   4638572   4644076  
  4150.000000   4650011   4656400   4663192   4670424   4678050  
  4140.000000   4686117   4694581   4703496   4712821   4722609  
  4130.000000   4732808   4743452   4754476   4765902   4777675  
  4120.000000   4789846   4802404   4815441   4828985   4843134  
  4110.000000   4857898   4873322   4889352   4905953   4923009  
  4100.000000   4940437   4958111   4975958   4993898   5011913  
  4090.000000   5029986   5048136   5066380   5084727   5103186  
  4080.000000   5121733   5140359   5159009   5177659   5196219  
  4070.000000   5214640   5232795   5250624   5267998   5284896  
  4060.000000   5301228   5317028   5332233   5346891   5360928  
  4050.000000   5374393   5387213   5399470   5411115   5422249  
  4040.000000   5432803   5442830   5452197   5460910   5468820  
  4030.000000   5475964   5482249   5487764   5492467   5496446  
  4020.000000   5499628   5502092   5503817   5504889   5505249  
  4010.000000   5505024   5504271   5502993   5500953   5498217  
  4000.000000   5495130  
##END= 
