##TITLE= Sample 004 By ssteindl date Donnerstag, November 22 2018
##JCAMP-DX= 4.24
##DATA TYPE= INFRARED SPECTRUM
##ORIGIN= Exported PE Spectrum Data File
##OWNER= Sandra Steindl
##DATE= 18/11/22
##TIME= 13:11:05.00
##SPECTROMETER/DATA SYSTEM= PERKIN-ELMER Frontier FT-IR/NIR IR
##INSTRUMENT PARAMETERS=
  APODIZATION=stark
  DETECTOR=INGAAS
##RESOLUTION= 16.000000
##DELTAX= -2.000000
##XUNITS= 1/CM
##YUNITS= A
##XFACTOR= 1.00
##YFACTOR= 0.00000011920928955078
##FIRSTX= 10000.00
##LASTX= 4000.00
##NPOINTS= 3001
##FIRSTY= 0.226892
##MAXY= 0.686519
##MINY= 0.189041
##XYDATA= (X++(Y..Y))
 10000.000000   1903310   1904380   1905793   1907483   1908409  
  9990.000000   1907423   1904327   1900084   1896011   1893382  
  9980.000000   1892979   1894931   1898460   1902365   1905457  
  9970.000000   1907008   1906766   1904863   1901586   1897093  
  9960.000000   1891441   1884582   1876686   1868132   1859623  
  9950.000000   1851862   1845419   1840491   1836969   1834651  
  9940.000000   1833418   1833480   1835184   1838914   1844713  
  9930.000000   1852202   1860610   1868988   1876565   1882823  
  9920.000000   1887609   1890847   1892434   1892075   1889412  
  9910.000000   1884297   1877009   1868473   1860023   1853131  
  9900.000000   1848833   1847429   1848327   1850292   1851836  
  9890.000000   1851677   1849026   1843698   1836046   1826835  
  9880.000000   1817127   1808185   1801361   1797875   1798519  
  9870.000000   1803330   1811466   1821271   1830729   1837950  
  9860.000000   1841764   1841907   1839090   1834529   1829595  
  9850.000000   1825266   1822050   1819997   1818989   1818995  
  9840.000000   1820097   1822473   1826078   1830616   1835429  
  9830.000000   1839787   1843053   1844909   1845342   1844518  
  9820.000000   1842624   1839734   1835899   1831270   1826291  
  9810.000000   1821736   1818488   1817252   1818094   1820393  
  9800.000000   1822890   1824248   1823533   1820621   1816264  
  9790.000000   1811696   1808164   1806312   1805994   1806333  
  9780.000000   1806162   1804564   1801268   1796821   1792365  
  9770.000000   1789258   1788574   1790782   1795580   1801984  
  9760.000000   1808584   1813837   1816471   1815716   1811578  
  9750.000000   1804818   1796832   1789308   1783765   1781150  
  9740.000000   1781571   1784312   1788131   1791678   1793946  
  9730.000000   1794494   1793477   1791387   1788800   1786079  
  9720.000000   1783371   1780671   1778054   1775818   1774459  
  9710.000000   1774563   1776507   1780364   1785780   1792179  
  9700.000000   1798829   1805057   1810212   1813679   1814880  
  9690.000000   1813352   1808992   1802191   1793960   1785705  
  9680.000000   1778850   1774360   1772344   1772070   1772211  
  9670.000000   1771488   1769144   1765340   1760970   1757296  
  9660.000000   1755295   1755268   1756721   1758620   1759931  
  9650.000000   1760000   1758884   1757125   1755491   1754464  
  9640.000000   1754059   1753822   1753129   1751566   1749159  
  9630.000000   1746410   1744037   1742689   1742652   1743841  
  9620.000000   1745882   1748325   1750787   1752939   1754499  
  9610.000000   1755090   1754328   1751883   1747703   1742149  
  9600.000000   1736005   1730348   1726225   1724372   1724966  
  9590.000000   1727643   1731623   1735993   1739919   1742783  
  9580.000000   1744228   1744080   1742367   1739259   1735169  
  9570.000000   1730686   1726563   1723510   1722033   1722278  
  9560.000000   1723981   1726624   1729541   1732223   1734337  
  9550.000000   1735839   1736813   1737398   1737668   1737589  
  9540.000000   1737087   1736057   1734471   1732304   1729596  
  9530.000000   1726361   1722685   1718718   1714733   1711092  
  9520.000000   1708138   1706116   1705044   1704796   1705143  
  9510.000000   1705959   1707257   1709234   1712098   1715914  
  9500.000000   1720432   1725050   1728970   1731400   1731868  
  9490.000000   1730318   1727151   1722994   1718495   1714106  
  9480.000000   1710034   1706327   1702975   1700063   1697715  
  9470.000000   1696089   1695202   1694933   1695003   1695129  
  9460.000000   1695122   1694949   1694716   1694508   1694334  
  9450.000000   1694030   1693391   1692268   1690738   1689120  
  9440.000000   1687881   1687439   1687952   1689225   1690776  
  9430.000000   1692051   1692646   1692457   1691637   1690469  
  9420.000000   1689165   1687772   1686195   1684336   1682250  
  9410.000000   1680201   1678581   1677715   1677661   1678132  
  9400.000000   1678557   1678354   1677163   1675081   1672590  
  9390.000000   1670390   1669053   1668806   1669454   1670508  
  9380.000000   1671428   1671803   1671471   1670440   1668783  
  9370.000000   1666514   1663592   1660022   1655996   1651961  
  9360.000000   1648548   1646362   1645754   1646628   1648466  
  9350.000000   1650488   1651972   1652487   1652022   1650889  
  9340.000000   1649536   1648328   1647447   1646920   1646732  
  9330.000000   1646962   1647792   1649418   1651878   1654953  
  9320.000000   1658138   1660787   1662283   1662264   1660722  
  9310.000000   1657961   1654483   1650770   1647228   1644101  
  9300.000000   1641534   1639576   1638187   1637239   1636502  
  9290.000000   1635717   1634684   1633397   1632116   1631348  
  9280.000000   1631644   1633339   1636323   1640010   1643556  
  9270.000000   1646159   1647425   1647488   1646953   1646583  
  9260.000000   1646922   1648033   1649486   1650593   1650776  
  9250.000000   1649852   1648105   1646159   1644612   1643798  
  9240.000000   1643583   1643548   1643227   1642414   1641270  
  9230.000000   1640198   1639594   1639551   1639747   1639547  
  9220.000000   1638323   1635785   1632215   1628406   1625383  
  9210.000000   1623979   1624501   1626671   1629739   1632853  
  9200.000000   1635312   1636822   1637486   1637645   1637653  
  9190.000000   1637698   1637762   1637652   1637114   1635938  
  9180.000000   1634028   1631401   1628162   1624539   1620866  
  9170.000000   1617591   1615142   1613828   1613684   1614391  
  9160.000000   1615330   1615723   1614943   1612714   1609254  
  9150.000000   1605168   1601250   1598228   1596578   1596428  
  9140.000000   1597620   1599855   1602842   1606331   1610055  
  9130.000000   1613663   1616721   1618763   1619458   1618703  
  9120.000000   1616750   1614102   1611408   1609174   1607644  
  9110.000000   1606760   1606275   1605945   1605626   1605383  
  9100.000000   1605374   1605776   1606598   1607688   1608762  
  9090.000000   1609559   1609932   1609903   1609626   1609275  
  9080.000000   1608977   1608730   1608468   1608094   1607563  
  9070.000000   1606870   1606028   1605019   1603787   1602264  
  9060.000000   1600449   1598506   1596758   1595629   1595442  
  9050.000000   1596311   1598041   1600195   1602217   1603658  
  9040.000000   1604332   1604330   1603933   1603418   1602947  
  9030.000000   1602463   1601780   1600680   1599092   1597131  
  9020.000000   1595075   1593244   1591861   1591005   1590581  
  9010.000000   1590447   1590473   1590636   1590988   1591584  
  9000.000000   1592412   1593332   1594129   1594562   1594475  
  8990.000000   1593831   1592739   1591370   1589912   1588508  
  8980.000000   1587285   1586349   1585816   1585789   1586324  
  8970.000000   1587360   1588692   1590009   1590996   1591453  
  8960.000000   1591378   1590973   1590576   1590520   1591018  
  8950.000000   1592074   1593531   1595140   1596679   1598013  
  8940.000000   1599095   1599941   1600554   1600929   1601035  
  8930.000000   1600888   1600565   1600219   1600021   1600070  
  8920.000000   1600342   1600660   1600772   1600437   1599522  
  8910.000000   1598066   1596258   1594374   1592683   1591396  
  8900.000000   1590661   1590571   1591191   1592543   1594582  
  8890.000000   1597124   1599823   1602227   1603902   1604592  
  8880.000000   1604315   1603388   1602327   1601670   1601779  
  8870.000000   1602721   1604259   1605955   1607338   1608061  
  8860.000000   1607992   1607191   1605827   1604085   1602113  
  8850.000000   1600015   1597897   1595910   1594285   1593264  
  8840.000000   1593035   1593641   1594966   1596749   1598675  
  8830.000000   1600467   1601984   1603230   1604331   1605444  
  8820.000000   1606709   1608188   1609880   1611739   1613708  
  8810.000000   1615740   1617798   1619825   1621739   1623414  
  8800.000000   1624713   1625494   1625681   1625258   1624314  
  8790.000000   1622991   1621491   1620030   1618822   1618069  
  8780.000000   1617908   1618450   1619720   1621721   1624364  
  8770.000000   1627534   1631044   1634673   1638166   1641240  
  8760.000000   1643646   1645171   1645732   1645345   1644174  
  8750.000000   1642461   1640513   1638630   1637068   1636010  
  8740.000000   1635557   1635741   1636513   1637769   1639338  
  8730.000000   1641015   1642600   1643945   1645017   1645902  
  8720.000000   1646808   1647972   1649593   1651743   1654356  
  8710.000000   1657251   1660204   1663036   1665667   1668109  
  8700.000000   1670418   1672619   1674650   1676366   1677586  
  8690.000000   1678191   1678194   1677766   1677191   1676776  
  8680.000000   1676754   1677220   1678123   1679303   1680562  
  8670.000000   1681738   1682736   1683538   1684169   1684691  
  8660.000000   1685197   1685823   1686749   1688156   1690176  
  8650.000000   1692796   1695818   1698867   1701496   1703319  
  8640.000000   1704156   1704107   1703550   1703004   1702965  
  8630.000000   1703712   1705248   1707298   1709459   1711339  
  8620.000000   1712709   1713549   1714024   1714405   1714959  
  8610.000000   1715881   1717255   1719079   1721299   1723841  
  8600.000000   1726611   1729489   1732324   1734944   1737189  
  8590.000000   1738955   1740231   1741086   1741663   1742088  
  8580.000000   1742467   1742824   1743157   1743454   1743749  
  8570.000000   1744143   1744766   1745773   1747247   1749219  
  8560.000000   1751616   1754333   1757241   1760224   1763178  
  8550.000000   1765982   1768517   1770611   1772123   1772926  
  8540.000000   1773022   1772508   1771614   1770630   1769869  
  8530.000000   1769598   1769994   1771154   1773078   1775710  
  8520.000000   1778894   1782434   1786069   1789533   1792582  
  8510.000000   1795058   1796952   1798367   1799513   1800585  
  8500.000000   1801722   1802922   1804064   1804969   1805501  
  8490.000000   1805665   1805616   1805648   1806064   1807090  
  8480.000000   1808755   1810900   1813223   1815390   1817149  
  8470.000000   1818394   1819195   1819731   1820215   1820811  
  8460.000000   1821600   1822589   1823754   1825077   1826573  
  8450.000000   1828282   1830225   1832385   1834656   1836890  
  8440.000000   1838903   1840565   1841815   1842699   1843336  
  8430.000000   1843884   1844471   1845161   1845930   1846684  
  8420.000000   1847285   1847615   1847605   1847283   1846743  
  8410.000000   1846142   1845627   1845315   1845231   1845333  
  8400.000000   1845515   1845662   1845694   1845593   1845412  
  8390.000000   1845236   1845138   1845141   1845210   1845267  
  8380.000000   1845243   1845115   1844932   1844810   1844879  
  8370.000000   1845228   1845857   1846667   1847503   1848207  
  8360.000000   1848681   1848906   1848940   1848871   1848764  
  8350.000000   1848638   1848456   1848184   1847833   1847490  
  8340.000000   1847304   1847419   1847908   1848713   1849645  
  8330.000000   1850426   1850792   1850578   1849798   1848633  
  8320.000000   1847365   1846290   1845622   1845465   1845790  
  8310.000000   1846508   1847498   1848671   1849962   1851317  
  8300.000000   1852652   1853842   1854734   1855176   1855078  
  8290.000000   1854427   1853309   1851874   1850289   1848716  
  8280.000000   1847277   1846082   1845204   1844715   1844642  
  8270.000000   1844968   1845584   1846288   1846810   1846871  
  8260.000000   1846267   1844939   1843000   1840714   1838436  
  8250.000000   1836522   1835246   1834744   1834993   1835837  
  8240.000000   1837032   1838299   1839364   1840002   1840048  
  8230.000000   1839436   1838200   1836497   1834573   1832732  
  8220.000000   1831253   1830337   1830034   1830240   1830697  
  8210.000000   1831080   1831057   1830405   1829041   1827037  
  8200.000000   1824575   1821887   1819190   1816633   1814288  
  8190.000000   1812157   1810212   1808442   1806854   1805496  
  8180.000000   1804397   1803576   1802981   1802524   1802073  
  8170.000000   1801499   1800707   1799637   1798296   1796702  
  8160.000000   1794906   1792932   1790809   1788550   1786190  
  8150.000000   1783782   1781416   1779202   1777245   1775636  
  8140.000000   1774414   1773585   1773100   1772896   1772887  
  8130.000000   1772986   1773107   1773160   1773065   1772735  
  8120.000000   1772109   1771133   1769794   1768106   1766127  
  8110.000000   1763950   1761698   1759512   1757527   1755851  
  8100.000000   1754535   1753564   1752842   1752220   1751530  
  8090.000000   1750630   1749452   1748018   1746439   1744864  
  8080.000000   1743442   1742275   1741395   1740778   1740366  
  8070.000000   1740109   1739975   1739956   1740039   1740174  
  8060.000000   1740260   1740136   1739637   1738622   1737051  
  8050.000000   1734983   1732593   1730119   1727808   1725870  
  8040.000000   1724432   1723541   1723158   1723190   1723497  
  8030.000000   1723918   1724275   1724399   1724150   1723442  
  8020.000000   1722276   1720730   1718964   1717164   1715516  
  8010.000000   1714145   1713110   1712395   1711932   1711638  
  8000.000000   1711424   1711230   1711001   1710700   1710290  
  7990.000000   1709749   1709080   1708310   1707508   1706743  
  7980.000000   1706081   1705528   1705042   1704515   1703826  
  7970.000000   1702876   1701643   1700191   1698675   1697288  
  7960.000000   1696213   1695571   1695384   1695578   1696006  
  7950.000000   1696498   1696909   1697152   1697219   1697161  
  7940.000000   1697069   1697023   1697074   1697209   1697373  
  7930.000000   1697470   1697420   1697174   1696752   1696238  
  7920.000000   1695762   1695462   1695430   1695689   1696170  
  7910.000000   1696743   1697257   1697592   1697701   1697618  
  7900.000000   1697441   1697286   1697238   1697323   1697501  
  7890.000000   1697693   1697819   1697832   1697737   1697575  
  7880.000000   1697402   1697245   1697093   1696893   1696585  
  7870.000000   1696130   1695542   1694892   1694289   1693849  
  7860.000000   1693648   1693721   1694034   1694536   1695160  
  7850.000000   1695860   1696609   1697378   1698127   1698773  
  7840.000000   1699210   1699318   1699011   1698271   1697168  
  7830.000000   1695855   1694537   1693426   1692684   1692400  
  7820.000000   1692555   1693056   1693732   1694399   1694875  
  7810.000000   1695033   1694806   1694207   1693312   1692240  
  7800.000000   1691115   1690038   1689059   1688179   1687360  
  7790.000000   1686560   1685753   1684947   1684176   1683478  
  7780.000000   1682862   1682289   1681674   1680915   1679934  
  7770.000000   1678720   1677356   1675996   1674839   1674059  
  7760.000000   1673756   1673923   1674450   1675153   1675834  
  7750.000000   1676321   1676511   1676378   1675966   1675356  
  7740.000000   1674650   1673935   1673279   1672716   1672253  
  7730.000000   1671869   1671528   1671195   1670837   1670452  
  7720.000000   1670047   1669650   1669278   1668927   1668565  
  7710.000000   1668130   1667561   1666815   1665899   1664874  
  7700.000000   1663843   1662928   1662227   1661798   1661635  
  7690.000000   1661683   1661856   1662062   1662225   1662289  
  7680.000000   1662219   1661989   1661588   1661004   1660259  
  7670.000000   1659392   1658475   1657592   1656822   1656221  
  7660.000000   1655802   1655551   1655435   1655429   1655525  
  7650.000000   1655729   1656046   1656452   1656883   1657233  
  7640.000000   1657388   1657259   1656832   1656182   1655474  
  7630.000000   1654903   1654651   1654809   1655356   1656164  
  7620.000000   1657039   1657789   1658281   1658479   1658443  
  7610.000000   1658300   1658195   1658242   1658497   1658941  
  7600.000000   1659508   1660098   1660617   1660986   1661157  
  7590.000000   1661113   1660875   1660494   1660059   1659674  
  7580.000000   1659453   1659479   1659796   1660386   1661180  
  7570.000000   1662068   1662940   1663711   1664354   1664889  
  7560.000000   1665390   1665935   1666601   1667430   1668436  
  7550.000000   1669592   1670859   1672181   1673506   1674791  
  7540.000000   1676008   1677143   1678208   1679225   1680230  
  7530.000000   1681251   1682303   1683368   1684414   1685392  
  7520.000000   1686273   1687051   1687760   1688458   1689215  
  7510.000000   1690082   1691079   1692191   1693387   1694636  
  7500.000000   1695936   1697305   1698793   1700433   1702248  
  7490.000000   1704209   1706265   1708328   1710329   1712214  
  7480.000000   1713979   1715651   1717296   1718992   1720824  
  7470.000000   1722868   1725182   1727787   1730661   1733724  
  7460.000000   1736859   1739909   1742731   1745210   1747315  
  7450.000000   1749080   1750618   1752058   1753542   1755168  
  7440.000000   1756995   1759037   1761285   1763727   1766357  
  7430.000000   1769177   1772180   1775343   1778616   1781934  
  7420.000000   1785226   1788426   1791493   1794400   1797157  
  7410.000000   1799772   1802278   1804706   1807097   1809495  
  7400.000000   1811934   1814441   1817023   1819679   1822398  
  7390.000000   1825183   1828041   1830994   1834048   1837182  
  7380.000000   1840325   1843362   1846166   1848631   1850720  
  7370.000000   1852483   1854051   1855603   1857307   1859279  
  7360.000000   1861545   1864042   1866651   1869235   1871691  
  7350.000000   1873969   1876078   1878079   1880051   1882075  
  7340.000000   1884207   1886485   1888921   1891516   1894256  
  7330.000000   1897114   1900048   1903006   1905919   1908720  
  7320.000000   1911338   1913720   1915822   1917631   1919163  
  7310.000000   1920478   1921667   1922849   1924129   1925592  
  7300.000000   1927258   1929096   1931022   1932941   1934760  
  7290.000000   1936427   1937922   1939265   1940483   1941609  
  7280.000000   1942666   1943681   1944694   1945763   1946956  
  7270.000000   1948328   1949900   1951632   1953430   1955168  
  7260.000000   1956731   1958052   1959141   1960072   1960974  
  7250.000000   1961957   1963110   1964444   1965925   1967476  
  7240.000000   1969039   1970578   1972122   1973728   1975487  
  7230.000000   1977465   1979707   1982203   1984925   1987804  
  7220.000000   1990786   1993810   1996857   1999911   2003003  
  7210.000000   2006147   2009383   2012713   2016138   2019617  
  7200.000000   2023123   2026615   2030100   2033599   2037183  
  7190.000000   2040913   2044850   2048998   2053324   2057733  
  7180.000000   2062122   2066390   2070491   2074426   2078266  
  7170.000000   2082099   2086044   2090175   2094555   2099170  
  7160.000000   2103985   2108908   2113859   2118754   2123569  
  7150.000000   2128316   2133085   2137994   2143202   2148815  
  7140.000000   2154893   2161376   2168149   2175022   2181849  
  7130.000000   2188509   2194999   2201361   2207720   2214169  
  7120.000000   2220796   2227604   2234581   2241668   2248849  
  7110.000000   2256117   2263525   2271119   2278952   2287016  
  7100.000000   2295281   2303654   2312052   2320380   2328601  
  7090.000000   2336700   2344726   2352744   2360855   2369144  
  7080.000000   2377687   2386507   2395582   2404824   2414115  
  7070.000000   2423318   2432337   2441126   2449716   2458189  
  7060.000000   2466646   2475164   2483774   2492449   2501132  
  7050.000000   2509761   2518299   2526748   2535131   2543479  
  7040.000000   2551796   2560066   2568246   2576307   2584240  
  7030.000000   2592085   2599899   2607752   2615679   2623687  
  7020.000000   2631730   2639755   2647698   2655532   2663234  
  7010.000000   2670809   2678246   2685539   2692663   2699611  
  7000.000000   2706378   2712992   2719475   2725861   2732146  
  6990.000000   2738332   2744399   2750362   2756240   2762101  
  6980.000000   2767984   2773927   2779887   2785791   2791515  
  6970.000000   2796966   2802074   2806854   2811359   2815688  
  6960.000000   2819910   2824085   2828207   2832274   2836252  
  6950.000000   2840146   2843950   2847685   2851334   2854883  
  6940.000000   2858284   2861518   2864567   2867468   2870261  
  6930.000000   2873001   2875704   2878370   2880954   2883429  
  6920.000000   2885768   2888003   2890176   2892356   2894581  
  6910.000000   2896865   2899176   2901471   2903700   2905838  
  6900.000000   2907868   2909791   2911596   2913273   2914804  
  6890.000000   2916195   2917473   2918704   2919959   2921302  
  6880.000000   2922753   2924291   2925853   2927380   2928831  
  6870.000000   2930213   2931568   2932949   2934387   2935871  
  6860.000000   2937348   2938746   2940006   2941110   2942087  
  6850.000000   2943009   2943951   2944974   2946101   2947323  
  6840.000000   2948602   2949894   2951148   2952320   2953363  
  6830.000000   2954245   2954943   2955470   2955868   2956217  
  6820.000000   2956601   2957088   2957694   2958386   2959082  
  6810.000000   2959701   2960179   2960515   2960746   2960952  
  6800.000000   2961195   2961512   2961882   2962256   2962565  
  6790.000000   2962762   2962828   2962779   2962645   2962456  
  6780.000000   2962221   2961937   2961590   2961180   2960721  
  6770.000000   2960252   2959823   2959485   2959270   2959188  
  6760.000000   2959221   2959324   2959433   2959469   2959356  
  6750.000000   2959036   2958493   2957760   2956923   2956103  
  6740.000000   2955421   2954968   2954775   2954809   2954981  
  6730.000000   2955190   2955346   2955400   2955348   2955215  
  6720.000000   2955030   2954812   2954555   2954247   2953876  
  6710.000000   2953454   2953010   2952587   2952218   2951912  
  6700.000000   2951640   2951353   2950984   2950487   2949831  
  6690.000000   2949027   2948106   2947121   2946122   2945162  
  6680.000000   2944268   2943459   2942720   2942028   2941335  
  6670.000000   2940601   2939786   2938879   2937879   2936811  
  6660.000000   2935692   2934536   2933331   2932060   2930702  
  6650.000000   2929259   2927754   2926238   2924756   2923346  
  6640.000000   2922005   2920705   2919391   2918020   2916564  
  6630.000000   2915033   2913454   2911866   2910290   2908734  
  6620.000000   2907184   2905632   2904077   2902541   2901049  
  6610.000000   2899626   2898267   2896940   2895585   2894142  
  6600.000000   2892568   2890851   2889013   2887098   2885155  
  6590.000000   2883226   2881337   2879509   2877756   2876091  
  6580.000000   2874520   2873035   2871609   2870197   2868751  
  6570.000000   2867233   2865634   2863971   2862287   2860619  
  6560.000000   2858993   2857404   2855830   2854240   2852620  
  6550.000000   2850981   2849355   2847785   2846302   2844912  
  6540.000000   2843591   2842295   2840984   2839628   2838224  
  6530.000000   2836786   2835343   2833918   2832527   2831169  
  6520.000000   2829840   2828530   2827238   2825964   2824719  
  6510.000000   2823516   2822373   2821305   2820326   2819437  
  6500.000000   2818623   2817853   2817082   2816265   2815368  
  6490.000000   2814384   2813334   2812255   2811189   2810161  
  6480.000000   2809170   2808191   2807189   2806136   2805025  
  6470.000000   2803874   2802712   2801565   2800449   2799360  
  6460.000000   2798285   2797216   2796159   2795135   2794168  
  6450.000000   2793273   2792449   2791668   2790897   2790106  
  6440.000000   2789285   2788445   2787615   2786814   2786057  
  6430.000000   2785331   2784624   2783917   2783217   2782547  
  6420.000000   2781945   2781439   2781044   2780746   2780515  
  6410.000000   2780316   2780131   2779955   2779801   2779678  
  6400.000000   2779588   2779511   2779421   2779291   2779115  
  6390.000000   2778905   2778692   2778502   2778350   2778226  
  6380.000000   2778101   2777945   2777739   2777487   2777210  
  6370.000000   2776939   2776692   2776474   2776270   2776062  
  6360.000000   2775837   2775599   2775359   2775138   2774938  
  6350.000000   2774751   2774545   2774289   2773952   2773526  
  6340.000000   2773008   2772410   2771735   2770986   2770157  
  6330.000000   2769256   2768293   2767304   2766319   2765374  
  6320.000000   2764473   2763607   2762736   2761829   2760860  
  6310.000000   2759832   2758760   2757675   2756588   2755498  
  6300.000000   2754377   2753193   2751916   2750542   2749078  
  6290.000000   2747557   2746003   2744441   2742871   2741297  
  6280.000000   2739711   2738120   2736525   2734938   2733354  
  6270.000000   2731761   2730132   2728440   2726659   2724781  
  6260.000000   2722810   2720767   2718675   2716563   2714457  
  6250.000000   2712389   2710384   2708475   2706677   2704998  
  6240.000000   2703411   2701878   2700341   2698749   2697064  
  6230.000000   2695271   2693375   2691393   2689345   2687247  
  6220.000000   2685113   2682955   2680791   2678643   2676534  
  6210.000000   2674478   2672474   2670511   2668568   2666629  
  6200.000000   2664690   2662761   2660857   2658989   2657156  
  6190.000000   2655338   2653513   2651659   2649773   2647875  
  6180.000000   2646000   2644182   2642444   2640787   2639191  
  6170.000000   2637628   2636075   2634527   2632995   2631502  
  6160.000000   2630066   2628693   2627371   2626073   2624769  
  6150.000000   2623435   2622062   2620650   2619211   2617754  
  6140.000000   2616288   2614812   2613331   2611842   2610352  
  6130.000000   2608865   2607391   2605933   2604503   2603106  
  6120.000000   2601753   2600453   2599215   2598039   2596924  
  6110.000000   2595857   2594834   2593845   2592898   2591999  
  6100.000000   2591166   2590406   2589728   2589123   2588588  
  6090.000000   2588105   2587668   2587262   2586883   2586514  
  6080.000000   2586149   2585774   2585398   2585032   2584714  
  6070.000000   2584478   2584364   2584384   2584537   2584791  
  6060.000000   2585114   2585466   2585835   2586215   2586634  
  6050.000000   2587110   2587671   2588319   2589062   2589885  
  6040.000000   2590792   2591782   2592873   2594075   2595407  
  6030.000000   2596862   2598436   2600098   2601829   2603591  
  6020.000000   2605367   2607132   2608881   2610604   2612315  
  6010.000000   2614021   2615750   2617518   2619352   2621253  
  6000.000000   2623230   2625267   2627362   2629505   2631707  
  5990.000000   2633971   2636317   2638741   2641247   2643816  
  5980.000000   2646445   2649123   2651869   2654699   2657646  
  5970.000000   2660722   2663936   2667263   2670679   2674142  
  5960.000000   2677634   2681137   2684661   2688208   2691794  
  5950.000000   2695410   2699055   2702716   2706394   2710098  
  5940.000000   2713855   2717694   2721645   2725720   2729910  
  5930.000000   2734184   2738491   2742771   2746961   2751009  
  5920.000000   2754878   2758553   2762039   2765363   2768562  
  5910.000000   2771674   2774727   2777734   2780684   2783569  
  5900.000000   2786373   2789112   2791810   2794526   2797311  
  5890.000000   2800217   2803251   2806403   2809615   2812825  
  5880.000000   2815960   2818962   2821789   2824417   2826835  
  5870.000000   2829046   2831064   2832921   2834665   2836356  
  5860.000000   2838060   2839833   2841713   2843714   2845828  
  5850.000000   2848041   2850334   2852700   2855135   2857637  
  5840.000000   2860200   2862810   2865446   2868087   2870721  
  5830.000000   2873341   2875955   2878566   2881177   2883778  
  5820.000000   2886357   2888898   2891393   2893845   2896259  
  5810.000000   2898645   2900999   2903315   2905571   2907762  
  5800.000000   2909871   2911924   2913924   2915909   2917873  
  5790.000000   2919824   2921716   2923517   2925146   2926546  
  5780.000000   2927623   2928315   2928540   2928263   2927465  
  5770.000000   2926196   2924530   2922600   2920528   2918444  
  5760.000000   2916417   2914498   2912683   2910973   2909355  
  5750.000000   2907847   2906465   2905233   2904150   2903199  
  5740.000000   2902338   2901517   2900702   2899869   2899024  
  5730.000000   2898177   2897353   2896558   2895800   2895072  
  5720.000000   2894376   2893712   2893092   2892518   2891991  
  5710.000000   2891501   2891033   2890571   2890110   2889653  
  5700.000000   2889207   2888777   2888361   2887949   2887527  
  5690.000000   2887094   2886657   2886245   2885877   2885574  
  5680.000000   2885320   2885087   2884816   2884456   2883955  
  5670.000000   2883287   2882433   2881386   2880132   2878662  
  5660.000000   2876964   2875058   2872982   2870813   2868631  
  5650.000000   2866521   2864524   2862653   2860873   2859142  
  5640.000000   2857409   2855652   2853871   2852087   2850331  
  5630.000000   2848628   2846995   2845438   2843963   2842568  
  5620.000000   2841256   2840016   2838831   2837673   2836514  
  5610.000000   2835336   2834143   2832954   2831809   2830739  
  5600.000000   2829762   2828872   2828041   2827231   2826405  
  5590.000000   2825540   2824629   2823672   2822672   2821627  
  5580.000000   2820535   2819399   2818226   2817040   2815860  
  5570.000000   2814705   2813574   2812453   2811315   2810136  
  5560.000000   2808903   2807621   2806304   2804974   2803640  
  5550.000000   2802305   2800959   2799602   2798239   2796895  
  5540.000000   2795600   2794382   2793249   2792192   2791182  
  5530.000000   2790188   2789184   2788161   2787120   2786068  
  5520.000000   2785006   2783926   2782815   2781666   2780481  
  5510.000000   2779274   2778062   2776858   2775653   2774428  
  5500.000000   2773151   2771806   2770392   2768940   2767486  
  5490.000000   2766071   2764698   2763351   2761979   2760538  
  5480.000000   2758992   2757339   2755598   2753809   2751998  
  5470.000000   2750181   2748346   2746479   2744563   2742603  
  5460.000000   2740605   2738589   2736556   2734501   2732403  
  5450.000000   2730246   2728026   2725762   2723487   2721241  
  5440.000000   2719053   2716930   2714871   2712864   2710911  
  5430.000000   2709017   2707197   2705445   2703750   2702072  
  5420.000000   2700382   2698661   2696940   2695275   2693756  
  5410.000000   2692446   2691382   2690530   2689836   2689221  
  5400.000000   2688646   2688095   2687614   2687243   2687041  
  5390.000000   2687009   2687145   2687393   2687733   2688137  
  5380.000000   2688640   2689262   2690064   2691051   2692248  
  5370.000000   2693620   2695169   2696861   2698721   2700731  
  5360.000000   2702929   2705290   2707850   2710581   2713544  
  5350.000000   2716745   2720281   2724174   2728513   2733279  
  5340.000000   2738520   2744181   2750306   2756848   2763870  
  5330.000000   2771326   2779267   2787619   2796421   2805603  
  5320.000000   2815250   2825347   2836038   2847333   2859371  
  5310.000000   2872115   2885645   2899871   2914855   2930521  
  5300.000000   2946975   2964201   2982349   3001430   3021589  
  5290.000000   3042793   3065103   3088385   3112584   3137494  
  5280.000000   3163043   3189093   3215692   3242851   3270718  
  5270.000000   3299331   3328730   3358778   3389286   3419983  
  5260.000000   3450656   3481177   3511542   3541841   3572158  
  5250.000000   3602543   3632886   3663025   3692655   3721586  
  5240.000000   3749608   3776751   3803022   3828625   3853618  
  5230.000000   3878152   3902151   3925606   3948305   3970186  
  5220.000000   3991067   4010998   4029936   4048062   4065415  
  5210.000000   4082187   4098353   4113985   4128921   4143137  
  5200.000000   4156449   4168890   4180385   4191075   4200954  
  5190.000000   4210169   4218673   4226542   4233684   4240161  
  5180.000000   4245912   4251044   4255532   4259483   4262841  
  5170.000000   4265660   4267854   4269473   4270463   4270919  
  5160.000000   4270824   4270273   4269226   4267732   4265726  
  5150.000000   4263254   4260284   4256903   4253115   4249005  
  5140.000000   4244557   4239812   4234727   4229335   4223626  
  5130.000000   4217671   4211501   4205200   4198785   4192300  
  5120.000000   4185726   4179077   4172330   4165507   4158610  
  5110.000000   4151671   4144696   4137709   4130713   4123728  
  5100.000000   4116763   4109843   4102982   4096194   4089475  
  5090.000000   4082818   4076207   4069632   4063085   4056569  
  5080.000000   4050081   4043616   4037154   4030673   4024143  
  5070.000000   4017550   4010884   4004160   3997392   3990603  
  5060.000000   3983799   3976988   3970155   3963295   3956394  
  5050.000000   3949448   3942448   3935391   3928267   3921069  
  5040.000000   3913792   3906448   3899058   3891660   3884295  
  5030.000000   3877002   3869807   3862715   3855723   3848810  
  5020.000000   3841965   3835173   3828446   3821789   3815236  
  5010.000000   3808803   3802531   3796428   3790530   3784833  
  5000.000000   3779362   3774098   3769059   3764215   3759589  
  4990.000000   3755163   3750978   3747032   3743377   3740006  
  4980.000000   3736963   3734217   3731797   3729662   3727848  
  4970.000000   3726327   3725153   3724308   3723848   3723747  
  4960.000000   3724051   3724726   3725822   3727312   3729261  
  4950.000000   3731647   3734530   3737869   3741697   3745950  
  4940.000000   3750644   3755713   3761180   3766993   3773186  
  4930.000000   3779710   3786600   3793812   3801383   3809283  
  4920.000000   3817558   3826186   3835208   3844589   3854346  
  4910.000000   3864434   3874853   3885561   3896556   3907804  
  4900.000000   3919290   3930972   3942813   3954759   3966758  
  4890.000000   3978762   3990717   4002581   4014288   4025800  
  4880.000000   4037039   4047973   4058534   4068715   4078460  
  4870.000000   4087778   4096609   4104954   4112744   4119989  
  4860.000000   4126640   4132740   4138277   4143325   4147890  
  4850.000000   4152048   4155805   4159238   4162359   4165254  
  4840.000000   4167947   4170519   4172981   4175378   4177694  
  4830.000000   4179943   4182103   4184188   4186196   4188155  
  4820.000000   4190071   4191968   4193847   4195718   4197581  
  4810.000000   4199448   4201324   4203222   4205146   4207093  
  4800.000000   4209054   4211019   4212983   4214952   4216941  
  4790.000000   4218970   4221057   4223206   4225408   4227643  
  4780.000000   4229883   4232107   4234301   4236467   4238607  
  4770.000000   4240728   4242822   4244878   4246867   4248768  
  4760.000000   4250552   4252212   4253742   4255155   4256460  
  4750.000000   4257680   4258822   4259902   4260917   4261876  
  4740.000000   4262768   4263598   4264354   4265041   4265647  
  4730.000000   4266177   4266621   4266980   4267244   4267411  
  4720.000000   4267475   4267442   4267323   4267139   4266920  
  4710.000000   4266696   4266502   4266364   4266306   4266345  
  4700.000000   4266499   4266784   4267223   4267832   4268630  
  4690.000000   4269623   4270809   4272164   4273654   4275228  
  4680.000000   4276833   4278404   4279893   4281247   4282444  
  4670.000000   4283458   4284304   4284996   4285583   4286107  
  4660.000000   4286637   4287227   4287946   4288845   4289978  
  4650.000000   4291381   4293079   4295079   4297372   4299928  
  4640.000000   4302702   4305638   4308671   4311741   4314788  
  4630.000000   4317762   4320613   4323306   4325808   4328099  
  4620.000000   4330157   4331979   4333552   4334883   4335962  
  4610.000000   4336804   4337398   4337772   4337924   4337900  
  4600.000000   4337713   4337417   4337022   4336566   4336037  
  4590.000000   4335443   4334743   4333925   4332941   4331776  
  4580.000000   4330395   4328800   4326979   4324956   4322740  
  4570.000000   4320368   4317860   4315256   4312572   4309836  
  4560.000000   4307053   4304237   4301386   4298508   4295602  
  4550.000000   4292676   4289733   4286781   4283823   4280865  
  4540.000000   4277916   4274989   4272106   4269282   4266545  
  4530.000000   4263900   4261358   4258900   4256523   4254188  
  4520.000000   4251902   4249637   4247433   4245289   4243284  
  4510.000000   4241435   4239846   4238537   4237619   4237102  
  4500.000000   4237091   4237581   4238669   4240339   4242690  
  4490.000000   4245703   4249487   4254024   4259414   4265619  
  4480.000000   4272706   4280599   4289336   4298823   4309092  
  4470.000000   4320060   4331765   4344129   4357178   4370816  
  4460.000000   4385036   4399724   4414849   4430298   4446039  
  4450.000000   4461976   4478083   4494292   4510585   4526924  
  4440.000000   4543297   4559688   4576076   4592449   4608758  
  4430.000000   4624981   4641042   4656920   4672523   4687843  
  4420.000000   4702782   4717340   4731411   4744988   4757950  
  4410.000000   4770274   4781821   4792561   4802361   4811214  
  4400.000000   4819032   4825873   4831729   4836732   4840946  
  4390.000000   4844546   4847623   4850346   4852792   4855093  
  4380.000000   4857294   4859483   4861681   4863951   4866309  
  4370.000000   4868808   4871473   4874351   4877466   4880846  
  4360.000000   4884502   4888440   4892644   4897107   4901782  
  4350.000000   4906653   4911645   4916738   4921852   4926982  
  4340.000000   4932063   4937090   4941966   4946587   4950712  
  4330.000000   4954058   4956237   4956905   4955774   4952761  
  4320.000000   4947988   4941831   4934818   4927574   4920655  
  4310.000000   4914510   4909365   4905295   4902196   4899919  
  4300.000000   4898281   4897145   4896415   4896032   4895969  
  4290.000000   4896183   4896655   4897334   4898211   4899252  
  4280.000000   4900459   4901818   4903313   4904919   4906588  
  4270.000000   4908287   4909951   4911529   4912910   4913974  
  4260.000000   4914525   4914365   4913279   4911132   4907868  
  4250.000000   4903586   4898482   4892872   4887073   4881408  
  4240.000000   4876086   4871248   4866896   4862989   4859410  
  4230.000000   4856059   4852831   4849654   4846480   4843271  
  4220.000000   4840024   4836725   4833412   4830101   4826877  
  4210.000000   4823788   4820935   4818367   4816163   4814338  
  4200.000000   4812924   4811894   4811240   4810899   4810841  
  4190.000000   4810984   4811305   4811736   4812291   4812940  
  4180.000000   4813739   4814682   4815839   4817201   4818827  
  4170.000000   4820699   4822880   4825366   4828238   4831506  
  4160.000000   4835250   4839462   4844192   4849395   4855097  
  4150.000000   4861239   4867848   4874872   4882354   4890249  
  4140.000000   4898607   4907383   4916632   4926308   4936468  
  4130.000000   4947065   4958147   4969661   4981646   4994051  
  4120.000000   5006921   5020228   5034035   5048336   5063202  
  4110.000000   5078622   5094640   5111212   5128333   5145918  
  4100.000000   5163923   5182249   5200845   5219634   5238584  
  4090.000000   5257657   5276836   5296102   5315436   5334826  
  4080.000000   5354242   5373682   5393105   5412509   5431822  
  4070.000000   5451013   5469961   5488611   5506831   5524594  
  4060.000000   5541802   5558484   5574567   5590096   5604989  
  4050.000000   5619296   5632935   5645986   5658387   5670229  
  4040.000000   5681427   5692028   5701892   5711039   5719337  
  4030.000000   5726850   5733508   5739420   5744539   5748940  
  4020.000000   5752514   5755314   5757293   5758524   5758942  
  4010.000000   5758693   5757854   5756435   5754179   5751154  
  4000.000000   5747741  
##END= 
