##TITLE= Sample 002 By ssteindl date Montag, November 26 2018
##JCAMP-DX= 4.24
##DATA TYPE= INFRARED SPECTRUM
##ORIGIN= Exported PE Spectrum Data File
##OWNER= Sandra Steindl
##DATE= 18/11/26
##TIME= 11:23:07.00
##SPECTROMETER/DATA SYSTEM= PERKIN-ELMER Frontier FT-IR/NIR IR
##INSTRUMENT PARAMETERS=
  APODIZATION=stark
  DETECTOR=INGAAS
##RESOLUTION= 16.000000
##DELTAX= -2.000000
##XUNITS= 1/CM
##YUNITS= A
##XFACTOR= 1.00
##YFACTOR= 0.00000011920928955078
##FIRSTX= 10000.00
##LASTX= 4000.00
##NPOINTS= 3001
##FIRSTY= 0.256757
##MAXY= 0.611616
##MINY= 0.209260
##XYDATA= (X++(Y..Y))
 10000.000000   2153830   2158355   2163631   2169890   2175568  
  9990.000000   2178606   2178108   2174635   2169105   2162605  
  9980.000000   2156425   2151907   2149928   2150794   2154267  
  9970.000000   2159506   2165020   2168959   2169584   2165846  
  9960.000000   2157845   2147023   2135821   2127038   2122921  
  9950.000000   2124480   2131138   2140984   2151443   2160125  
  9940.000000   2165536   2167358   2166272   2163458   2160021  
  9930.000000   2156586   2153312   2150048   2146781   2143733  
  9920.000000   2141412   2140304   2140561   2141889   2143518  
  9910.000000   2144628   2144622   2143487   2141760   2140275  
  9900.000000   2139774   2140507   2142172   2144026   2145299  
  9890.000000   2145503   2144666   2143243   2141866   2141049  
  9880.000000   2140949   2141401   2142034   2142550   2142880  
  9870.000000   2143188   2143744   2144688   2145875   2146884  
  9860.000000   2147139   2146195   2143918   2140617   2136934  
  9850.000000   2133678   2131511   2130800   2131439   2132970  
  9840.000000   2134672   2135812   2135838   2134502   2131930  
  9830.000000   2128487   2124667   2120854   2117248   2113778  
  9820.000000   2110266   2106535   2102658   2098995   2096155  
  9810.000000   2094789   2095291   2097618   2101245   2105316  
  9800.000000   2108998   2111713   2113385   2114312   2114982  
  9790.000000   2115769   2116713   2117574   2117973   2117764  
  9780.000000   2117170   2116824   2117442   2119474   2122745  
  9770.000000   2126406   2129151   2129636   2126985   2121042  
  9760.000000   2112521   2102668   2092978   2084669   2078497  
  9750.000000   2074642   2072881   2072816   2074033   2076242  
  9740.000000   2079206   2082805   2086944   2091660   2097022  
  9730.000000   2103120   2109888   2116979   2123762   2129354  
  9720.000000   2132970   2134070   2132691   2129341   2124890  
  9710.000000   2120166   2115650   2111349   2106855   2101767  
  9700.000000   2095945   2089871   2084463   2080913   2080098  
  9690.000000   2082326   2087047   2093101   2098998   2103410  
  9680.000000   2105488   2105010   2102347   2098222   2093540  
  9670.000000   2089111   2085584   2083277   2082175   2081871  
  9660.000000   2081677   2080783   2078525   2074646   2069433  
  9650.000000   2063702   2058535   2054924   2053423   2053945  
  9640.000000   2055853   2058214   2060191   2061339   2061700  
  9630.000000   2061703   2061901   2062712   2064288   2066460  
  9620.000000   2068906   2071208   2073038   2074089   2074135  
  9610.000000   2072976   2070547   2067011   2062847   2058846  
  9600.000000   2055903   2054792   2055815   2058728   2062721  
  9590.000000   2066789   2070017   2071961   2072679   2072639  
  9580.000000   2072392   2072271   2072253   2071963   2070931  
  9570.000000   2068800   2065545   2061480   2057130   2053049  
  9560.000000   2049596   2046937   2045007   2043730   2043013  
  9550.000000   2042851   2043181   2043861   2044566   2044894  
  9540.000000   2044450   2043029   2040692   2037727   2034584  
  9530.000000   2031622   2029066   2026843   2024717   2022320  
  9520.000000   2019384   2015790   2011685   2007407   2003445  
  9510.000000   2000324   1998497   1998292   1999795   2002857  
  9500.000000   2007084   2011919   2016804   2021261   2025043  
  9490.000000   2028039   2030287   2031762   2032418   2032088  
  9480.000000   2030677   2028204   2024962   2021517   2018578  
  9470.000000   2016873   2016822   2018537   2021658   2025655  
  9460.000000   2029852   2033742   2036935   2039240   2040544  
  9450.000000   2040783   2039920   2037940   2034921   2031000  
  9440.000000   2026425   2021430   2016263   2011093   2006067  
  9430.000000   2001334   1997071   1993520   1990868   1989245  
  9420.000000   1988601   1988789   1989620   1990985   1992914  
  9410.000000   1995497   1998792   2002630   2006604   2010054  
  9400.000000   2012320   2012915   2011791   2009354   2006382  
  9390.000000   2003725   2002027   2001514   2001983   2002952  
  9380.000000   2003873   2004344   2004161   2003346   2001996  
  9370.000000   2000273   1998315   1996334   1994614   1993523  
  9360.000000   1993419   1994484   1996606   1999286   2001737  
  9350.000000   2003119   2002812   2000684   1997114   1992896  
  9340.000000   1988972   1986152   1984920   1985299   1986894  
  9330.000000   1989008   1990829   1991637   1990939   1988570  
  9320.000000   1984736   1980018   1975292   1971520   1969492  
  9310.000000   1969511   1971323   1974131   1976915   1978725  
  9300.000000   1979005   1977769   1975550   1973215   1971600  
  9290.000000   1971250   1972284   1974445   1977304   1980397  
  9280.000000   1983354   1985861   1987640   1988420   1987984  
  9270.000000   1986266   1983447   1980002   1976613   1973981  
  9260.000000   1972574   1972488   1973415   1974848   1976256  
  9250.000000   1977335   1978016   1978451   1978810   1979132  
  9240.000000   1979257   1978877   1977722   1975696   1972977  
  9230.000000   1969967   1967147   1964910   1963417   1962633  
  9220.000000   1962379   1962493   1962853   1963386   1963975  
  9210.000000   1964406   1964377   1963571   1961818   1959198  
  9200.000000   1956098   1953074   1950671   1949211   1948709  
  9190.000000   1948890   1949348   1949720   1949841   1949757  
  9180.000000   1949648   1949659   1949803   1949913   1949764  
  9170.000000   1949184   1948214   1947094   1946209   1945944  
  9160.000000   1946518   1947936   1949933   1952154   1954220  
  9150.000000   1955906   1957133   1957963   1958524   1958887  
  9140.000000   1959040   1958823   1958017   1956345   1953604  
  9130.000000   1949744   1944957   1939684   1934538   1930236  
  9120.000000   1927422   1926512   1927534   1930134   1933675  
  9110.000000   1937389   1940560   1942686   1943582   1943363  
  9100.000000   1942364   1941024   1939840   1939255   1939636  
  9090.000000   1941148   1943718   1946976   1950297   1952925  
  9080.000000   1954152   1953591   1951311   1947864   1944090  
  9070.000000   1940876   1938847   1938192   1938601   1939476  
  9060.000000   1940184   1940337   1939866   1939024   1938155  
  9050.000000   1937545   1937229   1937020   1936605   1935714  
  9040.000000   1934269   1932379   1930311   1928307   1926529  
  9030.000000   1924969   1923530   1922078   1920548   1918954  
  9020.000000   1917378   1915914   1914622   1913568   1912846  
  9010.000000   1912625   1913111   1914486   1916799   1919845  
  9000.000000   1923163   1926107   1928078   1928666   1927812  
  8990.000000   1925799   1923177   1920552   1918404   1916994  
  8980.000000   1916360   1916394   1916898   1917674   1918539  
  8970.000000   1919321   1919831   1919888   1919372   1918285  
  8960.000000   1916775   1915111   1913598   1912501   1911953  
  8950.000000   1911978   1912508   1913485   1914877   1916672  
  8940.000000   1918787   1920997   1922914   1924031   1923901  
  8930.000000   1922292   1919351   1915555   1911605   1908197  
  8920.000000   1905823   1904649   1904485   1904965   1905683  
  8910.000000   1906390   1906986   1907522   1908072   1908645  
  8900.000000   1909150   1909401   1909247   1908575   1907406  
  8890.000000   1905809   1903927   1901870   1899760   1897727  
  8880.000000   1895971   1894754   1894329   1894866   1896343  
  8870.000000   1898529   1901001   1903302   1905074   1906197  
  8860.000000   1906807   1907222   1907793   1908731   1910024  
  8850.000000   1911418   1912547   1913049   1912719   1911543  
  8840.000000   1909698   1907464   1905130   1902932   1901013  
  8830.000000   1899479   1898399   1897854   1897884   1898497  
  8820.000000   1899617   1901105   1902764   1904403   1905877  
  8810.000000   1907091   1908014   1908602   1908830   1908635  
  8800.000000   1908011   1906983   1905692   1904345   1903189  
  8790.000000   1902443   1902208   1902497   1903208   1904252  
  8780.000000   1905544   1907093   1908917   1911033   1913337  
  8770.000000   1915589   1917439   1918495   1918485   1917294  
  8760.000000   1915053   1912030   1908599   1905081   1901701  
  8750.000000   1898564   1895712   1893226   1891260   1890057  
  8740.000000   1889838   1890743   1892697   1895425   1898468  
  8730.000000   1901324   1903606   1905124   1905970   1906385  
  8720.000000   1906713   1907179   1907873   1908655   1909283  
  8710.000000   1909469   1909044   1908023   1906622   1905226  
  8700.000000   1904243   1904042   1904774   1906406   1908679  
  8690.000000   1911231   1913684   1915736   1917231   1918131  
  8680.000000   1918506   1918420   1917902   1916913   1915420  
  8670.000000   1913446   1911169   1908928   1907188   1906416  
  8660.000000   1906900   1908640   1911282   1914231   1916819  
  8650.000000   1918534   1919199   1918999   1918428   1918058  
  8640.000000   1918347   1919448   1921208   1923222   1925060  
  8630.000000   1926410   1927212   1927614   1927884   1928273  
  8620.000000   1928911   1929781   1930761   1931719   1932602  
  8610.000000   1933469   1934443   1935665   1937196   1939022  
  8600.000000   1941033   1943120   1945183   1947172   1949040  
  8590.000000   1950708   1952037   1952829   1952902   1952160  
  8580.000000   1950690   1948735   1946655   1944790   1943366  
  8570.000000   1942439   1941888   1941541   1941257   1941054  
  8560.000000   1941093   1941650   1942969   1945153   1948064  
  8550.000000   1951348   1954525   1957120   1958810   1959491  
  8540.000000   1959302   1958557   1957635   1956867   1956447  
  8530.000000   1956409   1956641   1956938   1957066   1956835  
  8520.000000   1956141   1954987   1953455   1951703   1949920  
  8510.000000   1948300   1947017   1946195   1945913   1946183  
  8500.000000   1946946   1948090   1949458   1950897   1952283  
  8490.000000   1953556   1954739   1955898   1957120   1958404  
  8480.000000   1959662   1960684   1961234   1961108   1960251  
  8470.000000   1958808   1957126   1955660   1954831   1954910  
  8460.000000   1955935   1957710   1959867   1961999   1963774  
  8450.000000   1965023   1965732   1966025   1966094   1966146  
  8440.000000   1966356   1966851   1967712   1968941   1970445  
  8430.000000   1972028   1973418   1974321   1974483   1973815  
  8420.000000   1972420   1970609   1968794   1967386   1966667  
  8410.000000   1966711   1967365   1968324   1969236   1969817  
  8400.000000   1969912   1969522   1968767   1967844   1966961  
  8390.000000   1966300   1965984   1966075   1966555   1967335  
  8380.000000   1968258   1969144   1969835   1970249   1970409  
  8370.000000   1970416   1970403   1970450   1970533   1970504  
  8360.000000   1970152   1969298   1967911   1966167   1964419  
  8350.000000   1963100   1962558   1962947   1964140   1965782  
  8340.000000   1967395   1968553   1969011   1968766   1968011  
  8330.000000   1967040   1966126   1965434   1964984   1964690  
  8320.000000   1964429   1964114   1963731   1963324   1962954  
  8310.000000   1962643   1962357   1961998   1961454   1960632  
  8300.000000   1959520   1958181   1956764   1955457   1954447  
  8290.000000   1953884   1953853   1954368   1955368   1956739  
  8280.000000   1958310   1959901   1961329   1962455   1963191  
  8270.000000   1963525   1963500   1963198   1962707   1962091  
  8260.000000   1961373   1960541   1959564   1958419   1957100  
  8250.000000   1955636   1954066   1952437   1950773   1949085  
  8240.000000   1947370   1945642   1943933   1942328   1940928  
  8230.000000   1939858   1939201   1939006   1939241   1939816  
  8220.000000   1940592   1941402   1942093   1942516   1942559  
  8210.000000   1942115   1941119   1939543   1937442   1934950  
  8200.000000   1932293   1929749   1927586   1926016   1925109  
  8190.000000   1924807   1924914   1925196   1925427   1925477  
  8180.000000   1925312   1924983   1924568   1924109   1923583  
  8170.000000   1922888   1921902   1920521   1918745   1916678  
  8160.000000   1914517   1912493   1910790   1909501   1908594  
  8150.000000   1907948   1907386   1906748   1905930   1904912  
  8140.000000   1903749   1902538   1901386   1900366   1899515  
  8130.000000   1898814   1898217   1897654   1897059   1896386  
  8120.000000   1895615   1894764   1893872   1892997   1892184  
  8110.000000   1891464   1890835   1890267   1889709   1889103  
  8100.000000   1888391   1887532   1886498   1885277   1883873  
  8090.000000   1882311   1880639   1878927   1877269   1875753  
  8080.000000   1874448   1873372   1872491   1871723   1870958  
  8070.000000   1870106   1869111   1867988   1866808   1865691  
  8060.000000   1864766   1864142   1863877   1863949   1864261  
  8050.000000   1864634   1864845   1864654   1863874   1862409  
  8040.000000   1860307   1857758   1855077   1852619   1850699  
  8030.000000   1849504   1849041   1849145   1849532   1849902  
  8020.000000   1850018   1849780   1849224   1848484   1847726  
  8010.000000   1847068   1846550   1846119   1845681   1845133  
  8000.000000   1844427   1843576   1842658   1841777   1841022  
  7990.000000   1840446   1840049   1839784   1839578   1839348  
  7980.000000   1839028   1838573   1837969   1837234   1836423  
  7970.000000   1835619   1834924   1834438   1834231   1834322  
  7960.000000   1834661   1835136   1835590   1835857   1835801  
  7950.000000   1835351   1834512   1833366   1832053   1830728  
  7940.000000   1829536   1828565   1827838   1827303   1826859  
  7930.000000   1826380   1825764   1824955   1823970   1822887  
  7920.000000   1821828   1820924   1820271   1819920   1819859  
  7910.000000   1820042   1820404   1820888   1821461   1822094  
  7900.000000   1822759   1823392   1823901   1824160   1824055  
  7890.000000   1823510   1822536   1821239   1819810   1818489  
  7880.000000   1817498   1817001   1817048   1817587   1818462  
  7870.000000   1819475   1820418   1821134   1821528   1821580  
  7860.000000   1821327   1820843   1820211   1819511   1818814  
  7850.000000   1818172   1817628   1817200   1816877   1816606  
  7840.000000   1816295   1815836   1815127   1814128   1812878  
  7830.000000   1811516   1810246   1809294   1808829   1808923  
  7820.000000   1809505   1810389   1811315   1812023   1812316  
  7810.000000   1812099   1811383   1810262   1808870   1807343  
  7800.000000   1805803   1804341   1803032   1801934   1801086  
  7790.000000   1800500   1800139   1799929   1799755   1799509  
  7780.000000   1799112   1798547   1797861   1797139   1796469  
  7770.000000   1795901   1795435   1795021   1794598   1794124  
  7760.000000   1793611   1793119   1792726   1792500   1792448  
  7750.000000   1792513   1792586   1792546   1792307   1791848  
  7740.000000   1791209   1790472   1789715   1788980   1788253  
  7730.000000   1787492   1786644   1785698   1784691   1783703  
  7720.000000   1782822   1782103   1781533   1781031   1780474  
  7710.000000   1779741   1778769   1777574   1776254   1774958  
  7700.000000   1773839   1773007   1772503   1772297   1772310  
  7690.000000   1772439   1772596   1772711   1772746   1772671  
  7680.000000   1772461   1772086   1771528   1770782   1769890  
  7670.000000   1768928   1768008   1767248   1766739   1766522  
  7660.000000   1766563   1766775   1767031   1767209   1767225  
  7650.000000   1767049   1766714   1766276   1765808   1765343  
  7640.000000   1764887   1764398   1763827   1763141   1762350  
  7630.000000   1761522   1760765   1760212   1759958   1760050  
  7620.000000   1760447   1761043   1761686   1762212   1762490  
  7610.000000   1762439   1762050   1761369   1760489   1759515  
  7600.000000   1758556   1757689   1756968   1756409   1756004  
  7590.000000   1755728   1755549   1755444   1755400   1755423  
  7580.000000   1755521   1755702   1755954   1756244   1756525  
  7570.000000   1756741   1756858   1756859   1756769   1756625  
  7560.000000   1756481   1756365   1756292   1756247   1756209  
  7550.000000   1756162   1756113   1756093   1756150   1756328  
  7540.000000   1756653   1757123   1757708   1758369   1759064  
  7530.000000   1759765   1760461   1761139   1761790   1762389  
  7520.000000   1762907   1763308   1763579   1763725   1763786  
  7510.000000   1763814   1763872   1764008   1764256   1764628  
  7500.000000   1765126   1765737   1766449   1767240   1768082  
  7490.000000   1768937   1769766   1770528   1771211   1771822  
  7480.000000   1772411   1773040   1773783   1774691   1775788  
  7470.000000   1777046   1778409   1779790   1781109   1782304  
  7460.000000   1783357   1784287   1785163   1786070   1787095  
  7450.000000   1788293   1789677   1791202   1792785   1794313  
  7440.000000   1795693   1796868   1797841   1798669   1799450  
  7430.000000   1800288   1801278   1802477   1803906   1805548  
  7420.000000   1807368   1809322   1811355   1813408   1815417  
  7410.000000   1817319   1819063   1820628   1822027   1823312  
  7400.000000   1824558   1825838   1827197   1828639   1830126  
  7390.000000   1831591   1832963   1834194   1835262   1836177  
  7380.000000   1836973   1837691   1838371   1839053   1839777  
  7370.000000   1840588   1841535   1842666   1844008   1845566  
  7360.000000   1847310   1849185   1851121   1853045   1854896  
  7350.000000   1856627   1858212   1859647   1860954   1862177  
  7340.000000   1863384   1864643   1866009   1867501   1869091  
  7330.000000   1870704   1872240   1873611   1874764   1875710  
  7320.000000   1876516   1877286   1878121   1879094   1880227  
  7310.000000   1881499   1882855   1884247   1885632   1887000  
  7300.000000   1888349   1889689   1891012   1892304   1893540  
  7290.000000   1894697   1895757   1896712   1897557   1898284  
  7280.000000   1898885   1899359   1899717   1899992   1900231  
  7270.000000   1900493   1900818   1901225   1901701   1902215  
  7260.000000   1902732   1903234   1903724   1904223   1904761  
  7250.000000   1905347   1905980   1906633   1907287   1907929  
  7240.000000   1908585   1909295   1910124   1911113   1912292  
  7230.000000   1913645   1915148   1916753   1918437   1920171  
  7220.000000   1921959   1923789   1925668   1927582   1929538  
  7210.000000   1931531   1933583   1935704   1937914   1940205  
  7200.000000   1942571   1944983   1947436   1949929   1952500  
  7190.000000   1955179   1958007   1960977   1964057   1967169  
  7180.000000   1970238   1973198   1976045   1978811   1981584  
  7170.000000   1984447   1987478   1990699   1994101   1997625  
  7160.000000   2001216   2004809   2008381   2011918   2015451  
  7150.000000   2019007   2022648   2026424   2030399   2034608  
  7140.000000   2039077   2043777   2048676   2053699   2058802  
  7130.000000   2063938   2069108   2074309   2079570   2084879  
  7120.000000   2090238   2095605   2100974   2106337   2111742  
  7110.000000   2117241   2122910   2128786   2134884   2141160  
  7100.000000   2147566   2154038   2160551   2167097   2173703  
  7090.000000   2180384   2187149   2193968   2200807   2207620  
  7080.000000   2214397   2221143   2227902   2234707   2241586  
  7070.000000   2248523   2255489   2262429   2269310   2276112  
  7060.000000   2282851   2289557   2296276   2303047   2309912  
  7050.000000   2316902   2324040   2331331   2338747   2346224  
  7040.000000   2353669   2360979   2368080   2374953   2381650  
  7030.000000   2388279   2394958   2401775   2408741   2415795  
  7020.000000   2422813   2429678   2436307   2442700   2448911  
  7010.000000   2455037   2461142   2467253   2473321   2479269  
  7000.000000   2485009   2490497   2495730   2500769   2505681  
  6990.000000   2510554   2515438   2520382   2525389   2530467  
  6980.000000   2535588   2540721   2545791   2550723   2555418  
  6970.000000   2559823   2563904   2567701   2571275   2574720  
  6960.000000   2578100   2581458   2584783   2588057   2591237  
  6950.000000   2594310   2597257   2600092   2602805   2605400  
  6940.000000   2607860   2610199   2612432   2614609   2616771  
  6930.000000   2618958   2621162   2623348   2625449   2627410  
  6920.000000   2629198   2630835   2632366   2633863   2635370  
  6910.000000   2636906   2638449   2639970   2641440   2642861  
  6900.000000   2644251   2645640   2647039   2648437   2649791  
  6890.000000   2651054   2652188   2653192   2654093   2654947  
  6880.000000   2655808   2656718   2657692   2658735   2659835  
  6870.000000   2660983   2662156   2663327   2664447   2665460  
  6860.000000   2666314   2666984   2667490   2667896   2668291  
  6850.000000   2668755   2669333   2670015   2670745   2671452  
  6840.000000   2672074   2672599   2673053   2673499   2673993  
  6830.000000   2674571   2675225   2675918   2676591   2677197  
  6820.000000   2677700   2678096   2678390   2678609   2678774  
  6810.000000   2678919   2679066   2679238   2679438   2679650  
  6800.000000   2679827   2679915   2679860   2679641   2679272  
  6790.000000   2678810   2678323   2677871   2677474   2677120  
  6780.000000   2676767   2676383   2675962   2675542   2675178  
  6770.000000   2674928   2674806   2674784   2674789   2674739  
  6760.000000   2674575   2674280   2673882   2673429   2672963  
  6750.000000   2672501   2672026   2671512   2670942   2670329  
  6740.000000   2669710   2669137   2668642   2668226   2667851  
  6730.000000   2667467   2667025   2666509   2665936   2665348  
  6720.000000   2664782   2664258   2663761   2663264   2662734  
  6710.000000   2662161   2661557   2660949   2660359   2659793  
  6700.000000   2659227   2658630   2657970   2657241   2656458  
  6690.000000   2655656   2654859   2654070   2653258   2652370  
  6680.000000   2651349   2650163   2648811   2647334   2645789  
  6670.000000   2644246   2642749   2641329   2639983   2638699  
  6660.000000   2637446   2636195   2634909   2633558   2632114  
  6650.000000   2630564   2628908   2627167   2625367   2623543  
  6640.000000   2621715   2619902   2618110   2616350   2614634  
  6630.000000   2612983   2611408   2609906   2608446   2606976  
  6620.000000   2605433   2603765   2601952   2600013   2598003  
  6610.000000   2595995   2594055   2592226   2590520   2588926  
  6600.000000   2587416   2585964   2584542   2583128   2581699  
  6590.000000   2580234   2578713   2577128   2575480   2573781  
  6580.000000   2572045   2570277   2568470   2566607   2564677  
  6570.000000   2562691   2560687   2558730   2556888   2555210  
  6560.000000   2553703   2552332   2551028   2549720   2548362  
  6550.000000   2546946   2545505   2544086   2542735   2541460  
  6540.000000   2540245   2539046   2537825   2536555   2535241  
  6530.000000   2533900   2532562   2531245   2529958   2528695  
  6520.000000   2527454   2526234   2525048   2523907   2522822  
  6510.000000   2521790   2520799   2519832   2518876   2517926  
  6500.000000   2516987   2516062   2515148   2514231   2513290  
  6490.000000   2512309   2511287   2510239   2509192   2508172  
  6480.000000   2507191   2506243   2505305   2504356   2503387  
  6470.000000   2502408   2501444   2500520   2499643   2498801  
  6460.000000   2497962   2497094   2496183   2495241   2494308  
  6450.000000   2493433   2492654   2491981   2491391   2490835  
  6440.000000   2490262   2489627   2488910   2488110   2487242  
  6430.000000   2486321   2485364   2484386   2483408   2482453  
  6420.000000   2481554   2480736   2480016   2479393   2478850  
  6410.000000   2478363   2477915   2477497   2477110   2476756  
  6400.000000   2476432   2476120   2475798   2475436   2475025  
  6390.000000   2474568   2474087   2473607   2473146   2472706  
  6380.000000   2472276   2471838   2471382   2470914   2470455  
  6370.000000   2470033   2469667   2469357   2469084   2468813  
  6360.000000   2468512   2468159   2467750   2467290   2466789  
  6350.000000   2466254   2465682   2465075   2464437   2463794  
  6340.000000   2463174   2462612   2462119   2461688   2461275  
  6330.000000   2460829   2460292   2459631   2458834   2457925  
  6320.000000   2456936   2455907   2454861   2453818   2452772  
  6310.000000   2451725   2450666   2449594   2448497   2447366  
  6300.000000   2446178   2444913   2443549   2442084   2440523  
  6290.000000   2438894   2437222   2435541   2433864   2432204  
  6280.000000   2430551   2428900   2427231   2425537   2423804  
  6270.000000   2422027   2420201   2418329   2416415   2414469  
  6260.000000   2412502   2410528   2408556   2406598   2404657  
  6250.000000   2402744   2400859   2399004   2397166   2395331  
  6240.000000   2393471   2391563   2389587   2387544   2385447  
  6230.000000   2383329   2381224   2379159   2377143   2375167  
  6220.000000   2373202   2371215   2369173   2367055   2364859  
  6210.000000   2362597   2360292   2357977   2355687   2353457  
  6200.000000   2351313   2349272   2347336   2345488   2343701  
  6190.000000   2341943   2340186   2338413   2336623   2334822  
  6180.000000   2333024   2331236   2329461   2327696   2325938  
  6170.000000   2324188   2322454   2320742   2319059   2317399  
  6160.000000   2315753   2314107   2312456   2310805   2309176  
  6150.000000   2307590   2306068   2304613   2303208   2301824  
  6140.000000   2300432   2299013   2297567   2296109   2294661  
  6130.000000   2293238   2291844   2290468   2289100   2287733  
  6120.000000   2286380   2285060   2283804   2282630   2281546  
  6110.000000   2280538   2279589   2278674   2277785   2276917  
  6100.000000   2276083   2275287   2274542   2273841   2273189  
  6090.000000   2272581   2272025   2271525   2271087   2270701  
  6080.000000   2270353   2270015   2269673   2269315   2268959  
  6070.000000   2268629   2268363   2268179   2268090   2268084  
  6060.000000   2268152   2268278   2268468   2268730   2269090  
  6050.000000   2269552   2270118   2270761   2271459   2272178  
  6040.000000   2272914   2273665   2274460   2275318   2276265  
  6030.000000   2277302   2278430   2279631   2280899   2282219  
  6020.000000   2283588   2284991   2286421   2287858   2289295  
  6010.000000   2290723   2292152   2293591   2295061   2296562  
  6000.000000   2298097   2299646   2301202   2302754   2304316  
  5990.000000   2305902   2307538   2309231   2310979   2312757  
  5980.000000   2314547   2316333   2318128   2319958   2321865  
  5970.000000   2323874   2325997   2328202   2330452   2332691  
  5960.000000   2334889   2337032   2339143   2341248   2343389  
  5950.000000   2345585   2347853   2350190   2352599   2355081  
  5940.000000   2357647   2360303   2363047   2365866   2368732  
  5930.000000   2371613   2374479   2377311   2380101   2382844  
  5920.000000   2385538   2388172   2390732   2393199   2395564  
  5910.000000   2397824   2399987   2402065   2404071   2406019  
  5900.000000   2407921   2409803   2411694   2413640   2415681  
  5890.000000   2417853   2420163   2422598   2425121   2427686  
  5880.000000   2430250   2432781   2435260   2437674   2440017  
  5870.000000   2442272   2444430   2446479   2448429   2450300  
  5860.000000   2452133   2453966   2455839   2457773   2459782  
  5850.000000   2461868   2464037   2466296   2468655   2471119  
  5840.000000   2473683   2476324   2479015   2481722   2484424  
  5830.000000   2487113   2489792   2492470   2495148   2497821  
  5820.000000   2500469   2503077   2505630   2508132   2510586  
  5810.000000   2513003   2515371   2517680   2519885   2521968  
  5800.000000   2523895   2525687   2527356   2528960   2530518  
  5790.000000   2532068   2533579   2535027   2536326   2537404  
  5780.000000   2538150   2538482   2538306   2537582   2536290  
  5770.000000   2534488   2532270   2529792   2527206   2524670  
  5760.000000   2522282   2520104   2518134   2516357   2514736  
  5750.000000   2513261   2511924   2510735   2509692   2508783  
  5740.000000   2507980   2507245   2506551   2505877   2505228  
  5730.000000   2504608   2504036   2503511   2503039   2502608  
  5720.000000   2502220   2501873   2501576   2501324   2501111  
  5710.000000   2500911   2500701   2500461   2500196   2499929  
  5700.000000   2499706   2499567   2499537   2499613   2499764  
  5690.000000   2499952   2500136   2500303   2500453   2500608  
  5680.000000   2500777   2500964   2501136   2501255   2501264  
  5670.000000   2501125   2500804   2500293   2499585   2498687  
  5660.000000   2497603   2496350   2494947   2493436   2491857  
  5650.000000   2490263   2488684   2487146   2485647   2484184  
  5640.000000   2482747   2481338   2479967   2478649   2477397  
  5630.000000   2476218   2475110   2474066   2473083   2472160  
  5620.000000   2471301   2470502   2469756   2469040   2468329  
  5610.000000   2467598   2466837   2466050   2465255   2464470  
  5600.000000   2463707   2462967   2462239   2461508   2460766  
  5590.000000   2460018   2459274   2458543   2457822   2457096  
  5580.000000   2456332   2455505   2454599   2453626   2452613  
  5570.000000   2451598   2450613   2449671   2448759   2447856  
  5560.000000   2446932   2445968   2444956   2443906   2442825  
  5550.000000   2441725   2440608   2439474   2438327   2437175  
  5540.000000   2436032   2434914   2433830   2432778   2431749  
  5530.000000   2430733   2429721   2428719   2427734   2426780  
  5520.000000   2425858   2424964   2424076   2423176   2422244  
  5510.000000   2421275   2420269   2419231   2418162   2417060  
  5500.000000   2415913   2414718   2413477   2412209   2410932  
  5490.000000   2409669   2408418   2407172   2405898   2404572  
  5480.000000   2403170   2401696   2400156   2398575   2396963  
  5470.000000   2395329   2393663   2391958   2390206   2388414  
  5460.000000   2386585   2384730   2382840   2380902   2378892  
  5450.000000   2376796   2374614   2372372   2370113   2367888  
  5440.000000   2365737   2363686   2361745   2359910   2358178  
  5430.000000   2356541   2354990   2353496   2352027   2350532  
  5420.000000   2348984   2347368   2345720   2344098   2342595  
  5410.000000   2341268   2340157   2339235   2338460   2337763  
  5400.000000   2337117   2336503   2335956   2335499   2335171  
  5390.000000   2334970   2334897   2334926   2335067   2335334  
  5380.000000   2335781   2336441   2337351   2338481   2339801  
  5370.000000   2341224   2342706   2344185   2345674   2347169  
  5360.000000   2348736   2350391   2352215   2354227   2356519  
  5350.000000   2359118   2362117   2365521   2369387   2373666  
  5340.000000   2378371   2383432   2388881   2394679   2400896  
  5330.000000   2407497   2414540   2421957   2429779   2437938  
  5320.000000   2446509   2455482   2465005   2475104   2485931  
  5310.000000   2497466   2509795   2522824   2536593   2551002  
  5300.000000   2566117   2581891   2598445   2615781   2634040  
  5290.000000   2653211   2673381   2694452   2716397   2739035  
  5280.000000   2762296   2786037   2810285   2835032   2860407  
  5270.000000   2886447   2913204   2940568   2968383   2996410  
  5260.000000   3024448   3052370   3080154   3107868   3135575  
  5250.000000   3163316   3190989   3218449   3245418   3271725  
  5240.000000   3297172   3321786   3345565   3368687   3391196  
  5230.000000   3413227   3434699   3455607   3475757   3495105  
  5220.000000   3513492   3530976   3547522   3563292   3578307  
  5210.000000   3592724   3606496   3619678   3632120   3643822  
  5200.000000   3654649   3664676   3673874   3682408   3690288  
  5190.000000   3697648   3704426   3710663   3716239   3721179  
  5180.000000   3725401   3728988   3731918   3734298   3736098  
  5170.000000   3737391   3738125   3738366   3738083   3737366  
  5160.000000   3736204   3734677   3732747   3730454   3727742  
  5150.000000   3724651   3721163   3717355   3713244   3708909  
  5140.000000   3704345   3699596   3694631   3689480   3684129  
  5130.000000   3678626   3672979   3667234   3661385   3655450  
  5120.000000   3649404   3643259   3637008   3630677   3624279  
  5110.000000   3617839   3611359   3604850   3598310   3591755  
  5100.000000   3585206   3578703   3572275   3565951   3559728  
  5090.000000   3553595   3547520   3541479   3535449   3529430  
  5080.000000   3523420   3517424   3511433   3505431   3499388  
  5070.000000   3493285   3487106   3480856   3474548   3468206  
  5060.000000   3461845   3455478   3449101   3442711   3436298  
  5050.000000   3429860   3423396   3416909   3410397   3403858  
  5040.000000   3397284   3390670   3384020   3377343   3370661  
  5030.000000   3363997   3357375   3350814   3344331   3337928  
  5020.000000   3331618   3325398   3319279   3313254   3307335  
  5010.000000   3301509   3295789   3290166   3284671   3279309  
  5000.000000   3274126   3269135   3264378   3259848   3255573  
  4990.000000   3251524   3247720   3244134   3240794   3237682  
  4980.000000   3234838   3232243   3229942   3227916   3226220  
  4970.000000   3224846   3223860   3223256   3223091   3223332  
  4960.000000   3224005   3225045   3226460   3228188   3230255  
  4950.000000   3232628   3235355   3238414   3241848   3245619  
  4940.000000   3249750   3254190   3258963   3264025   3269411  
  4930.000000   3275088   3281088   3287374   3293965   3300820  
  4920.000000   3307959   3315348   3323020   3330955   3339188  
  4910.000000   3347699   3356506   3365579   3374912   3384460  
  4900.000000   3394202   3404092   3414102   3424197   3434350  
  4890.000000   3444535   3454722   3464882   3474968   3484945  
  4880.000000   3494757   3504377   3513761   3522902   3531772  
  4870.000000   3540384   3548709   3556761   3564509   3571967  
  4860.000000   3579108   3585952   3592478   3598710   3604628  
  4850.000000   3610258   3615589   3620665   3625499   3630157  
  4840.000000   3634665   3639086   3643426   3647714   3651925  
  4830.000000   3656061   3660088   3664009   3667803   3671484  
  4820.000000   3675041   3678491   3681832   3685086   3688262  
  4810.000000   3691388   3694477   3697548   3700597   3703620  
  4800.000000   3706595   3709512   3712353   3715130   3717846  
  4790.000000   3720529   3723188   3725837   3728466   3731067  
  4780.000000   3733613   3736093   3738484   3740789   3742999  
  4770.000000   3745129   3747177   3749159   3751069   3752916  
  4760.000000   3754682   3756361   3757921   3759347   3760601  
  4750.000000   3761674   3762545   3763227   3763719   3764053  
  4740.000000   3764236   3764303   3764260   3764133   3763925  
  4730.000000   3763652   3763308   3762899   3762408   3761830  
  4720.000000   3761146   3760357   3759463   3758485   3757446  
  4710.000000   3756382   3755324   3754305   3753344   3752458  
  4700.000000   3751650   3750918   3750252   3749642   3749071  
  4690.000000   3748528   3748002   3747488   3746984   3746489  
  4680.000000   3746001   3745507   3744992   3744430   3743802  
  4670.000000   3743087   3742286   3741404   3740472   3739518  
  4660.000000   3738586   3737708   3736927   3736271   3735777  
  4650.000000   3735467   3735362   3735467   3735777   3736265  
  4640.000000   3736901   3737642   3738454   3739308   3740189  
  4630.000000   3741084   3741988   3742887   3743767   3744606  
  4620.000000   3745380   3746064   3746640   3747092   3747405  
  4610.000000   3747570   3747579   3747440   3747161   3746779  
  4600.000000   3746328   3745859   3745403   3744992   3744620  
  4590.000000   3744279   3743934   3743564   3743136   3742647  
  4580.000000   3742081   3741447   3740731   3739933   3739032  
  4570.000000   3738021   3736882   3735622   3734240   3732755  
  4560.000000   3731174   3729514   3727778   3725979   3724118  
  4550.000000   3722210   3720260   3718282   3716279   3714253  
  4540.000000   3712201   3710121   3708017   3705899   3703790  
  4530.000000   3701709   3699684   3697721   3695843   3694037  
  4520.000000   3692327   3690701   3689197   3687814   3686609  
  4510.000000   3685585   3684815   3684304   3684140   3684335  
  4500.000000   3684991   3686116   3687804   3690039   3692895  
  4490.000000   3696333   3700423   3705131   3710542   3716636  
  4480.000000   3723500   3731102   3739499   3748622   3758491  
  4470.000000   3769005   3780157   3791837   3804026   3816620  
  4460.000000   3829599   3842870   3856420   3870171   3884109  
  4450.000000   3898170   3912334   3926544   3940776   3954988  
  4440.000000   3969157   3983267   3997294   4011244   4025086  
  4430.000000   4038828   4052419   4065860   4079073   4092049  
  4420.000000   4104686   4116967   4128775   4140092   4150802  
  4410.000000   4160893   4170257   4178893   4186710   4193723  
  4400.000000   4199867   4205190   4209673   4213410   4216440  
  4390.000000   4218903   4220883   4222542   4223978   4225327  
  4380.000000   4226659   4228062   4229568   4231231   4233076  
  4370.000000   4235154   4237508   4240190   4243241   4246685  
  4360.000000   4250530   4254755   4259327   4264199   4269305  
  4350.000000   4274594   4279988   4285453   4290928   4296422  
  4340.000000   4301914   4307435   4312937   4318349   4323459  
  4330.000000   4327981   4331514   4333673   4334126   4332740  
  4320.000000   4329591   4325027   4319547   4313767   4308231  
  4310.000000   4303385   4299448   4296493   4294410   4293050  
  4300.000000   4292222   4291789   4291638   4291703   4291941  
  4290.000000   4292304   4292771   4293304   4293912   4294591  
  4280.000000   4295369   4296258   4297265   4298389   4299603  
  4270.000000   4300904   4302262   4303663   4305033   4306275  
  4260.000000   4307203   4307606   4307237   4305909   4303507  
  4250.000000   4300065   4295730   4290777   4285513   4280270  
  4240.000000   4275290   4270762   4266739   4263222   4260119  
  4230.000000   4257331   4254731   4252210   4249677   4247063  
  4220.000000   4244342   4241505   4238605   4235693   4232876  
  4210.000000   4230226   4227847   4225782   4224079   4222725  
  4200.000000   4221713   4220990   4220524   4220248   4220134  
  4190.000000   4220118   4220189   4220299   4220461   4220646  
  4180.000000   4220900   4221215   4221663   4222259   4223095  
  4170.000000   4224206   4225698   4227604   4230017   4232937  
  4160.000000   4236412   4240393   4244886   4249812   4255179  
  4150.000000   4260923   4267083   4273627   4280618   4288036  
  4140.000000   4295949   4304322   4313211   4322562   4332412  
  4130.000000   4342690   4353415   4364516   4376016   4387866  
  4120.000000   4400116   4412753   4425850   4439413   4453509  
  4110.000000   4468124   4483288   4498946   4515075   4531579  
  4100.000000   4548396   4565419   4582592   4599842   4617159  
  4090.000000   4634533   4651992   4669556   4687246   4705071  
  4080.000000   4723016   4741077   4759214   4777423   4795647  
  4070.000000   4813866   4831986   4849959   4867662   4885055  
  4060.000000   4902030   4918589   4934657   4950264   4965337  
  4050.000000   4979913   4993915   5007395   5020284   5032651  
  4040.000000   5044412   5055617   5066148   5076036   5085158  
  4030.000000   5093565   5101158   5107999   5113987   5119149  
  4020.000000   5123341   5126593   5128848   5130195   5130605  
  4010.000000   5130261   5129272   5127714   5125410   5122456  
  4000.000000   5119173  
##END= 
