##TITLE= Sample 009 By ssteindl date Montag, November 26 2018
##JCAMP-DX= 4.24
##DATA TYPE= INFRARED SPECTRUM
##ORIGIN= Exported PE Spectrum Data File
##OWNER= Sandra Steindl
##DATE= 18/11/26
##TIME= 11:29:31.00
##SPECTROMETER/DATA SYSTEM= PERKIN-ELMER Frontier FT-IR/NIR IR
##INSTRUMENT PARAMETERS=
  APODIZATION=stark
  DETECTOR=INGAAS
##RESOLUTION= 16.000000
##DELTAX= -2.000000
##XUNITS= 1/CM
##YUNITS= A
##XFACTOR= 1.00
##YFACTOR= 0.00000011920928955078
##FIRSTX= 10000.00
##LASTX= 4000.00
##NPOINTS= 3001
##FIRSTY= 0.304512
##MAXY= 0.639024
##MINY= 0.239854
##XYDATA= (X++(Y..Y))
 10000.000000   2554428   2552763   2551244   2550248   2550030  
  9990.000000   2550555   2551420   2552058   2552078   2551428  
  9980.000000   2550396   2549306   2548239   2546808   2544308  
  9970.000000   2540046   2533874   2526433   2519085   2513442  
  9960.000000   2510699   2511183   2514164   2518247   2521870  
  9950.000000   2523997   2524394   2523597   2522522   2521905  
  9940.000000   2522026   2522545   2522841   2522250   2520452  
  9930.000000   2517456   2513574   2509161   2504567   2500121  
  9920.000000   2496241   2493515   2492541   2493778   2497144  
  9910.000000   2501993   2507121   2511244   2513465   2513687  
  9900.000000   2512711   2511821   2512242   2514380   2517631  
  9890.000000   2520432   2521007   2518082   2511551   2502602  
  9880.000000   2493282   2485851   2481896   2482032   2485711  
  9870.000000   2491714   2498560   2505039   2510375   2514192  
  9860.000000   2516319   2516599   2514898   2511186   2505776  
  9850.000000   2499320   2492794   2487130   2482998   2480527  
  9840.000000   2479387   2478971   2478715   2478334   2477861  
  9830.000000   2477508   2477453   2477665   2477937   2478040  
  9820.000000   2477955   2478019   2478843   2481145   2485361  
  9810.000000   2491460   2498810   2506383   2513081   2518038  
  9800.000000   2520881   2521589   2520390   2517443   2512783  
  9790.000000   2506379   2498312   2489103   2479681   2471444  
  9780.000000   2465739   2463632   2465370   2470397   2477356  
  9770.000000   2484511   2490149   2492920   2492120   2487624  
  9760.000000   2479942   2469944   2458871   2448066   2438948  
  9750.000000   2432697   2430093   2431256   2435560   2441772  
  9740.000000   2448332   2453836   2457380   2458799   2458618  
  9730.000000   2457738   2457129   2457387   2458686   2460708  
  9720.000000   2462961   2464969   2466483   2467543   2468306  
  9710.000000   2469006   2469689   2470327   2470763   2470890  
  9700.000000   2470691   2470216   2469530   2468570   2467091  
  9690.000000   2464737   2461126   2456149   2450035   2443498  
  9680.000000   2437536   2433203   2431270   2431957   2434818  
  9670.000000   2438803   2442500   2444493   2443755   2439919  
  9660.000000   2433471   2425584   2417920   2412087   2409280  
  9650.000000   2409831   2413186   2418002   2422637   2425656  
  9640.000000   2426308   2424759   2421953   2419278   2418037  
  9630.000000   2419029   2422348   2427393   2433202   2438718  
  9620.000000   2443125   2445936   2446985   2446367   2444329  
  9610.000000   2441285   2437799   2434565   2432318   2431613  
  9600.000000   2432630   2435005   2437874   2440131   2440789  
  9590.000000   2439424   2436292   2432333   2428733   2426564  
  9580.000000   2426341   2427982   2430878   2434244   2437365  
  9570.000000   2439804   2441369   2441995   2441600   2439997  
  9560.000000   2437014   2432580   2426952   2420652   2414388  
  9550.000000   2408773   2404117   2400411   2397399   2394927  
  9540.000000   2393041   2392149   2392734   2395158   2399280  
  9530.000000   2404382   2409303   2412768   2413911   2412478  
  9520.000000   2408984   2404331   2399497   2395092   2391265  
  9510.000000   2387802   2384418   2381062   2378025   2375862  
  9500.000000   2375085   2375913   2378056   2380807   2383252  
  9490.000000   2384620   2384565   2383221   2381141   2378978  
  9480.000000   2377304   2376394   2376293   2376872   2377987  
  9470.000000   2379503   2381298   2383189   2384901   2386123  
  9460.000000   2386611   2386328   2385492   2384536   2383944  
  9450.000000   2384067   2384973   2386430   2388002   2389265  
  9440.000000   2389971   2390149   2390016   2389830   2389689  
  9430.000000   2389496   2388978   2387882   2386097   2383784  
  9420.000000   2381312   2379174   2377744   2377175   2377276  
  9410.000000   2377628   2377719   2377148   2375749   2373600  
  9400.000000   2370953   2368072   2365130   2362148   2359068  
  9390.000000   2355846   2352591   2349562   2347153   2345728  
  9380.000000   2345500   2346411   2348088   2349948   2351341  
  9370.000000   2351820   2351281   2350035   2348654   2347778  
  9360.000000   2347858   2349012   2350970   2353143   2354825  
  9350.000000   2355360   2354369   2351764   2347765   2342740  
  9340.000000   2337132   2331351   2325786   2320807   2316775  
  9330.000000   2314016   2312727   2312938   2314425   2316797  
  9320.000000   2319551   2322240   2324579   2326481   2328046  
  9310.000000   2329379   2330545   2331439   2331903   2331749  
  9300.000000   2330920   2329520   2327827   2326212   2324995  
  9290.000000   2324380   2324352   2324765   2325362   2325899  
  9280.000000   2326166   2326008   2325320   2324026   2322130  
  9270.000000   2319724   2317020   2314321   2311934   2310115  
  9260.000000   2308965   2308471   2308508   2308966   2309763  
  9250.000000   2310899   2312351   2313988   2315499   2316386  
  9240.000000   2316149   2314394   2311092   2306564   2301486  
  9230.000000   2296628   2292646   2289885   2288314   2287675  
  9220.000000   2287614   2287935   2288621   2289834   2291729  
  9210.000000   2294301   2297299   2300222   2302505   2303620  
  9200.000000   2303324   2301642   2298926   2295654   2292352  
  9190.000000   2289475   2287380   2286327   2286430   2287677  
  9180.000000   2289850   2292586   2295371   2297684   2299106  
  9170.000000   2299479   2298946   2297875   2296722   2295845  
  9160.000000   2295403   2295305   2295286   2295054   2294449  
  9150.000000   2293522   2292480   2291597   2291038   2290825  
  9140.000000   2290768   2290600   2290056   2289035   2287651  
  9130.000000   2286200   2285046   2284480   2284583   2285195  
  9120.000000   2285926   2286302   2285903   2284517   2282207  
  9110.000000   2279301   2276310   2273755   2272030   2271245  
  9100.000000   2271228   2271532   2271618   2271001   2269447  
  9090.000000   2267032   2264144   2261360   2259303   2258433  
  9080.000000   2258960   2260748   2263421   2266428   2269225  
  9070.000000   2271384   2272681   2273147   2273004   2272648  
  9060.000000   2272508   2272982   2274320   2276550   2279455  
  9050.000000   2282589   2285360   2287148   2287426   2285916  
  9040.000000   2282662   2278043   2272702   2267404   2262873  
  9030.000000   2259623   2257815   2257285   2257554   2258060  
  9020.000000   2258267   2257921   2257083   2256132   2255581  
  9010.000000   2255838   2257031   2258842   2260638   2261580  
  9000.000000   2261027   2258695   2254901   2250416   2246270  
  8990.000000   2243399   2242329   2243080   2245154   2247847  
  8980.000000   2250446   2252558   2254125   2255426   2256825  
  8970.000000   2258558   2260572   2262493   2263798   2263904  
  8960.000000   2262426   2259218   2254502   2248731   2242511  
  8950.000000   2236514   2231380   2227676   2225745   2225717  
  8940.000000   2227419   2230421   2234060   2237617   2240500  
  8930.000000   2242380   2243251   2243356   2243103   2242842  
  8920.000000   2242793   2242947   2243179   2243320   2243294  
  8910.000000   2243152   2243051   2243163   2243550   2244120  
  8900.000000   2244619   2244743   2244228   2242980   2241088  
  8890.000000   2238828   2236578   2234729   2233586   2233316  
  8880.000000   2233921   2235252   2237018   2238830   2240256  
  8870.000000   2240900   2240526   2239102   2236868   2234253  
  8860.000000   2231800   2229988   2229103   2229156   2229894  
  8850.000000   2230949   2231965   2232774   2233398   2234050  
  8840.000000   2234964   2236285   2237943   2239658   2241016  
  8830.000000   2241603   2241170   2239695   2237430   2234770  
  8820.000000   2232148   2229895   2228174   2226967   2226112  
  8810.000000   2225397   2224646   2223779   2222833   2221940  
  8800.000000   2221278   2221025   2221301   2222136   2223459  
  8790.000000   2225104   2226863   2228526   2229949   2231087  
  8780.000000   2232002   2232819   2233655   2234556   2235458  
  8770.000000   2236199   2236582   2236453   2235774   2234644  
  8760.000000   2233249   2231809   2230467   2229281   2228196  
  8750.000000   2227137   2226066   2225043   2224212   2223721  
  8740.000000   2223639   2223880   2224220   2224357   2224058  
  8730.000000   2223248   2222092   2220931   2220178   2220155  
  8720.000000   2220981   2222541   2224547   2226657   2228606  
  8710.000000   2230252   2231586   2232652   2233469   2233990  
  8700.000000   2234115   2233775   2233007   2232007   2231091  
  8690.000000   2230592   2230727   2231509   2232712   2233953  
  8680.000000   2234802   2234931   2234208   2232729   2230760  
  8670.000000   2228645   2226712   2225219   2224336   2224158  
  8660.000000   2224703   2225904   2227600   2229528   2231367  
  8650.000000   2232793   2233579   2233633   2233072   2232138  
  8640.000000   2231166   2230427   2230085   2230158   2230572  
  8630.000000   2231233   2232078   2233135   2234484   2236219  
  8620.000000   2238346   2240755   2243204   2245379   2246983  
  8610.000000   2247808   2247831   2247174   2246107   2244937  
  8600.000000   2243952   2243334   2243130   2243271   2243607  
  8590.000000   2244003   2244380   2244776   2245321   2246202  
  8580.000000   2247566   2249443   2251690   2254005   2256012  
  8570.000000   2257371   2257912   2257701   2257038   2256371  
  8560.000000   2256137   2256638   2257925   2259805   2261903  
  8550.000000   2263794   2265134   2265734   2265590   2264833  
  8540.000000   2263657   2262265   2260815   2259432   2258218  
  8530.000000   2257290   2256780   2256818   2257482   2258751  
  8520.000000   2260477   2262387   2264136   2265379   2265869  
  8510.000000   2265516   2264436   2262923   2261406   2260338  
  8500.000000   2260081   2260820   2262499   2264843   2267423  
  8490.000000   2269774   2271529   2272475   2272603   2272045  
  8480.000000   2271028   2269768   2268441   2267150   2265987  
  8470.000000   2265059   2264520   2264551   2265283   2266765  
  8460.000000   2268875   2271356   2273827   2275923   2277391  
  8450.000000   2278157   2278335   2278156   2277890   2277731  
  8440.000000   2277744   2277860   2277934   2277824   2277462  
  8430.000000   2276888   2276230   2275668   2275332   2275273  
  8420.000000   2275413   2275595   2275632   2275388   2274835  
  8410.000000   2274064   2273270   2272665   2272403   2272520  
  8400.000000   2272920   2273412   2273778   2273864   2273633  
  8390.000000   2273181   2272681   2272332   2272262   2272494  
  8380.000000   2272932   2273406   2273750   2273840   2273638  
  8370.000000   2273157   2272449   2271558   2270509   2269322  
  8360.000000   2268036   2266752   2265624   2264853   2264592  
  8350.000000   2264916   2265760   2266956   2268252   2269390  
  8340.000000   2270166   2270446   2270197   2269425   2268178  
  8330.000000   2266488   2264422   2262081   2259634   2257312  
  8320.000000   2255363   2254019   2253413   2253575   2254384  
  8310.000000   2255638   2257080   2258465   2259605   2260362  
  8300.000000   2260669   2260489   2259832   2258737   2257301  
  8290.000000   2255670   2254039   2252628   2251641   2251223  
  8280.000000   2251400   2252082   2253037   2253984   2254611  
  8270.000000   2254692   2254110   2252931   2251373   2249760  
  8260.000000   2248411   2247541   2247186   2247185   2247224  
  8250.000000   2246927   2245983   2244262   2241864   2239095  
  8240.000000   2236364   2234058   2232425   2231523   2231214  
  8230.000000   2231247   2231345   2231315   2231097   2230758  
  8220.000000   2230440   2230271   2230319   2230537   2230787  
  8210.000000   2230860   2230555   2229736   2228391   2226659  
  8200.000000   2224784   2223090   2221874   2221360   2221600  
  8190.000000   2222467   2223645   2224706   2225204   2224792  
  8180.000000   2223315   2220841   2217648   2214132   2210717  
  8170.000000   2207737   2205371   2203634   2202404   2201523  
  8160.000000   2200849   2200335   2199998   2199905   2200088  
  8150.000000   2200496   2200964   2201227   2201001   2200060  
  8140.000000   2198349   2196002   2193339   2190767   2188662  
  8130.000000   2187266   2186604   2186498   2186624   2186627  
  8120.000000   2186223   2185284   2183841   2182049   2180106  
  8110.000000   2178182   2176371   2174695   2173142   2171698  
  8100.000000   2170395   2169294   2168457   2167901   2167555  
  8090.000000   2167268   2166841   2166100   2164960   2163461  
  8080.000000   2161763   2160086   2158643   2157567   2156883  
  8070.000000   2156501   2156267   2155999   2155550   2154816  
  8060.000000   2153766   2152420   2150852   2149175   2147539  
  8050.000000   2146112   2145047   2144455   2144355   2144672  
  8040.000000   2145227   2145805   2146193   2146259   2145971  
  8030.000000   2145390   2144634   2143794   2142903   2141896  
  8020.000000   2140661   2139073   2137083   2134742   2132215  
  8010.000000   2129741   2127554   2125848   2124700   2124108  
  8000.000000   2123981   2124210   2124673   2125268   2125898  
  7990.000000   2126457   2126837   2126915   2126607   2125864  
  7980.000000   2124722   2123260   2121607   2119879   2118178  
  7970.000000   2116566   2115086   2113786   2112716   2111945  
  7960.000000   2111502   2111380   2111492   2111701   2111852  
  7950.000000   2111825   2111583   2111158   2110645   2110120  
  7940.000000   2109614   2109070   2108392   2107485   2106333  
  7930.000000   2105029   2103758   2102745   2102150   2102019  
  7920.000000   2102249   2102641   2102971   2103080   2102923  
  7910.000000   2102562   2102114   2101669   2101251   2100790  
  7900.000000   2100183   2099345   2098280   2097090   2095949  
  7890.000000   2095041   2094491   2094324   2094466   2094783  
  7880.000000   2095135   2095417   2095573   2095594   2095482  
  7870.000000   2095251   2094915   2094512   2094116   2093828  
  7860.000000   2093750   2093924   2094301   2094718   2094937  
  7850.000000   2094715   2093888   2092440   2090516   2088388  
  7840.000000   2086373   2084745   2083661   2083147   2083094  
  7830.000000   2083333   2083664   2083930   2084022   2083898  
  7820.000000   2083564   2083066   2082467   2081835   2081227  
  7810.000000   2080669   2080162   2079662   2079111   2078443  
  7800.000000   2077617   2076626   2075494   2074279   2073043  
  7790.000000   2071852   2070761   2069820   2069074   2068558  
  7780.000000   2068287   2068236   2068333   2068461   2068481  
  7770.000000   2068279   2067790   2067043   2066145   2065262  
  7760.000000   2064560   2064165   2064113   2064344   2064708  
  7750.000000   2065006   2065031   2064610   2063647   2062132  
  7740.000000   2060154   2057883   2055538   2053348   2051497  
  7730.000000   2050099   2049164   2048627   2048361   2048243  
  7720.000000   2048169   2048094   2048002   2047897   2047762  
  7710.000000   2047548   2047187   2046611   2045793   2044753  
  7700.000000   2043574   2042354   2041185   2040112   2039131  
  7690.000000   2038192   2037236   2036222   2035141   2034019  
  7680.000000   2032898   2031821   2030818   2029916   2029146  
  7670.000000   2028552   2028183   2028076   2028223   2028550  
  7660.000000   2028930   2029199   2029214   2028890   2028236  
  7650.000000   2027336   2026329   2025338   2024447   2023668  
  7640.000000   2022965   2022277   2021563   2020831   2020136  
  7630.000000   2019564   2019196   2019075   2019186   2019458  
  7620.000000   2019795   2020094   2020285   2020339   2020274  
  7610.000000   2020142   2020012   2019940   2019960   2020069  
  7600.000000   2020231   2020382   2020456   2020394   2020159  
  7590.000000   2019751   2019199   2018563   2017911   2017314  
  7580.000000   2016827   2016476   2016260   2016142   2016067  
  7570.000000   2015956   2015741   2015367   2014828   2014159  
  7560.000000   2013446   2012792   2012301   2012043   2012041  
  7550.000000   2012262   2012640   2013096   2013565   2014014  
  7540.000000   2014444   2014873   2015329   2015818   2016335  
  7530.000000   2016848   2017325   2017727   2018031   2018219  
  7520.000000   2018293   2018266   2018170   2018055   2017988  
  7510.000000   2018039   2018263   2018688   2019303   2020066  
  7500.000000   2020918   2021800   2022683   2023555   2024428  
  7490.000000   2025297   2026143   2026906   2027523   2027942  
  7480.000000   2028166   2028258   2028345   2028573   2029069  
  7470.000000   2029897   2031033   2032374   2033776   2035096  
  7460.000000   2036238   2037168   2037924   2038575   2039212  
  7450.000000   2039895   2040658   2041490   2042369   2043263  
  7440.000000   2044162   2045076   2046043   2047113   2048328  
  7430.000000   2049710   2051244   2052878   2054537   2056145  
  7420.000000   2057654   2059059   2060404   2061758   2063196  
  7410.000000   2064753   2066414   2068103   2069713   2071133  
  7400.000000   2072301   2073214   2073936   2074574   2075248  
  7390.000000   2076059   2077061   2078267   2079656   2081190  
  7380.000000   2082825   2084523   2086245   2087960   2089635  
  7370.000000   2091248   2092785   2094247   2095642   2096982  
  7360.000000   2098274   2099510   2100678   2101761   2102756  
  7350.000000   2103675   2104542   2105388   2106235   2107093  
  7340.000000   2107956   2108824   2109706   2110641   2111677  
  7330.000000   2112869   2114248   2115806   2117485   2119191  
  7320.000000   2120822   2122288   2123535   2124553   2125373  
  7310.000000   2126055   2126672   2127298   2127994   2128806  
  7300.000000   2129752   2130827   2131996   2133204   2134379  
  7290.000000   2135453   2136371   2137112   2137680   2138105  
  7280.000000   2138428   2138694   2138940   2139200   2139504  
  7270.000000   2139882   2140360   2140958   2141677   2142494  
  7260.000000   2143365   2144228   2145024   2145702   2146248  
  7250.000000   2146669   2147011   2147324   2147674   2148104  
  7240.000000   2148651   2149313   2150083   2150928   2151830  
  7230.000000   2152768   2153754   2154806   2155968   2157270  
  7220.000000   2158748   2160399   2162218   2164167   2166222  
  7210.000000   2168351   2170549   2172809   2175141   2177534  
  7200.000000   2179989   2182481   2185008   2187561   2190159  
  7190.000000   2192809   2195527   2198296   2201093   2203875  
  7180.000000   2206623   2209339   2212071   2214882   2217849  
  7170.000000   2220997   2224320   2227737   2231159   2234486  
  7160.000000   2237690   2240788   2243874   2247049   2250426  
  7150.000000   2254063   2257995   2262197   2266639   2271260  
  7140.000000   2276019   2280850   2285711   2290537   2295302  
  7130.000000   2299988   2304641   2309321   2314133   2319145  
  7120.000000   2324408   2329885   2335512   2341177   2346802  
  7110.000000   2352333   2357794   2363224   2368699   2374258  
  7100.000000   2379934   2385723   2391635   2397677   2403890  
  7090.000000   2410304   2416945   2423785   2430765   2437782  
  7080.000000   2444746   2451582   2458280   2464862   2471400  
  7070.000000   2477955   2484580   2491284   2498060   2504880  
  7060.000000   2511730   2518595   2525479   2532380   2539292  
  7050.000000   2546195   2553062   2559872   2566609   2573278  
  7040.000000   2579898   2586501   2593118   2599783   2606515  
  7030.000000   2613318   2620169   2627022   2633802   2640433  
  7020.000000   2646842   2652992   2658882   2664558   2670079  
  7010.000000   2675522   2680927   2686329   2691721   2697109  
  7000.000000   2702482   2707860   2713242   2718634   2723988  
  6990.000000   2729252   2734333   2739171   2743720   2747999  
  6980.000000   2752052   2755957   2759766   2763518   2767199  
  6970.000000   2770792   2774258   2777594   2780799   2783912  
  6960.000000   2786956   2789967   2792948   2795911   2798844  
  6950.000000   2801751   2804621   2807453   2810224   2812923  
  6940.000000   2815528   2818044   2820478   2822861   2825205  
  6930.000000   2827510   2829737   2831838   2833759   2835489  
  6920.000000   2837054   2838540   2840039   2841640   2843364  
  6910.000000   2845179   2846991   2848697   2850206   2851483  
  6900.000000   2852534   2853416   2854186   2854906   2855612  
  6890.000000   2856338   2857107   2857945   2858861   2859850  
  6880.000000   2860867   2861857   2862750   2863515   2864164  
  6870.000000   2864767   2865417   2866198   2867139   2868205  
  6860.000000   2869302   2870316   2871159   2871796   2872258  
  6850.000000   2872619   2872961   2873349   2873807   2874337  
  6840.000000   2874925   2875572   2876281   2877063   2877904  
  6830.000000   2878766   2879574   2880251   2880728   2880975  
  6820.000000   2881002   2880852   2880575   2880221   2879829  
  6810.000000   2879433   2879069   2878790   2878637   2878642  
  6800.000000   2878789   2879031   2879283   2879470   2879543  
  6790.000000   2879512   2879421   2879336   2879297   2879299  
  6780.000000   2879280   2879154   2878845   2878322   2877616  
  6770.000000   2876804   2875979   2875217   2874544   2873951  
  6760.000000   2873396   2872845   2872278   2871704   2871139  
  6750.000000   2870603   2870095   2869601   2869100   2868582  
  6740.000000   2868054   2867540   2867066   2866651   2866292  
  6730.000000   2865969   2865646   2865288   2864863   2864353  
  6720.000000   2863744   2863035   2862229   2861344   2860405  
  6710.000000   2859454   2858521   2857633   2856786   2855963  
  6700.000000   2855127   2854260   2853355   2852433   2851519  
  6690.000000   2850630   2849746   2848814   2847757   2846511  
  6680.000000   2845047   2843399   2841648   2839904   2838258  
  6670.000000   2836766   2835422   2834190   2833013   2831857  
  6660.000000   2830709   2829583   2828490   2827423   2826335  
  6650.000000   2825165   2823844   2822334   2820640   2818812  
  6640.000000   2816925   2815056   2813253   2811534   2809878  
  6630.000000   2808251   2806612   2804938   2803217   2801458  
  6620.000000   2799678   2797904   2796157   2794457   2792808  
  6610.000000   2791203   2789612   2787996   2786310   2784528  
  6600.000000   2782646   2780690   2778707   2776748   2774846  
  6590.000000   2773012   2771226   2769457   2767672   2765860  
  6580.000000   2764028   2762199   2760399   2758643   2756931  
  6570.000000   2755248   2753576   2751897   2750203   2748492  
  6560.000000   2746762   2745009   2743228   2741418   2739590  
  6550.000000   2737766   2735982   2734271   2732661   2731154  
  6540.000000   2729739   2728390   2727078   2725778   2724470  
  6530.000000   2723139   2721771   2720353   2718881   2717364  
  6520.000000   2715834   2714337   2712925   2711635   2710479  
  6510.000000   2709429   2708440   2707455   2706435   2705368  
  6500.000000   2704274   2703191   2702159   2701198   2700310  
  6490.000000   2699473   2698660   2697844   2697006   2696137  
  6480.000000   2695229   2694273   2693262   2692192   2691072  
  6470.000000   2689926   2688790   2687697   2686670   2685713  
  6460.000000   2684808   2683933   2683065   2682195   2681323  
  6450.000000   2680457   2679599   2678745   2677877   2676978  
  6440.000000   2676039   2675065   2674075   2673090   2672128  
  6430.000000   2671185   2670247   2669289   2668295   2667262  
  6420.000000   2666209   2665166   2664166   2663234   2662383  
  6410.000000   2661614   2660928   2660325   2659810   2659386  
  6400.000000   2659046   2658773   2658535   2658302   2658047  
  6390.000000   2657762   2657453   2657129   2656802   2656466  
  6380.000000   2656102   2655679   2655166   2654548   2653825  
  6370.000000   2653020   2652166   2651304   2650466   2649682  
  6360.000000   2648965   2648326   2647757   2647248   2646770  
  6350.000000   2646289   2645763   2645157   2644445   2643623  
  6340.000000   2642703   2641717   2640705   2639711   2638768  
  6330.000000   2637902   2637116   2636405   2635734   2635068  
  6320.000000   2634359   2633573   2632687   2631704   2630641  
  6310.000000   2629527   2628379   2627204   2625984   2624701  
  6300.000000   2623336   2621895   2620401   2618902   2617429  
  6290.000000   2616004   2614608   2613205   2611740   2610180  
  6280.000000   2608512   2606761   2604966   2603168   2601383  
  6270.000000   2599605   2597802   2595947   2594020   2592035  
  6260.000000   2590022   2588025   2586068   2584157   2582268  
  6250.000000   2580370   2578431   2576438   2574397   2572329  
  6240.000000   2570254   2568186   2566122   2564052   2561961  
  6230.000000   2559845   2557706   2555560   2553420   2551300  
  6220.000000   2549204   2547133   2545081   2543040   2541001  
  6210.000000   2538949   2536872   2534756   2532603   2530425  
  6200.000000   2528254   2526127   2524080   2522128   2520262  
  6190.000000   2518447   2516641   2514802   2512915   2510989  
  6180.000000   2509055   2507153   2505321   2503576   2501922  
  6170.000000   2500347   2498837   2497375   2495944   2494521  
  6160.000000   2493078   2491582   2490004   2488330   2486569  
  6150.000000   2484747   2482909   2481093   2479327   2477616  
  6140.000000   2475953   2474324   2472726   2471165   2469661  
  6130.000000   2468230   2466882   2465603   2464371   2463153  
  6120.000000   2461930   2460690   2459447   2458215   2457020  
  6110.000000   2455872   2454779   2453735   2452740   2451790  
  6100.000000   2450890   2450036   2449233   2448468   2447739  
  6090.000000   2447040   2446380   2445771   2445238   2444792  
  6080.000000   2444444   2444178   2443980   2443824   2443700  
  6070.000000   2443599   2443531   2443499   2443515   2443570  
  6060.000000   2443663   2443783   2443939   2444139   2444415  
  6050.000000   2444786   2445275   2445882   2446605   2447423  
  6040.000000   2448324   2449291   2450325   2451419   2452580  
  6030.000000   2453796   2455067   2456380   2457736   2459130  
  6020.000000   2460566   2462041   2463554   2465091   2466649  
  6010.000000   2468214   2469794   2471387   2473003   2474638  
  6000.000000   2476284   2477919   2479530   2481105   2482659  
  5990.000000   2484215   2485817   2487496   2489277   2491157  
  5980.000000   2493122   2495144   2497207   2499298   2501429  
  5970.000000   2503610   2505861   2508187   2510592   2513064  
  5960.000000   2515598   2518177   2520795   2523427   2526055  
  5950.000000   2528649   2531192   2533676   2536123   2538569  
  5940.000000   2541071   2543674   2546407   2549271   2552237  
  5930.000000   2555265   2558310   2561348   2564368   2567370  
  5920.000000   2570354   2573311   2576212   2579022   2581703  
  5910.000000   2584228   2586594   2588811   2590908   2592920  
  5900.000000   2594883   2596837   2598816   2600861   2603001  
  5890.000000   2605260   2607638   2610122   2612674   2615256  
  5880.000000   2617822   2620345   2622805   2625190   2627492  
  5870.000000   2629698   2631796   2633771   2635625   2637374  
  5860.000000   2639060   2640727   2642430   2644209   2646091  
  5850.000000   2648086   2650196   2652415   2654739   2657162  
  5840.000000   2659678   2662273   2664929   2667624   2670332  
  5830.000000   2673032   2675705   2678335   2680914   2683436  
  5820.000000   2685902   2688322   2690708   2693076   2695431  
  5810.000000   2697769   2700062   2702283   2704388   2706369  
  5800.000000   2708218   2709981   2711682   2713381   2715075  
  5790.000000   2716769   2718397   2719902   2721184   2722173  
  5780.000000   2722774   2722935   2722592   2721730   2720344  
  5770.000000   2718497   2716273   2713814   2711255   2708737  
  5760.000000   2706341   2704123   2702072   2700175   2698400  
  5750.000000   2696741   2695199   2693790   2692524   2691394  
  5740.000000   2690381   2689451   2688582   2687750   2686960  
  5730.000000   2686208   2685504   2684840   2684215   2683617  
  5720.000000   2683055   2682534   2682079   2681698   2681397  
  5710.000000   2681155   2680949   2680747   2680541   2680337  
  5700.000000   2680161   2680040   2679992   2680014   2680083  
  5690.000000   2680173   2680258   2680335   2680409   2680500  
  5680.000000   2680609   2680729   2680821   2680841   2680736  
  5670.000000   2680469   2680011   2679352   2678479   2677392  
  5660.000000   2676089   2674591   2672931   2671174   2669389  
  5650.000000   2667649   2665995   2664447   2662986   2661591  
  5640.000000   2660233   2658913   2657643   2656449   2655347  
  5630.000000   2654332   2653381   2652450   2651504   2650520  
  5620.000000   2649502   2648469   2647448   2646454   2645494  
  5610.000000   2644562   2643653   2642770   2641930   2641151  
  5600.000000   2640446   2639810   2639210   2638601   2637933  
  5590.000000   2637171   2636303   2635341   2634310   2633241  
  5580.000000   2632151   2631049   2629930   2628788   2627617  
  5570.000000   2626420   2625198   2623958   2622703   2621439  
  5560.000000   2620169   2618904   2617650   2616414   2615191  
  5550.000000   2613970   2612736   2611476   2610185   2608877  
  5540.000000   2607575   2606308   2605098   2603952   2602863  
  5530.000000   2601813   2600782   2599754   2598723   2597690  
  5520.000000   2596655   2595616   2594564   2593493   2592395  
  5510.000000   2591275   2590138   2588996   2587855   2586719  
  5500.000000   2585581   2584438   2583285   2582126   2580960  
  5490.000000   2579785   2578584   2577336   2576009   2574587  
  5480.000000   2573062   2571455   2569796   2568129   2566479  
  5470.000000   2564861   2563260   2561655   2560009   2558300  
  5460.000000   2556506   2554622   2552645   2550582   2548444  
  5450.000000   2546256   2544050   2541869   2539753   2537725  
  5440.000000   2535790   2533929   2532118   2530332   2528563  
  5430.000000   2526810   2525088   2523395   2521730   2520067  
  5420.000000   2518400   2516724   2515078   2513513   2512105  
  5410.000000   2510897   2509913   2509119   2508472   2507907  
  5400.000000   2507401   2506938   2506549   2506249   2506070  
  5390.000000   2506000   2506038   2506154   2506361   2506666  
  5380.000000   2507125   2507765   2508629   2509698   2510964  
  5370.000000   2512369   2513899   2515510   2517223   2519023  
  5360.000000   2520950   2522988   2525187   2527542   2530138  
  5350.000000   2533005   2536253   2539905   2544033   2548594  
  5340.000000   2553606   2558989   2564773   2570913   2577480  
  5330.000000   2584447   2591881   2599725   2608025   2616715  
  5320.000000   2625876   2635491   2645697   2656505   2668052  
  5310.000000   2680304   2693337   2707058   2721512   2736610  
  5300.000000   2752428   2768928   2786237   2804350   2823403  
  5290.000000   2843371   2864327   2886161   2908842   2932195  
  5280.000000   2956166   2980641   3005677   3031291   3057631  
  5270.000000   3084732   3112623   3141159   3170139   3199291  
  5260.000000   3228394   3257325   3286079   3314748   3343404  
  5250.000000   3372091   3400682   3429003   3456744   3483717  
  5240.000000   3509721   3534798   3558965   3582425   3605235  
  5230.000000   3627538   3649251   3670367   3690689   3710178  
  5220.000000   3728685   3746288   3762966   3778905   3794136  
  5210.000000   3808829   3822931   3836490   3849333   3861435  
  5200.000000   3872631   3882974   3892417   3901119   3909091  
  5190.000000   3916476   3923221   3929381   3934847   3939653  
  5180.000000   3943729   3947170   3949965   3952234   3953953  
  5170.000000   3955199   3955917   3956165   3955902   3955214  
  5160.000000   3954087   3952607   3950745   3948549   3945966  
  5150.000000   3943032   3939714   3936071   3932094   3927845  
  5140.000000   3923306   3918514   3913443   3908132   3902583  
  5130.000000   3896860   3890986   3885019   3878957   3872819  
  5120.000000   3866576   3860231   3853766   3847207   3840569  
  5110.000000   3833894   3827204   3820532   3813891   3807304  
  5100.000000   3800779   3794332   3787963   3781672   3775440  
  5090.000000   3769253   3763091   3756950   3750831   3744745  
  5080.000000   3738699   3732692   3726704   3720708   3714668  
  5070.000000   3708562   3702374   3696115   3689797   3683443  
  5060.000000   3677060   3670656   3664219   3657744   3651221  
  5050.000000   3644655   3638049   3631415   3624754   3618069  
  5040.000000   3611348   3604586   3597775   3590920   3584031  
  5030.000000   3577128   3570238   3563383   3556591   3549877  
  5020.000000   3543260   3536747   3530351   3524066   3517904  
  5010.000000   3511854   3505928   3500120   3494450   3488917  
  5000.000000   3483553   3478352   3473350   3468537   3463946  
  4990.000000   3459561   3455420   3451507   3447863   3444474  
  4980.000000   3441382   3438572   3436085   3433903   3432070  
  4970.000000   3430563   3429424   3428623   3428198   3428112  
  4960.000000   3428405   3429044   3430074   3431468   3433274  
  4950.000000   3435455   3438042   3440980   3444282   3447884  
  4940.000000   3451803   3455990   3460482   3465249   3470337  
  4930.000000   3475716   3481430   3487447   3493804   3500476  
  4920.000000   3507500   3514851   3522555   3530573   3538910  
  4910.000000   3547511   3556366   3565423   3574672   3584079  
  4900.000000   3593641   3603337   3613169   3623126   3633203  
  4890.000000   3643385   3653642   3663934   3674194   3684359  
  4880.000000   3694345   3704100   3713562   3722721   3731545  
  4870.000000   3740049   3748205   3756026   3763475   3770564  
  4860.000000   3777266   3783613   3789597   3795269   3800622  
  4850.000000   3805704   3810504   3815067   3819391   3823528  
  4840.000000   3827489   3831325   3835037   3838654   3842158  
  4830.000000   3845561   3848843   3852022   3855098   3858099  
  4820.000000   3861035   3863933   3866796   3869639   3872456  
  4810.000000   3875255   3878025   3880766   3883464   3886114  
  4800.000000   3888705   3891239   3893721   3896172   3898606  
  4790.000000   3901044   3903491   3905949   3908399   3910827  
  4780.000000   3913208   3915533   3917784   3919965   3922066  
  4770.000000   3924095   3926039   3927906   3929685   3931381  
  4760.000000   3932981   3934489   3935883   3937161   3938296  
  4750.000000   3939287   3940117   3940799   3941327   3941727  
  4740.000000   3941998   3942164   3942223   3942188   3942053  
  4730.000000   3941825   3941494   3941065   3940531   3939905  
  4720.000000   3939194   3938422   3937609   3936784   3935964  
  4710.000000   3935166   3934395   3933655   3932948   3932282  
  4700.000000   3931670   3931129   3930672   3930308   3930034  
  4690.000000   3929840   3929714   3929637   3929599   3929582  
  4680.000000   3929572   3929543   3929468   3929310   3929046  
  4670.000000   3928657   3928159   3927574   3926959   3926362  
  4660.000000   3925840   3925427   3925158   3925043   3925100  
  4650.000000   3925333   3925755   3926369   3927175   3928159  
  4640.000000   3929300   3930566   3931929   3933357   3934829  
  4630.000000   3936321   3937817   3939293   3940722   3942074  
  4620.000000   3943321   3944437   3945401   3946200   3946825  
  4610.000000   3947278   3947560   3947692   3947692   3947601  
  4600.000000   3947450   3947287   3947131   3947011   3946919  
  4590.000000   3946852   3946779   3946687   3946538   3946323  
  4580.000000   3946011   3945597   3945060   3944403   3943619  
  4570.000000   3942725   3941724   3940637   3939462   3938203  
  4560.000000   3936842   3935367   3933756   3932009   3930126  
  4550.000000   3928130   3926046   3923906   3921733   3919545  
  4540.000000   3917352   3915159   3912975   3910805   3908670  
  4530.000000   3906578   3904559   3902618   3900785   3899060  
  4520.000000   3897479   3896038   3894781   3893700   3892846  
  4510.000000   3892207   3891845   3891757   3892026   3892657  
  4500.000000   3893748   3895295   3897390   3900009   3903232  
  4490.000000   3907027   3911479   3916566   3922379   3928898  
  4480.000000   3936203   3944249   3953086   3962646   3972953  
  4470.000000   3983924   3995569   4007791   4020579   4033823  
  4460.000000   4047489   4061465   4075711   4090129   4104682  
  4450.000000   4119294   4133935   4148553   4163134   4177659  
  4440.000000   4192130   4206562   4220954   4235326   4249648  
  4430.000000   4263920   4278071   4292087   4305870   4319403  
  4420.000000   4332578   4345382   4357703   4369527   4380738  
  4410.000000   4391321   4401156   4410231   4418440   4425790  
  4400.000000   4432212   4437760   4442424   4446315   4449482  
  4390.000000   4452074   4454173   4455934   4457441   4458822  
  4380.000000   4460144   4461501   4462940   4464535   4466331  
  4370.000000   4468398   4470794   4473578   4476801   4480491  
  4360.000000   4484658   4489272   4494285   4499619   4505176  
  4350.000000   4510871   4516600   4522326   4527998   4533655  
  4340.000000   4539307   4545011   4550722   4556356   4561660  
  4330.000000   4566303   4569836   4571843   4571979   4570119  
  4320.000000   4566365   4561100   4554860   4548301   4541993  
  4310.000000   4536412   4531792   4528222   4525597   4523772  
  4300.000000   4522547   4521778   4521343   4521164   4521189  
  4290.000000   4521356   4521633   4521965   4522344   4522753  
  4280.000000   4523218   4523764   4524425   4525241   4526229  
  4270.000000   4527421   4528801   4530345   4531943   4533441  
  4260.000000   4534594   4535134   4534779   4533327   4530679  
  4250.000000   4526900   4522184   4516854   4511260   4505761  
  4240.000000   4500615   4496006   4491974   4488496   4485461  
  4230.000000   4482751   4480236   4477812   4475401   4472946  
  4220.000000   4470436   4467856   4465253   4462654   4460146  
  4210.000000   4457785   4455667   4453837   4452357   4451232  
  4200.000000   4450467   4450014   4449839   4449867   4450057  
  4190.000000   4450337   4450693   4451079   4451516   4451980  
  4180.000000   4452517   4453115   4453833   4454672   4455711  
  4170.000000   4456972   4458556   4460500   4462905   4465789  
  4160.000000   4469218   4473162   4477648   4482613   4488072  
  4150.000000   4493963   4500315   4507080   4514303   4521940  
  4140.000000   4530041   4538565   4547567   4557005   4566933  
  4130.000000   4577302   4588148   4599408   4611101   4623169  
  4120.000000   4635642   4648489   4661772   4675495   4689733  
  4110.000000   4704490   4719809   4735647   4751977   4768689  
  4100.000000   4785700   4802882   4820162   4837464   4854783  
  4090.000000   4872125   4889537   4907057   4924716   4942530  
  4080.000000   4960479   4978553   4996700   5014903   5033087  
  4070.000000   5051221   5069198   5086972   5104425   5121534  
  4060.000000   5138213   5154480   5170270   5185612   5200423  
  4050.000000   5214731   5228451   5241640   5254241   5266337  
  4040.000000   5277854   5288839   5299156   5308811   5317655  
  4030.000000   5325725   5332928   5339347   5344921   5349713  
  4020.000000   5353608   5356650   5358784   5360088   5360518  
  4010.000000   5360244   5359366   5357949   5355794   5352984  
  4000.000000   5349838  
##END= 
