##TITLE= Sample 021 By ssteindl date Montag, November 26 2018
##JCAMP-DX= 4.24
##DATA TYPE= INFRARED SPECTRUM
##ORIGIN= Exported PE Spectrum Data File
##OWNER= Sandra Steindl
##DATE= 18/11/26
##TIME= 11:40:49.00
##SPECTROMETER/DATA SYSTEM= PERKIN-ELMER Frontier FT-IR/NIR IR
##INSTRUMENT PARAMETERS=
  APODIZATION=stark
  DETECTOR=INGAAS
##RESOLUTION= 16.000000
##DELTAX= -2.000000
##XUNITS= 1/CM
##YUNITS= A
##XFACTOR= 1.00
##YFACTOR= 0.00000011920928955078
##FIRSTX= 10000.00
##LASTX= 4000.00
##NPOINTS= 3001
##FIRSTY= 0.287151
##MAXY= 0.651958
##MINY= 0.228561
##XYDATA= (X++(Y..Y))
 10000.000000   2408797   2405085   2402125   2400993   2401904  
  9990.000000   2404406   2407961   2412225   2416838   2421586  
  9980.000000   2426474   2431551   2436520   2440645   2442980  
  9970.000000   2442636   2439218   2432949   2424751   2415823  
  9960.000000   2407303   2399873   2393611   2388177   2383043  
  9950.000000   2377964   2373100   2369106   2366781   2366781  
  9940.000000   2369214   2373583   2378844   2383720   2387103  
  9930.000000   2388290   2387273   2384543   2381054   2377748  
  9920.000000   2375396   2374253   2374117   2374381   2374351  
  9910.000000   2373515   2371722   2369293   2366814   2365041  
  9900.000000   2364552   2365672   2368327   2372109   2376401  
  9890.000000   2380481   2383688   2385451   2385387   2383312  
  9880.000000   2379351   2373975   2368000   2362469   2358378  
  9870.000000   2356427   2356730   2358833   2361800   2364633  
  9860.000000   2366520   2367182   2366761   2365723   2364487  
  9850.000000   2363205   2361756   2359772   2357076   2353660  
  9840.000000   2349937   2346330   2343151   2340279   2337244  
  9830.000000   2333529   2328939   2324033   2320034   2318685  
  9820.000000   2321460   2329108   2341068   2355625   2370320  
  9810.000000   2382701   2391097   2394845   2394381   2390581  
  9800.000000   2384457   2376604   2367385   2357028   2346059  
  9790.000000   2335430   2326395   2320270   2317841   2319303  
  9780.000000   2323985   2330831   2338579   2346265   2353321  
  9770.000000   2359511   2364735   2368715   2371028   2371164  
  9760.000000   2368931   2364637   2359215   2353980   2350207  
  9750.000000   2348730   2349580   2352087   2355004   2357057  
  9740.000000   2357216   2355081   2350796   2344975   2338347  
  9730.000000   2331580   2325145   2319325   2314338   2310292  
  9720.000000   2307267   2305142   2303628   2302230   2300372  
  9710.000000   2297615   2293800   2289236   2284643   2281008  
  9700.000000   2279330   2280269   2283976   2289914   2297016  
  9690.000000   2303845   2309017   2311453   2310713   2307001  
  9680.000000   2301179   2294476   2288268   2283700   2281482  
  9670.000000   2281720   2283967   2287396   2291051   2294141  
  9660.000000   2296175   2297113   2297234   2297073   2297148  
  9650.000000   2297840   2299277   2301297   2303611   2305846  
  9640.000000   2307762   2309217   2310179   2310625   2310437  
  9630.000000   2309446   2307460   2304471   2300779   2297034  
  9620.000000   2294134   2292956   2294006   2297204   2301731  
  9610.000000   2306328   2309593   2310567   2309023   2305618  
  9600.000000   2301646   2298575   2297496   2298689   2301510  
  9590.000000   2304605   2306434   2305831   2302421   2296727  
  9580.000000   2289902   2283346   2278179   2274998   2273767  
  9570.000000   2273976   2274928   2275936   2276525   2276416  
  9560.000000   2275482   2273698   2271098   2267869   2264392  
  9550.000000   2261258   2259167   2258700   2260097   2263108  
  9540.000000   2266983   2270703   2273243   2273906   2272512  
  9530.000000   2269406   2265338   2261124   2257431   2254503  
  9520.000000   2252205   2250078   2247632   2244542   2240832  
  9510.000000   2236893   2233354   2230905   2230059   2231020  
  9500.000000   2233613   2237316   2241432   2245215   2248127  
  9490.000000   2249901   2250626   2250643   2250418   2250398  
  9480.000000   2250884   2252007   2253714   2255841   2258155  
  9470.000000   2260429   2262416   2263894   2264589   2264260  
  9460.000000   2262704   2259886   2255983   2251400   2246681  
  9450.000000   2242368   2238835   2236210   2234327   2232862  
  9440.000000   2231425   2229776   2227871   2225917   2224225  
  9430.000000   2223087   2222634   2222782   2223302   2223875  
  9420.000000   2224246   2224234   2223806   2222998   2221901  
  9410.000000   2220592   2219142   2217623   2216145   2214851  
  9400.000000   2213881   2213313   2213109   2213112   2213100  
  9390.000000   2212880   2212381   2211666   2210927   2210336  
  9380.000000   2209999   2209831   2209642   2209175   2208286  
  9370.000000   2207016   2205625   2204519   2204077   2204549  
  9360.000000   2205945   2208097   2210717   2213530   2216313  
  9350.000000   2218903   2221132   2222776   2223553   2223198  
  9340.000000   2221583   2218830   2215348   2211769   2208748  
  9330.000000   2206767   2205930   2205992   2206428   2206695  
  9320.000000   2206373   2205322   2203646   2201619   2199521  
  9310.000000   2197527   2195670   2193885   2192115   2190370  
  9300.000000   2188743   2187352   2186269   2185471   2184845  
  9290.000000   2184244   2183562   2182766   2181907   2181028  
  9280.000000   2180139   2179136   2177878   2176249   2174274  
  9270.000000   2172160   2170235   2168869   2168319   2168659  
  9260.000000   2169728   2171218   2172770   2174081   2174954  
  9250.000000   2175265   2174950   2173938   2172204   2169767  
  9240.000000   2166791   2163551   2160442   2157845   2156045  
  9230.000000   2155117   2154929   2155235   2155777   2156417  
  9220.000000   2157122   2157961   2159007   2160288   2161743  
  9210.000000   2163246   2164663   2165895   2166896   2167638  
  9200.000000   2168062   2168053   2167459   2166171   2164194  
  9190.000000   2161715   2159069   2156611   2154596   2153043  
  9180.000000   2151777   2150477   2148850   2146734   2144185  
  9170.000000   2141492   2139057   2137300   2136497   2136815  
  9160.000000   2138281   2140859   2144391   2148603   2153078  
  9150.000000   2157263   2160559   2162401   2162460   2160694  
  9140.000000   2157425   2153171   2148542   2144027   2139953  
  9130.000000   2136470   2133609   2131423   2129957   2129349  
  9120.000000   2129618   2130723   2132411   2134367   2136271  
  9110.000000   2137890   2139145   2139968   2140319   2139995  
  9100.000000   2138756   2136294   2132495   2127550   2122072  
  9090.000000   2116964   2113161   2111405   2111978   2114677  
  9080.000000   2118820   2123559   2128085   2131858   2134611  
  9070.000000   2136312   2137060   2136980   2136186   2134770  
  9060.000000   2132874   2130715   2128566   2126675   2125161  
  9050.000000   2124010   2123052   2122080   2120854   2119244  
  9040.000000   2117211   2114812   2112133   2109246   2106241  
  9030.000000   2103196   2100251   2097561   2095330   2093702  
  9020.000000   2092751   2092411   2092553   2092993   2093595  
  9010.000000   2094289   2095114   2096161   2097540   2099316  
  9000.000000   2101482   2103960   2106621   2109317   2111906  
  8990.000000   2114249   2116234   2117755   2118734   2119110  
  8980.000000   2118839   2117910   2116339   2114201   2111629  
  8970.000000   2108861   2106205   2104029   2102616   2102128  
  8960.000000   2102471   2103353   2104288   2104802   2104563  
  8950.000000   2103527   2101941   2100239   2098892   2098185  
  8940.000000   2098149   2098505   2098839   2098703   2097836  
  8930.000000   2096215   2094071   2091795   2089796   2088433  
  8920.000000   2087921   2088351   2089668   2091716   2094256  
  8910.000000   2096964   2099466   2101380   2102419   2102438  
  8900.000000   2101499   2099822   2097765   2095677   2093850  
  8890.000000   2092426   2091432   2090820   2090511   2090468  
  8880.000000   2090667   2091121   2091816   2092728   2093780  
  8870.000000   2094896   2095980   2096947   2097721   2098235  
  8860.000000   2098453   2098363   2098008   2097466   2096838  
  8850.000000   2096197   2095548   2094810   2093852   2092558  
  8840.000000   2090900   2089000   2087094   2085495   2084445  
  8830.000000   2084076   2084342   2085077   2086061   2087108  
  8820.000000   2088117   2089036   2089828   2090371   2090504  
  8810.000000   2090024   2088861   2087094   2085026   2083071  
  8800.000000   2081639   2080999   2081179   2082023   2083250  
  8790.000000   2084662   2086188   2087944   2090084   2092683  
  8780.000000   2095593   2098415   2100613   2101658   2101269  
  8770.000000   2099464   2096600   2093212   2089861   2086978  
  8760.000000   2084766   2083256   2082363   2082019   2082188  
  8750.000000   2082875   2084035   2085533   2087116   2088467  
  8740.000000   2089292   2089412   2088836   2087739   2086451  
  8730.000000   2085314   2084643   2084614   2085260   2086458  
  8720.000000   2087973   2089493   2090705   2091356   2091333  
  8710.000000   2090697   2089687   2088647   2087931   2087787  
  8700.000000   2088293   2089332   2090661   2092005   2093161  
  8690.000000   2094068   2094793   2095480   2096236   2097100  
  8680.000000   2097999   2098818   2099448   2099855   2100099  
  8670.000000   2100288   2100531   2100860   2101224   2101490  
  8660.000000   2101512   2101187   2100504   2099549   2098469  
  8650.000000   2097444   2096633   2096178   2096174   2096688  
  8640.000000   2097737   2099280   2101205   2103301   2105305  
  8630.000000   2106924   2107946   2108249   2107872   2106972  
  8620.000000   2105825   2104730   2103976   2103775   2104247  
  8610.000000   2105416   2107204   2109466   2111996   2114574  
  8600.000000   2116986   2119067   2120719   2121913   2122681  
  8590.000000   2123077   2123173   2123041   2122777   2122498  
  8580.000000   2122343   2122462   2122970   2123924   2125260  
  8570.000000   2126827   2128391   2129732   2130678   2131173  
  8560.000000   2131262   2131070   2130751   2130436   2130228  
  8550.000000   2130174   2130289   2130552   2130915   2131309  
  8540.000000   2131631   2131792   2131723   2131454   2131100  
  8530.000000   2130880   2131030   2131736   2133034   2134782  
  8520.000000   2136673   2138330   2139422   2139765   2139376  
  8510.000000   2138447   2137265   2136106   2135153   2134456  
  8500.000000   2133960   2133548   2133131   2132659   2132147  
  8490.000000   2131637   2131173   2130772   2130428   2130144  
  8480.000000   2129966   2129987   2130344   2131161   2132514  
  8470.000000   2134375   2136606   2138982   2141268   2143260  
  8460.000000   2144854   2146030   2146864   2147458   2147919  
  8450.000000   2148312   2148682   2149049   2149442   2149909  
  8440.000000   2150504   2151281   2152242   2153358   2154529  
  8430.000000   2155662   2156666   2157517   2158241   2158904  
  8420.000000   2159562   2160222   2160817   2161217   2161279  
  8410.000000   2160905   2160096   2158976   2157748   2156646  
  8400.000000   2155837   2155407   2155318   2155468   2155717  
  8390.000000   2155964   2156168   2156336   2156488   2156607  
  8380.000000   2156628   2156444   2155953   2155102   2153942  
  8370.000000   2152621   2151367   2150412   2149920   2149953  
  8360.000000   2150438   2151220   2152084   2152843   2153367  
  8350.000000   2153621   2153641   2153509   2153317   2153119  
  8340.000000   2152919   2152652   2152236   2151576   2150629  
  8330.000000   2149403   2147983   2146510   2145143   2144026  
  8320.000000   2143242   2142813   2142700   2142839   2143158  
  8310.000000   2143605   2144139   2144720   2145295   2145782  
  8300.000000   2146094   2146147   2145903   2145377   2144642  
  8290.000000   2143803   2142959   2142192   2141547   2141060  
  8280.000000   2140752   2140653   2140767   2141064   2141443  
  8270.000000   2141739   2141742   2141265   2140219   2138660  
  8260.000000   2136794   2134909   2133288   2132113   2131400  
  8250.000000   2131006   2130680   2130175   2129335   2128163  
  8240.000000   2126790   2125436   2124298   2123502   2123038  
  8230.000000   2122798   2122598   2122263   2121672   2120790  
  8220.000000   2119663   2118384   2117050   2115727   2114426  
  8210.000000   2113106   2111692   2110114   2108347   2106434  
  8200.000000   2104486   2102663   2101119   2099961   2099196  
  8190.000000   2098729   2098379   2097942   2097252   2096240  
  8180.000000   2094949   2093511   2092100   2090866   2089892  
  8170.000000   2089169   2088613   2088091   2087461   2086612  
  8160.000000   2085472   2084035   2082343   2080499   2078636  
  8150.000000   2076914   2075468   2074379   2073628   2073087  
  8140.000000   2072544   2071764   2070564   2068877   2066778  
  8130.000000   2064460   2062171   2060134   2058482   2057230  
  8120.000000   2056296   2055544   2054841   2054101   2053286  
  8110.000000   2052407   2051488   2050560   2049651   2048788  
  8100.000000   2048005   2047328   2046770   2046295   2045821  
  8090.000000   2045222   2044385   2043243   2041825   2040245  
  8080.000000   2038675   2037281   2036162   2035321   2034670  
  8070.000000   2034084   2033454   2032749   2032013   2031357  
  8060.000000   2030892   2030685   2030717   2030888   2031049  
  8050.000000   2031049   2030779   2030191   2029299   2028152  
  8040.000000   2026818   2025362   2023849   2022339   2020895  
  8030.000000   2019569   2018393   2017365   2016442   2015562  
  8020.000000   2014660   2013720   2012775   2011932   2011329  
  8010.000000   2011099   2011307   2011920   2012790   2013683  
  8000.000000   2014338   2014527   2014132   2013157   2011743  
  7990.000000   2010107   2008491   2007082   2005973   2005143  
  7980.000000   2004487   2003867   2003168   2002353   2001462  
  7970.000000   2000608   1999911   1999470   1999307   1999368  
  7960.000000   1999541   1999691   1999708   1999528   1999148  
  7950.000000   1998607   1997968   1997283   1996589   1995891  
  7940.000000   1995181   1994444   1993675   1992882   1992085  
  7930.000000   1991319   1990612   1990002   1989507   1989150  
  7920.000000   1988932   1988849   1988886   1989014   1989201  
  7910.000000   1989396   1989545   1989565   1989381   1988907  
  7900.000000   1988098   1986947   1985526   1983967   1982457  
  7890.000000   1981196   1980349   1980019   1980208   1980842  
  7880.000000   1981778   1982855   1983917   1984842   1985554  
  7870.000000   1986000   1986160   1986014   1985568   1984831  
  7860.000000   1983847   1982682   1981425   1980183   1979058  
  7850.000000   1978151   1977530   1977242   1977280   1977594  
  7840.000000   1978074   1978577   1978942   1979034   1978781  
  7830.000000   1978200   1977397   1976540   1975802   1975315  
  7820.000000   1975119   1975163   1975324   1975455   1975437  
  7810.000000   1975211   1974778   1974184   1973473   1972665  
  7800.000000   1971742   1970671   1969437   1968077   1966688  
  7790.000000   1965420   1964417   1963783   1963520   1963546  
  7780.000000   1963693   1963788   1963686   1963324   1962721  
  7770.000000   1961951   1961104   1960230   1959330   1958353  
  7760.000000   1957237   1955946   1954511   1953028   1951644  
  7750.000000   1950504   1949701   1949253   1949088   1949081  
  7740.000000   1949090   1949014   1948811   1948505   1948167  
  7730.000000   1947873   1947674   1947569   1947515   1947427  
  7720.000000   1947216   1946803   1946144   1945234   1944112  
  7710.000000   1942857   1941576   1940392   1939417   1938731  
  7700.000000   1938353   1938233   1938256   1938274   1938143  
  7690.000000   1937774   1937155   1936357   1935503   1934726  
  7680.000000   1934119   1933706   1933448   1933261   1933066  
  7670.000000   1932813   1932502   1932164   1931843   1931563  
  7660.000000   1931309   1931043   1930719   1930312   1929843  
  7650.000000   1929367   1928963   1928687   1928560   1928539  
  7640.000000   1928542   1928461   1928210   1927745   1927084  
  7630.000000   1926301   1925505   1924815   1924326   1924093  
  7620.000000   1924120   1924357   1924718   1925087   1925349  
  7610.000000   1925403   1925193   1924711   1924007   1923165  
  7600.000000   1922293   1921485   1920810   1920303   1919967  
  7590.000000   1919790   1919757   1919864   1920111   1920498  
  7580.000000   1921006   1921582   1922147   1922590   1922811  
  7570.000000   1922722   1922295   1921552   1920589   1919537  
  7560.000000   1918553   1917785   1917347   1917307   1917675  
  7550.000000   1918408   1919411   1920565   1921741   1922826  
  7540.000000   1923739   1924441   1924943   1925288   1925554  
  7530.000000   1925809   1926114   1926490   1926930   1927392  
  7520.000000   1927833   1928212   1928510   1928737   1928921  
  7510.000000   1929101   1929311   1929573   1929895   1930271  
  7500.000000   1930698   1931169   1931686   1932250   1932865  
  7490.000000   1933521   1934214   1934931   1935668   1936426  
  7480.000000   1937215   1938043   1938926   1939869   1940881  
  7470.000000   1941965   1943131   1944372   1945678   1947008  
  7460.000000   1948312   1949521   1950587   1951490   1952275  
  7450.000000   1953028   1953871   1954910   1956209   1957762  
  7440.000000   1959492   1961286   1963038   1964691   1966253  
  7430.000000   1967785   1969373   1971073   1972889   1974755  
  7420.000000   1976565   1978202   1979592   1980724   1981664  
  7410.000000   1982527   1983443   1984531   1985865   1987472  
  7400.000000   1989325   1991363   1993498   1995639   1997695  
  7390.000000   1999592   2001295   2002800   2004143   2005380  
  7380.000000   2006573   2007767   2008982   2010208   2011424  
  7370.000000   2012618   2013803   2015019   2016318   2017755  
  7360.000000   2019352   2021098   2022943   2024817   2026646  
  7350.000000   2028373   2029959   2031392   2032680   2033843  
  7340.000000   2034914   2035936   2036957   2038024   2039171  
  7330.000000   2040410   2041720   2043059   2044368   2045602  
  7320.000000   2046736   2047780   2048767   2049742   2050743  
  7310.000000   2051792   2052891   2054028   2055190   2056369  
  7300.000000   2057562   2058773   2059997   2061226   2062444  
  7290.000000   2063637   2064791   2065892   2066927   2067877  
  7280.000000   2068715   2069422   2069996   2070464   2070888  
  7270.000000   2071351   2071931   2072675   2073581   2074595  
  7260.000000   2075636   2076622   2077505   2078280   2078989  
  7250.000000   2079687   2080428   2081234   2082107   2083022  
  7240.000000   2083971   2084956   2086011   2087165   2088450  
  7230.000000   2089857   2091366   2092931   2094535   2096170  
  7220.000000   2097880   2099702   2101692   2103854   2106187  
  7210.000000   2108638   2111174   2113756   2116389   2119087  
  7200.000000   2121893   2124830   2127917   2131140   2134486  
  7190.000000   2137923   2141433   2144985   2148557   2152106  
  7180.000000   2155599   2158995   2162285   2165477   2168617  
  7170.000000   2171758   2174964   2178266   2181681   2185181  
  7160.000000   2188739   2192312   2195888   2199465   2203077  
  7150.000000   2206758   2210570   2214560   2218787   2223278  
  7140.000000   2228054   2233086   2238331   2243699   2249119  
  7130.000000   2254501   2259813   2265031   2270195   2275340  
  7120.000000   2280536   2285817   2291230   2296781   2302487  
  7110.000000   2308335   2314327   2320441   2326661   2332950  
  7100.000000   2339292   2345670   2352106   2358623   2365270  
  7090.000000   2372057   2378984   2385993   2393020   2399985  
  7080.000000   2406847   2413597   2420282   2426965   2433723  
  7070.000000   2440601   2447619   2454757   2461983   2469251  
  7060.000000   2476524   2483767   2490948   2498037   2505015  
  7050.000000   2511876   2518638   2525342   2532037   2538767  
  7040.000000   2545549   2552373   2559204   2566007   2572758  
  7030.000000   2579458   2586123   2592771   2599398   2605981  
  7020.000000   2612473   2618842   2625072   2631194   2637256  
  7010.000000   2643319   2649405   2655501   2661532   2667420  
  7000.000000   2673079   2678485   2683648   2688638   2693531  
  6990.000000   2698405   2703294   2708214   2713132   2718015  
  6980.000000   2722808   2727478   2731981   2736305   2740440  
  6970.000000   2744424   2748298   2752140   2755995   2759893  
  6960.000000   2763794   2767628   2771288   2774697   2777810  
  6950.000000   2780662   2783320   2785880   2788400   2790907  
  6940.000000   2793368   2795748   2798009   2800167   2802261  
  6930.000000   2804362   2806507   2808707   2810912   2813056  
  6920.000000   2815066   2816915   2818612   2820213   2821769  
  6910.000000   2823322   2824869   2826385   2827826   2829168  
  6900.000000   2830400   2831541   2832612   2833637   2834621  
  6890.000000   2835573   2836502   2837439   2838416   2839462  
  6880.000000   2840574   2841709   2842788   2843724   2844454  
  6870.000000   2844972   2845336   2845652   2846033   2846566  
  6860.000000   2847279   2848150   2849111   2850094   2851044  
  6850.000000   2851942   2852793   2853614   2854414   2855188  
  6840.000000   2855916   2856570   2857127   2857570   2857895  
  6830.000000   2858113   2858242   2858322   2858399   2858539  
  6820.000000   2858791   2859192   2859726   2860339   2860930  
  6810.000000   2861398   2861652   2861660   2861439   2861061  
  6800.000000   2860617   2860195   2859850   2859600   2859426  
  6790.000000   2859294   2859164   2859006   2858795   2858518  
  6780.000000   2858167   2857745   2857263   2856747   2856228  
  6770.000000   2855738   2855296   2854900   2854531   2854157  
  6760.000000   2853749   2853296   2852807   2852311   2851849  
  6750.000000   2851454   2851149   2850938   2850808   2850736  
  6740.000000   2850693   2850646   2850564   2850423   2850205  
  6730.000000   2849912   2849554   2849158   2848751   2848354  
  6720.000000   2847969   2847589   2847190   2846757   2846277  
  6710.000000   2845754   2845192   2844596   2843956   2843261  
  6700.000000   2842496   2841662   2840775   2839876   2839003  
  6690.000000   2838184   2837413   2836655   2835849   2834941  
  6680.000000   2833892   2832706   2831414   2830074   2828734  
  6670.000000   2827435   2826187   2824988   2823822   2822681  
  6660.000000   2821550   2820425   2819287   2818121   2816907  
  6650.000000   2815639   2814320   2812973   2811613   2810250  
  6640.000000   2808864   2807418   2805866   2804185   2802382  
  6630.000000   2800513   2798654   2796888   2795264   2793787  
  6620.000000   2792411   2791066   2789675   2788191   2786595  
  6610.000000   2784901   2783131   2781306   2779431   2777505  
  6600.000000   2775528   2773510   2771482   2769478   2767530  
  6590.000000   2765650   2763829   2762044   2760269   2758488  
  6580.000000   2756707   2754947   2753239   2751609   2750071  
  6570.000000   2748621   2747241   2745904   2744579   2743232  
  6560.000000   2741833   2740359   2738801   2737165   2735484  
  6550.000000   2733801   2732166   2730613   2729152   2727764  
  6540.000000   2726407   2725038   2723627   2722175   2720713  
  6530.000000   2719291   2717962   2716761   2715696   2714745  
  6520.000000   2713867   2713005   2712104   2711118   2710015  
  6510.000000   2708785   2707437   2706003   2704535   2703091  
  6500.000000   2701724   2700471   2699342   2698322   2697375  
  6490.000000   2696462   2695546   2694605   2693624   2692595  
  6480.000000   2691511   2690364   2689156   2687900   2686629  
  6470.000000   2685386   2684215   2683146   2682182   2681300  
  6460.000000   2680459   2679617   2678744   2677830   2676883  
  6450.000000   2675917   2674945   2673972   2673005   2672051  
  6440.000000   2671134   2670288   2669552   2668944   2668459  
  6430.000000   2668055   2667670   2667235   2666703   2666057  
  6420.000000   2665323   2664545   2663785   2663083   2662465  
  6410.000000   2661931   2661469   2661056   2660675   2660312  
  6400.000000   2659960   2659613   2659271   2658941   2658630  
  6390.000000   2658352   2658114   2657914   2657738   2657562  
  6380.000000   2657360   2657112   2656813   2656472   2656109  
  6370.000000   2655739   2655372   2655006   2654632   2654245  
  6360.000000   2653844   2653440   2653040   2652646   2652246  
  6350.000000   2651816   2651332   2650779   2650158   2649494  
  6340.000000   2648811   2648133   2647464   2646799   2646119  
  6330.000000   2645415   2644690   2643965   2643261   2642593  
  6320.000000   2641943   2641277   2640537   2639680   2638682  
  6310.000000   2637559   2636348   2635104   2633861   2632637  
  6300.000000   2631415   2630172   2628878   2627527   2626124  
  6290.000000   2624691   2623246   2621802   2620355   2618898  
  6280.000000   2617421   2615926   2614416   2612902   2611383  
  6270.000000   2609858   2608311   2606736   2605128   2603497  
  6260.000000   2601857   2600225   2598600   2596974   2595320  
  6250.000000   2593617   2591851   2590027   2588161   2586281  
  6240.000000   2584408   2582554   2580723   2578917   2577134  
  6230.000000   2575384   2573669   2571991   2570335   2568677  
  6220.000000   2566991   2565260   2563482   2561680   2559884  
  6210.000000   2558122   2556406   2554723   2553043   2551333  
  6200.000000   2549570   2547755   2545910   2544068   2542261  
  6190.000000   2540506   2538806   2537152   2535538   2533961  
  6180.000000   2532429   2530949   2529527   2528156   2526820  
  6170.000000   2525502   2524191   2522891   2521616   2520383  
  6160.000000   2519204   2518074   2516973   2515871   2514740  
  6150.000000   2513559   2512328   2511052   2509749   2508433  
  6140.000000   2507114   2505797   2504487   2503188   2501909  
  6130.000000   2500656   2499437   2498249   2497090   2495953  
  6120.000000   2494837   2493746   2492690   2491682   2490737  
  6110.000000   2489860   2489060   2488332   2487675   2487078  
  6100.000000   2486532   2486016   2485518   2485020   2484525  
  6090.000000   2484040   2483597   2483222   2482948   2482781  
  6080.000000   2482718   2482727   2482779   2482841   2482907  
  6070.000000   2482978   2483078   2483225   2483441   2483730  
  6060.000000   2484094   2484525   2485025   2485590   2486226  
  6050.000000   2486921   2487666   2488431   2489199   2489954  
  6040.000000   2490712   2491498   2492362   2493348   2494496  
  6030.000000   2495816   2497309   2498949   2500710   2502560  
  6020.000000   2504474   2506413   2508349   2510239   2512060  
  6010.000000   2513787   2515430   2517007   2518565   2520140  
  6000.000000   2521771   2523467   2525234   2527055   2528922  
  5990.000000   2530823   2532765   2534748   2536785   2538876  
  5980.000000   2541033   2543260   2545578   2548003   2550559  
  5970.000000   2553245   2556055   2558952   2561897   2564842  
  5960.000000   2567765   2570653   2573524   2576394   2579287  
  5950.000000   2582208   2585159   2588129   2591123   2594150  
  5940.000000   2597239   2600420   2603718   2607143   2610680  
  5930.000000   2614299   2617956   2621612   2625229   2628775  
  5920.000000   2632222   2635544   2638711   2641702   2644502  
  5910.000000   2647117   2649566   2651883   2654110   2656295  
  5900.000000   2658478   2660705   2663007   2665419   2667950  
  5890.000000   2670602   2673344   2676138   2678930   2681676  
  5880.000000   2684345   2686926   2689420   2691831   2694157  
  5870.000000   2696381   2698485   2700454   2702295   2704040  
  5860.000000   2705746   2707476   2709282   2711190   2713201  
  5850.000000   2715297   2717453   2719655   2721903   2724208  
  5840.000000   2726581   2729024   2731524   2734053   2736583  
  5830.000000   2739087   2741557   2743992   2746403   2748796  
  5820.000000   2751177   2753540   2755883   2758203   2760499  
  5810.000000   2762778   2765036   2767280   2769499   2771707  
  5800.000000   2773899   2776113   2778352   2780653   2782994  
  5790.000000   2785360   2787670   2789850   2791775   2793348  
  5780.000000   2794449   2795002   2794935   2794233   2792909  
  5770.000000   2791047   2788758   2786210   2783554   2780950  
  5760.000000   2778488   2776235   2774188   2772339   2770652  
  5750.000000   2769120   2767729   2766478   2765351   2764317  
  5740.000000   2763332   2762347   2761331   2760266   2759171  
  5730.000000   2758065   2756986   2755944   2754952   2753996  
  5720.000000   2753077   2752189   2751347   2750560   2749846  
  5710.000000   2749203   2748628   2748105   2747627   2747189  
  5700.000000   2746798   2746463   2746188   2745970   2745792  
  5690.000000   2745642   2745504   2745380   2745270   2745183  
  5680.000000   2745106   2745025   2744896   2744679   2744325  
  5670.000000   2743803   2743082   2742148   2740984   2739580  
  5660.000000   2737927   2736042   2733955   2731731   2729446  
  5650.000000   2727186   2725014   2722977   2721080   2719318  
  5640.000000   2717662   2716088   2714573   2713099   2711651  
  5630.000000   2710216   2708788   2707364   2705963   2704605  
  5620.000000   2703319   2702122   2701017   2699983   2698992  
  5610.000000   2698011   2697024   2696030   2695046   2694093  
  5600.000000   2693187   2692326   2691493   2690664   2689820  
  5590.000000   2688954   2688073   2687190   2686317   2685455  
  5580.000000   2684595   2683723   2682821   2681886   2680915  
  5570.000000   2679914   2678886   2677829   2676736   2675606  
  5560.000000   2674443   2673263   2672084   2670923   2669782  
  5550.000000   2668654   2667519   2666361   2665172   2663963  
  5540.000000   2662750   2661557   2660392   2659252   2658121  
  5530.000000   2656983   2655830   2654673   2653529   2652420  
  5520.000000   2651353   2650316   2649279   2648209   2647079  
  5510.000000   2645884   2644637   2643370   2642110   2640881  
  5500.000000   2639683   2638508   2637338   2636157   2634947  
  5490.000000   2633699   2632399   2631034   2629592   2628072  
  5480.000000   2626478   2624840   2623184   2621547   2619946  
  5470.000000   2618387   2616853   2615324   2613772   2612179  
  5460.000000   2610525   2608799   2606987   2605079   2603073  
  5450.000000   2600985   2598847   2596711   2594626   2592627  
  5440.000000   2590726   2588909   2587151   2585430   2583740  
  5430.000000   2582092   2580502   2578973   2577491   2576019  
  5420.000000   2574527   2572991   2571437   2569913   2568501  
  5410.000000   2567255   2566214   2565350   2564625   2563974  
  5400.000000   2563376   2562819   2562346   2561987   2561785  
  5390.000000   2561737   2561843   2562068   2562420   2562899  
  5380.000000   2563555   2564407   2565488   2566764   2568210  
  5370.000000   2569751   2571370   2573029   2574775   2576618  
  5360.000000   2578632   2580822   2583246   2585887   2588802  
  5350.000000   2591990   2595531   2599429   2603754   2608472  
  5340.000000   2613620   2619137   2625069   2631378   2638140  
  5330.000000   2645318   2652975   2661039   2669546   2678420  
  5320.000000   2687736   2697477   2707787   2718688   2730336  
  5310.000000   2742713   2755914   2769854   2784585   2800015  
  5300.000000   2816217   2833141   2850910   2869515   2889089  
  5290.000000   2909606   2931141   2953581   2976893   3000890  
  5280.000000   3025510   3050620   3076264   3102451   3129326  
  5270.000000   3156933   3185318   3214358   3243875   3273604  
  5260.000000   3303325   3332899   3362296   3391585   3420830  
  5250.000000   3450076   3479214   3508103   3536461   3564124  
  5240.000000   3590899   3616823   3641899   3666312   3690100  
  5230.000000   3713390   3736090   3758182   3779463   3799888  
  5220.000000   3819306   3837793   3855336   3872133   3888229  
  5210.000000   3903809   3918833   3933348   3947176   3960280  
  5200.000000   3972476   3983806   3994216   4003868   4012781  
  5190.000000   4021113   4028829   4036004   4042538   4048474  
  5180.000000   4053732   4058393   4062414   4065883   4068739  
  5170.000000   4071034   4072691   4073766   4074227   4074178  
  5160.000000   4073625   4072676   4071312   4069596   4067475  
  5150.000000   4064990   4062106   4058884   4055312   4051447  
  5140.000000   4047259   4042781   4037976   4032881   4027497  
  5130.000000   4021897   4016111   4010209   4004201   3998121  
  5120.000000   3991951   3985708   3979381   3973003   3966579  
  5110.000000   3960139   3953678   3947202   3940699   3934176  
  5100.000000   3927638   3921117   3914635   3908218   3901870  
  5090.000000   3895583   3889330   3883089   3876834   3870559  
  5080.000000   3864261   3857950   3851630   3845311   3838994  
  5070.000000   3832688   3826390   3820109   3813839   3807578  
  5060.000000   3801306   3795008   3788656   3782234   3775722  
  5050.000000   3769117   3762409   3755604   3748700   3741710  
  5040.000000   3734646   3727536   3720408   3713294   3706218  
  5030.000000   3699196   3692230   3685314   3678439   3671600  
  5020.000000   3664807   3658068   3651409   3644840   3638387  
  5010.000000   3632046   3625833   3619738   3613781   3607955  
  5000.000000   3602287   3596772   3591441   3586286   3581346  
  4990.000000   3576619   3572153   3567948   3564050   3560440  
  4980.000000   3557143   3554114   3551366   3548859   3546628  
  4970.000000   3544660   3543023   3541718   3540811   3540277  
  4960.000000   3540154   3540387   3541000   3541944   3543258  
  4950.000000   3544914   3546967   3549391   3552229   3555436  
  4940.000000   3559040   3562991   3567322   3571994   3577052  
  4930.000000   3582463   3588264   3594409   3600918   3607734  
  4920.000000   3614872   3622287   3630004   3637997   3646299  
  4910.000000   3654891   3663793   3672973   3682426   3692102  
  4900.000000   3701975   3711995   3722132   3732356   3742645  
  4890.000000   3752980   3763327   3773654   3783894   3793991  
  4880.000000   3803858   3813447   3822686   3831559   3840023  
  4870.000000   3848090   3855727   3862954   3869738   3876107  
  4860.000000   3882038   3887577   3892712   3897494   3901908  
  4850.000000   3905997   3909746   3913201   3916360   3919285  
  4840.000000   3921995   3924560   3927001   3929373   3931685  
  4830.000000   3933970   3936223   3938462   3940673   3942862  
  4820.000000   3945014   3947133   3949217   3951283   3953344  
  4810.000000   3955424   3957532   3959673   3961837   3964004  
  4800.000000   3966155   3968274   3970359   3972417   3974460  
  4790.000000   3976506   3978561   3980629   3982708   3984797  
  4780.000000   3986896   3989014   3991153   3993318   3995497  
  4770.000000   3997674   3999820   4001915   4003934   4005873  
  4760.000000   4007724   4009496   4011187   4012803   4014332  
  4750.000000   4015778   4017128   4018390   4019557   4020637  
  4740.000000   4021620   4022509   4023286   4023953   4024500  
  4730.000000   4024936   4025266   4025504   4025659   4025745  
  4720.000000   4025769   4025741   4025673   4025577   4025471  
  4710.000000   4025370   4025296   4025267   4025310   4025449  
  4700.000000   4025712   4026121   4026694   4027433   4028333  
  4690.000000   4029372   4030530   4031777   4033092   4034447  
  4680.000000   4035819   4037172   4038473   4039679   4040764  
  4670.000000   4041703   4042508   4043196   4043817   4044414  
  4660.000000   4045042   4045742   4046555   4047507   4048630  
  4650.000000   4049944   4051465   4053200   4055140   4057264  
  4640.000000   4059538   4061927   4064394   4066912   4069455  
  4630.000000   4072004   4074528   4076999   4079373   4081617  
  4620.000000   4083688   4085565   4087222   4088652   4089840  
  4610.000000   4090787   4091484   4091948   4092190   4092260  
  4600.000000   4092192   4092055   4091880   4091714   4091556  
  4590.000000   4091417   4091264   4091086   4090839   4090509  
  4580.000000   4090052   4089452   4088671   4087701   4086524  
  4570.000000   4085159   4083615   4081934   4080135   4078254  
  4560.000000   4076292   4074264   4072157   4069980   4067726  
  4550.000000   4065415   4063050   4060644   4058193   4055691  
  4540.000000   4053124   4050486   4047784   4045038   4042286  
  4530.000000   4039562   4036910   4034346   4031892   4029538  
  4520.000000   4027298   4025159   4023156   4021286   4019605  
  4510.000000   4018113   4016875   4015884   4015218   4014879  
  4500.000000   4014964   4015486   4016554   4018170   4020428  
  4490.000000   4023304   4026873   4031094   4036037   4041659  
  4480.000000   4048030   4055102   4062934   4071464   4080731  
  4470.000000   4090658   4101267   4112474   4124291   4136628  
  4460.000000   4149487   4162774   4176477   4190501   4204819  
  4450.000000   4219343   4234044   4248854   4263756   4278714  
  4440.000000   4293715   4308742   4323770   4338778   4353713  
  4430.000000   4368550   4383220   4397708   4411940   4425914  
  4420.000000   4439549   4452841   4465687   4478067   4489861  
  4410.000000   4501039   4511480   4521166   4530002   4538006  
  4400.000000   4545132   4551450   4556972   4561817   4566042  
  4390.000000   4569795   4573157   4576276   4579227   4582129  
  4380.000000   4585024   4587982   4591013   4594151   4597401  
  4370.000000   4600793   4604353   4608120   4612130   4616408  
  4360.000000   4620971   4625822   4630944   4636326   4641923  
  4350.000000   4647722   4653646   4659692   4665779   4671933  
  4340.000000   4678102   4684321   4690502   4696552   4702179  
  4330.000000   4707013   4710523   4712199   4711590   4708497  
  4320.000000   4703002   4695544   4686786   4677553   4668601  
  4310.000000   4660564   4653783   4648396   4644294   4641292  
  4300.000000   4639137   4637631   4636614   4635980   4635670  
  4290.000000   4635619   4635814   4636208   4636828   4637661  
  4280.000000   4638744   4640070   4641630   4643390   4645299  
  4270.000000   4647328   4649425   4651560   4653636   4655519  
  4260.000000   4656968   4657700   4657395   4655811   4652812  
  4250.000000   4648456   4642963   4636710   4630115   4623609  
  4240.000000   4617503   4612016   4607200   4603032   4599392  
  4230.000000   4596158   4593197   4590406   4587708   4585040  
  4220.000000   4582385   4579717   4577072   4574467   4571994  
  4210.000000   4569707   4567721   4566087   4564888   4564128  
  4200.000000   4563818   4563898   4564320   4564982   4565826  
  4190.000000   4566763   4567775   4568818   4569930   4571101  
  4180.000000   4572390   4573786   4575334   4577010   4578856  
  4170.000000   4580862   4583098   4585587   4588424   4591644  
  4160.000000   4595331   4599490   4604168   4609324   4614974  
  4150.000000   4621052   4627563   4634437   4641693   4649279  
  4140.000000   4657246   4665569   4674326   4683501   4693162  
  4130.000000   4703267   4713849   4724838   4736250   4748031  
  4120.000000   4760220   4772803   4785850   4799367   4813419  
  4110.000000   4827994   4843120   4858750   4874867   4891384  
  4100.000000   4908248   4925354   4942639   4960019   4977465  
  4090.000000   4994950   5012482   5030075   5047741   5065497  
  4080.000000   5083328   5101239   5119191   5137176   5155123  
  4070.000000   5172996   5190681   5208115   5225165   5241794  
  4060.000000   5257906   5273524   5288595   5303172   5317201  
  4050.000000   5330734   5343706   5356181   5368099   5379534  
  4040.000000   5390405   5400757   5410463   5419538   5427853  
  4030.000000   5435455   5442259   5448344   5453648   5458222  
  4020.000000   5461959   5464906   5467028   5468412   5469022  
  4010.000000   5469021   5468505   5467500   5465774   5463377  
  4000.000000   5460637  
##END= 
