##TITLE= Sample 011 By ssteindl date Montag, November 26 2018
##JCAMP-DX= 4.24
##DATA TYPE= INFRARED SPECTRUM
##ORIGIN= Exported PE Spectrum Data File
##OWNER= Sandra Steindl
##DATE= 18/11/26
##TIME= 11:31:29.00
##SPECTROMETER/DATA SYSTEM= PERKIN-ELMER Frontier FT-IR/NIR IR
##INSTRUMENT PARAMETERS=
  APODIZATION=stark
  DETECTOR=INGAAS
##RESOLUTION= 16.000000
##DELTAX= -2.000000
##XUNITS= 1/CM
##YUNITS= A
##XFACTOR= 1.00
##YFACTOR= 0.00000011920928955078
##FIRSTX= 10000.00
##LASTX= 4000.00
##NPOINTS= 3001
##FIRSTY= 0.282078
##MAXY= 0.647368
##MINY= 0.222344
##XYDATA= (X++(Y..Y))
 10000.000000   2366242   2365503   2364889   2364686   2365081  
  9990.000000   2365989   2366933   2367269   2366401   2364127  
  9980.000000   2360687   2356745   2353099   2350425   2348968  
  9970.000000   2348488   2348286   2347476   2345275   2341289  
  9960.000000   2335670   2328997   2322135   2315858   2310701  
  9950.000000   2306741   2303731   2301163   2298599   2295801  
  9940.000000   2292897   2290332   2288717   2288649   2290471  
  9930.000000   2294204   2299522   2305856   2312558   2318969  
  9920.000000   2324570   2328929   2331785   2332987   2332544  
  9910.000000   2330595   2327420   2323395   2318996   2314703  
  9900.000000   2311003   2308262   2306678   2306219   2306548  
  9890.000000   2307153   2307342   2306576   2304558   2301550  
  9880.000000   2298307   2296010   2295867   2298687   2304498  
  9870.000000   2312356   2320557   2327031   2330041   2328662  
  9860.000000   2323098   2314558   2304810   2295662   2288446  
  9850.000000   2283849   2281913   2282279   2284372   2287575  
  9840.000000   2291174   2294395   2296358   2296291   2293779  
  9830.000000   2288975   2282757   2276417   2271384   2268573  
  9820.000000   2268160   2269444   2271236   2272403   2272341  
  9810.000000   2271320   2270220   2270218   2272104   2275997  
  9800.000000   2281242   2286682   2291181   2293921   2294718  
  9790.000000   2293763   2291449   2287999   2283402   2277581  
  9780.000000   2270637   2263199   2256343   2251464   2249685  
  9770.000000   2251522   2256523   2263443   2270548   2276146  
  9760.000000   2279045   2278734   2275439   2269799   2262694  
  9750.000000   2254949   2247358   2240632   2235497   2232569  
  9740.000000   2232251   2234525   2238854   2244267   2249524  
  9730.000000   2253521   2255517   2255409   2253673   2251213  
  9720.000000   2249056   2248037   2248621   2250795   2254150  
  9710.000000   2257971   2261421   2263686   2264122   2262383  
  9700.000000   2258467   2252754   2245912   2238808   2232327  
  9690.000000   2227203   2223884   2222453   2222631   2223885  
  9680.000000   2225537   2226952   2227663   2227471   2226484  
  9670.000000   2225017   2223524   2222375   2221831   2221887  
  9660.000000   2222434   2223239   2224158   2225148   2226298  
  9650.000000   2227777   2229664   2231924   2234322   2236577  
  9640.000000   2238505   2240127   2241712   2243573   2245898  
  9630.000000   2248499   2250801   2252000   2251358   2248602  
  9620.000000   2244057   2238721   2233888   2230857   2230393  
  9610.000000   2232582   2236719   2241621   2245952   2248625  
  9600.000000   2248999   2246929   2242645   2236608   2229419  
  9590.000000   2221759   2214401   2208118   2203582   2201180  
  9580.000000   2200855   2202092   2203980   2205549   2206029  
  9570.000000   2205155   2203189   2200770   2198647   2197323  
  9560.000000   2196936   2197166   2197463   2197213   2196044  
  9550.000000   2193900   2191107   2188193   2185740   2184173  
  9540.000000   2183655   2184062   2185033   2186075   2186718  
  9530.000000   2186645   2185827   2184551   2183334   2182781  
  9520.000000   2183322   2185079   2187751   2190732   2193300  
  9510.000000   2194868   2195176   2194329   2192713   2190771  
  9500.000000   2188819   2186899   2184839   2182364   2179300  
  9490.000000   2175718   2171924   2168420   2165667   2164014  
  9480.000000   2163560   2164222   2165786   2167974   2170489  
  9470.000000   2172959   2174947   2175931   2175453   2173255  
  9460.000000   2169478   2164711   2159917   2156173   2154341  
  9450.000000   2154788   2157235   2160868   2164552   2167195  
  9440.000000   2168050   2166889   2164044   2160189   2156141  
  9430.000000   2152564   2149851   2148073   2147047   2146484  
  9420.000000   2146101   2145805   2145678   2146024   2147144  
  9410.000000   2149252   2152247   2155707   2158935   2161115  
  9400.000000   2161577   2159934   2156275   2151066   2145094  
  9390.000000   2139170   2133971   2129863   2126895   2124898  
  9380.000000   2123566   2122645   2121945   2121470   2121356  
  9370.000000   2121852   2123202   2125515   2128690   2132346  
  9360.000000   2135891   2138571   2139702   2138851   2136078  
  9350.000000   2131987   2127603   2124073   2122274   2122530  
  9340.000000   2124487   2127231   2129604   2130568   2129567  
  9330.000000   2126646   2122390   2117645   2113214   2109662  
  9320.000000   2107222   2105898   2105534   2106021   2107293  
  9310.000000   2109379   2112227   2115685   2119401   2122896  
  9300.000000   2125660   2127206   2127223   2125474   2121963  
  9290.000000   2116811   2110394   2103257   2096078   2089599  
  9280.000000   2084436   2081083   2079726   2080336   2082619  
  9270.000000   2086182   2090558   2095248   2099694   2103223  
  9260.000000   2105178   2104994   2102500   2097932   2092067  
  9250.000000   2085997   2080956   2077902   2077268   2078840  
  9240.000000   2081879   2085427   2088568   2090697   2091571  
  9230.000000   2091336   2090369   2089130   2088035   2087394  
  9220.000000   2087451   2088335   2090043   2092348   2094822  
  9210.000000   2096934   2098205   2098391   2097547   2096059  
  9200.000000   2094469   2093277   2092691   2092570   2092503  
  9190.000000   2092028   2090841   2088967   2086731   2084625  
  9180.000000   2083035   2082100   2081633   2081238   2080506  
  9170.000000   2079178   2077303   2075123   2073007   2071207  
  9160.000000   2069815   2068710   2067694   2066621   2065501  
  9150.000000   2064532   2063994   2064226   2065446   2067755  
  9140.000000   2071018   2074988   2079297   2083508   2087134  
  9130.000000   2089631   2090563   2089601   2086698   2082011  
  9120.000000   2075962   2069117   2062120   2055564   2049894  
  9110.000000   2045470   2042517   2041239   2041670   2043747  
  9100.000000   2047170   2051480   2056032   2060127   2063162  
  9090.000000   2064728   2064749   2063355   2060908   2057792  
  9080.000000   2054433   2051151   2048179   2045674   2043726  
  9070.000000   2042390   2041617   2041326   2041387   2041689  
  9060.000000   2042117   2042573   2042958   2043157   2043051  
  9050.000000   2042498   2041419   2039848   2038006   2036257  
  9040.000000   2035033   2034698   2035427   2037113   2039352  
  9030.000000   2041579   2043234   2043932   2043558   2042283  
  9020.000000   2040508   2038705   2037292   2036480   2036275  
  9010.000000   2036461   2036714   2036681   2036110   2034930  
  9000.000000   2033287   2031526   2030071   2029345   2029618  
  8990.000000   2030935   2033073   2035619   2038081   2040045  
  8980.000000   2041246   2041650   2041388   2040712   2039863  
  8970.000000   2039006   2038212   2037444   2036628   2035623  
  8960.000000   2034289   2032464   2030020   2026896   2023144  
  8950.000000   2019019   2014956   2011535   2009298   2008653  
  8940.000000   2009731   2012339   2015980   2019984   2023688  
  8930.000000   2026554   2028256   2028685   2027964   2026367  
  8920.000000   2024299   2022195   2020505   2019568   2019570  
  8910.000000   2020440   2021862   2023334   2024300   2024336  
  8900.000000   2023274   2021277   2018779   2016358   2014552  
  8890.000000   2013717   2013948   2015118   2016948   2019125  
  8880.000000   2021359   2023440   2025232   2026646   2027611  
  8870.000000   2028077   2028035   2027520   2026610   2025404  
  8860.000000   2024017   2022555   2021133   2019871   2018894  
  8850.000000   2018321   2018185   2018420   2018805   2019044  
  8840.000000   2018841   2018035   2016680   2015051   2013571  
  8830.000000   2012647   2012518   2013147   2014232   2015324  
  8820.000000   2016013   2016084   2015604   2014871   2014300  
  8810.000000   2014221   2014762   2015777   2016931   2017813  
  8800.000000   2018112   2017709   2016717   2015440   2014266  
  8790.000000   2013568   2013588   2014409   2015929   2017909  
  8780.000000   2020025   2021932   2023341   2024072   2024091  
  8770.000000   2023502   2022513   2021380   2020342   2019570  
  8760.000000   2019138   2019039   2019196   2019531   2019971  
  8750.000000   2020480   2021034   2021602   2022125   2022511  
  8740.000000   2022646   2022427   2021802   2020798   2019547  
  8730.000000   2018260   2017203   2016618   2016666   2017365  
  8720.000000   2018574   2020011   2021324   2022185   2022400  
  8710.000000   2021965   2021080   2020077   2019331   2019122  
  8700.000000   2019585   2020644   2022085   2023600   2024916  
  8690.000000   2025848   2026342   2026471   2026389   2026306  
  8680.000000   2026425   2026931   2027937   2029472   2031458  
  8670.000000   2033713   2035988   2038009   2039557   2040495  
  8660.000000   2040814   2040590   2039968   2039068   2037984  
  8650.000000   2036774   2035522   2034369   2033526   2033260  
  8640.000000   2033796   2035262   2037581   2040495   2043612  
  8630.000000   2046527   2048936   2050690   2051821   2052461  
  8620.000000   2052788   2052936   2052974   2052924   2052803  
  8610.000000   2052684   2052681   2052946   2053572   2054580  
  8600.000000   2055851   2057189   2058341   2059101   2059343  
  8590.000000   2059049   2058305   2057260   2056109   2055035  
  8580.000000   2054212   2053760   2053748   2054167   2054927  
  8570.000000   2055880   2056853   2057713   2058399   2058956  
  8560.000000   2059502   2060190   2061139   2062378   2063840  
  8550.000000   2065365   2066770   2067880   2068591   2068867  
  8540.000000   2068737   2068280   2067591   2066802   2066041  
  8530.000000   2065468   2065219   2065404   2066039   2067045  
  8520.000000   2068229   2069334   2070101   2070319   2069906  
  8510.000000   2068892   2067449   2065796   2064186   2062820  
  8500.000000   2061854   2061365   2061369   2061847   2062765  
  8490.000000   2064102   2065835   2067944   2070379   2073047  
  8480.000000   2075794   2078414   2080697   2082456   2083611  
  8470.000000   2084177   2084312   2084221   2084124   2084153  
  8460.000000   2084332   2084587   2084785   2084834   2084714  
  8450.000000   2084545   2084515   2084848   2085679   2087029  
  8440.000000   2088772   2090673   2092451   2093854   2094718  
  8430.000000   2094991   2094724   2094054   2093162   2092270  
  8420.000000   2091596   2091335   2091605   2092427   2093688  
  8410.000000   2095144   2096449   2097248   2097268   2096392  
  8400.000000   2094680   2092365   2089809   2087417   2085531  
  8390.000000   2084387   2084058   2084485   2085462   2086720  
  8380.000000   2087949   2088893   2089383   2089362   2088888  
  8370.000000   2088072   2087048   2085885   2084591   2083097  
  8360.000000   2081351   2079374   2077328   2075499   2074217  
  8350.000000   2073755   2074187   2075350   2076840   2078153  
  8340.000000   2078850   2078706   2077806   2076476   2075189  
  8330.000000   2074350   2074170   2074577   2075269   2075848  
  8320.000000   2075992   2075586   2074756   2073828   2073172  
  8310.000000   2073081   2073625   2074663   2075876   2076901  
  8300.000000   2077444   2077364   2076695   2075599   2074290  
  8290.000000   2072949   2071682   2070503   2069379   2068253  
  8280.000000   2067093   2065895   2064682   2063495   2062355  
  8270.000000   2061295   2060336   2059543   2059009   2058843  
  8260.000000   2059121   2059837   2060877   2062020   2062977  
  8250.000000   2063471   2063320   2062499   2061157   2059558  
  8240.000000   2058000   2056710   2055786   2055177   2054709  
  8230.000000   2054177   2053404   2052335   2051013   2049600  
  8220.000000   2048265   2047165   2046368   2045858   2045551  
  8210.000000   2045306   2044974   2044401   2043463   2042070  
  8200.000000   2040189   2037858   2035197   2032416   2029779  
  8190.000000   2027568   2026004   2025201   2025111   2025543  
  8180.000000   2026187   2026708   2026811   2026319   2025199  
  8170.000000   2023560   2021620   2019627   2017808   2016297  
  8160.000000   2015122   2014207   2013418   2012608   2011671  
  8150.000000   2010576   2009361   2008125   2006966   2005946  
  8140.000000   2005063   2004243   2003388   2002409   2001277  
  8130.000000   2000042   1998812   1997732   1996911   1996404  
  8120.000000   1996168   1996097   1996038   1995842   1995395  
  8110.000000   1994631   1993533   1992113   1990405   1988452  
  8100.000000   1986313   1984073   1981840   1979742   1977901  
  8090.000000   1976411   1975310   1974574   1974122   1973834  
  8080.000000   1973583   1973247   1972734   1971974   1970942  
  8070.000000   1969650   1968163   1966594   1965110   1963887  
  8060.000000   1963093   1962819   1963057   1963667   1964410  
  8050.000000   1965000   1965176   1964791   1963842   1962489  
  8040.000000   1960996   1959667   1958748   1958363   1958476  
  8030.000000   1958907   1959384   1959618   1959386   1958573  
  8020.000000   1957198   1955387   1953334   1951244   1949295  
  8010.000000   1947608   1946247   1945226   1944533   1944145  
  8000.000000   1944030   1944158   1944473   1944911   1945377  
  7990.000000   1945777   1946020   1946043   1945829   1945390  
  7980.000000   1944780   1944046   1943241   1942380   1941467  
  7970.000000   1940481   1939406   1938244   1937020   1935807  
  7960.000000   1934695   1933809   1933256   1933128   1933450  
  7950.000000   1934183   1935196   1936291   1937234   1937793  
  7940.000000   1937805   1937200   1936039   1934472   1932727  
  7930.000000   1931019   1929526   1928333   1927440   1926795  
  7920.000000   1926317   1925964   1925717   1925624   1925726  
  7910.000000   1926064   1926626   1927352   1928143   1928864  
  7900.000000   1929395   1929607   1929408   1928716   1927499  
  7890.000000   1925773   1923642   1921296   1919005   1917078  
  7880.000000   1915782   1915284   1915579   1916502   1917751  
  7870.000000   1918983   1919903   1920341   1920287   1919856  
  7860.000000   1919248   1918635   1918148   1917805   1917574  
  7850.000000   1917383   1917188   1916995   1916859   1916870  
  7840.000000   1917089   1917557   1918241   1919084   1919996  
  7830.000000   1920902   1921743   1922474   1923056   1923428  
  7820.000000   1923510   1923205   1922428   1921139   1919376  
  7810.000000   1917267   1915018   1912887   1911115   1909890  
  7800.000000   1909275   1909217   1909531   1909976   1910297  
  7790.000000   1910311   1909938   1909212   1908261   1907244  
  7780.000000   1906307   1905526   1904911   1904401   1903921  
  7770.000000   1903397   1902797   1902131   1901434   1900760  
  7760.000000   1900146   1899616   1899175   1898816   1898527  
  7750.000000   1898292   1898089   1897890   1897664   1897381  
  7740.000000   1897025   1896593   1896095   1895540   1894927  
  7730.000000   1894240   1893454   1892554   1891555   1890514  
  7720.000000   1889520   1888668   1888023   1887596   1887333  
  7710.000000   1887139   1886910   1886571   1886103   1885540  
  7700.000000   1884949   1884395   1883920   1883524   1883183  
  7690.000000   1882861   1882531   1882180   1881805   1881395  
  7680.000000   1880923   1880354   1879656   1878829   1877914  
  7670.000000   1876989   1876147   1875458   1874949   1874589  
  7660.000000   1874304   1874016   1873665   1873245   1872795  
  7650.000000   1872385   1872080   1871922   1871911   1872009  
  7640.000000   1872161   1872293   1872340   1872234   1871920  
  7630.000000   1871352   1870523   1869468   1868284   1867113  
  7620.000000   1866117   1865438   1865155   1865266   1865680  
  7610.000000   1866255   1866833   1867293   1867569   1867665  
  7600.000000   1867634   1867544   1867464   1867433   1867468  
  7590.000000   1867556   1867676   1867794   1867880   1867907  
  7580.000000   1867855   1867722   1867517   1867271   1867023  
  7570.000000   1866816   1866680   1866625   1866640   1866693  
  7560.000000   1866745   1866764   1866732   1866651   1866545  
  7550.000000   1866449   1866403   1866442   1866586   1866826  
  7540.000000   1867136   1867466   1867765   1867981   1868091  
  7530.000000   1868088   1868000   1867862   1867717   1867594  
  7520.000000   1867517   1867505   1867588   1867812   1868235  
  7510.000000   1868907   1869851   1871041   1872406   1873832  
  7500.000000   1875205   1876431   1877471   1878333   1879070  
  7490.000000   1879735   1880379   1881013   1881637   1882233  
  7480.000000   1882795   1883332   1883870   1884441   1885075  
  7470.000000   1885798   1886634   1887609   1888752   1890085  
  7460.000000   1891607   1893270   1894986   1896628   1898087  
  7450.000000   1899291   1900247   1901035   1901788   1902643  
  7440.000000   1903699   1904982   1906458   1908051   1909688  
  7430.000000   1911326   1912953   1914582   1916215   1917830  
  7420.000000   1919374   1920783   1922016   1923071   1924004  
  7410.000000   1924896   1925834   1926861   1927978   1929142  
  7400.000000   1930305   1931439   1932566   1933744   1935053  
  7390.000000   1936550   1938244   1940091   1942012   1943924  
  7380.000000   1945772   1947542   1949263   1950980   1952727  
  7370.000000   1954507   1956293   1958039   1959705   1961270  
  7360.000000   1962740   1964138   1965485   1966794   1968047  
  7350.000000   1969222   1970292   1971259   1972148   1973017  
  7340.000000   1973927   1974924   1976021   1977184   1978350  
  7330.000000   1979438   1980384   1981163   1981804   1982387  
  7320.000000   1983028   1983849   1984945   1986364   1988081  
  7310.000000   1990005   1992004   1993927   1995649   1997089  
  7300.000000   1998230   1999108   1999795   2000373   2000920  
  7290.000000   2001490   2002118   2002815   2003585   2004426  
  7280.000000   2005330   2006293   2007296   2008317   2009326  
  7270.000000   2010296   2011206   2012055   2012865   2013672  
  7260.000000   2014530   2015478   2016547   2017726   2018983  
  7250.000000   2020246   2021445   2022507   2023406   2024153  
  7240.000000   2024824   2025527   2026395   2027541   2029047  
  7230.000000   2030923   2033128   2035552   2038074   2040557  
  7220.000000   2042907   2045055   2047012   2048823   2050601  
  7210.000000   2052459   2054526   2056883   2059576   2062582  
  7200.000000   2065838   2069248   2072720   2076183   2079602  
  7190.000000   2082969   2086306   2089629   2092957   2096273  
  7180.000000   2099561   2102775   2105886   2108857   2111688  
  7170.000000   2114388   2117013   2119634   2122359   2125287  
  7160.000000   2128506   2132048   2135905   2140003   2144251  
  7150.000000   2148537   2152792   2156976   2161123   2165287  
  7140.000000   2169563   2174005   2178659   2183501   2188508  
  7130.000000   2193622   2198817   2204059   2209356   2214699  
  7120.000000   2220105   2225568   2231109   2236732   2242463  
  7110.000000   2248299   2254241   2260244   2266268   2272254  
  7100.000000   2278192   2284102   2290069   2296192   2302572  
  7090.000000   2309246   2316191   2323300   2330444   2337490  
  7080.000000   2344366   2351056   2357621   2364139   2370701  
  7070.000000   2377354   2384117   2390964   2397865   2404783  
  7060.000000   2411691   2418564   2425375   2432098   2438714  
  7050.000000   2445229   2451679   2458127   2464639   2471256  
  7040.000000   2477975   2484747   2491492   2498139   2504647  
  7030.000000   2511032   2517345   2523658   2530013   2536414  
  7020.000000   2542815   2549152   2555354   2561394   2567271  
  7010.000000   2573025   2578696   2584327   2589935   2595536  
  7000.000000   2601129   2606729   2612330   2617928   2623477  
  6990.000000   2628924   2634187   2639216   2643983   2648523  
  6980.000000   2652892   2657174   2661416   2665648   2669844  
  6970.000000   2673979   2678016   2681961   2685820   2689625  
  6960.000000   2693371   2697045   2700587   2703958   2707117  
  6950.000000   2710087   2712907   2715648   2718348   2721022  
  6940.000000   2723625   2726103   2728389   2730462   2732329  
  6930.000000   2734040   2735642   2737184   2738672   2740110  
  6920.000000   2741484   2742811   2744114   2745451   2746862  
  6910.000000   2748381   2749995   2751678   2753372   2755027  
  6900.000000   2756592   2758034   2759324   2760439   2761367  
  6890.000000   2762110   2762694   2763173   2763616   2764097  
  6880.000000   2764668   2765361   2766170   2767079   2768063  
  6870.000000   2769116   2770231   2771408   2772627   2773848  
  6860.000000   2775005   2776035   2776887   2777551   2778059  
  6850.000000   2778475   2778878   2779336   2779882   2780525  
  6840.000000   2781234   2781970   2782678   2783320   2783856  
  6830.000000   2784273   2784567   2784758   2784878   2784969  
  6820.000000   2785062   2785169   2785271   2785327   2785285  
  6810.000000   2785111   2784796   2784373   2783901   2783451  
  6800.000000   2783076   2782806   2782633   2782532   2782463  
  6790.000000   2782395   2782302   2782166   2781969   2781691  
  6780.000000   2781317   2780846   2780298   2779718   2779167  
  6770.000000   2778705   2778370   2778174   2778089   2778075  
  6760.000000   2778077   2778051   2777964   2777797   2777540  
  6750.000000   2777190   2776755   2776244   2775682   2775092  
  6740.000000   2774497   2773906   2773316   2772716   2772100  
  6730.000000   2771483   2770903   2770419   2770080   2769917  
  6720.000000   2769913   2770010   2770123   2770169   2770091  
  6710.000000   2769871   2769525   2769087   2768587   2768040  
  6700.000000   2767442   2766787   2766070   2765307   2764512  
  6690.000000   2763701   2762870   2762003   2761067   2760045  
  6680.000000   2758933   2757761   2756566   2755387   2754235  
  6670.000000   2753094   2751922   2750681   2749351   2747955  
  6660.000000   2746541   2745177   2743914   2742774   2741737  
  6650.000000   2740759   2739782   2738759   2737654   2736455  
  6640.000000   2735150   2733739   2732218   2730598   2728898  
  6630.000000   2727160   2725428   2723748   2722141   2720605  
  6620.000000   2719110   2717623   2716106   2714547   2712944  
  6610.000000   2711313   2709665   2708006   2706328   2704621  
  6600.000000   2702874   2701088   2699267   2697417   2695542  
  6590.000000   2693640   2691710   2689764   2687825   2685933  
  6580.000000   2684125   2682427   2680838   2679330   2677856  
  6570.000000   2676374   2674857   2673305   2671738   2670180  
  6560.000000   2668648   2667131   2665607   2664041   2662416  
  6550.000000   2660727   2658997   2657257   2655538   2653859  
  6540.000000   2652231   2650656   2649144   2647714   2646386  
  6530.000000   2645174   2644071   2643044   2642044   2641018  
  6520.000000   2639930   2638775   2637580   2636390   2635251  
  6510.000000   2634187   2633195   2632234   2631251   2630184  
  6500.000000   2628988   2627645   2626164   2624587   2622976  
  6490.000000   2621409   2619956   2618674   2617584   2616668  
  6480.000000   2615869   2615107   2614298   2613377   2612316  
  6470.000000   2611120   2609832   2608502   2607186   2605921  
  6460.000000   2604736   2603638   2602632   2601708   2600854  
  6450.000000   2600040   2599233   2598396   2597501   2596539  
  6440.000000   2595526   2594496   2593491   2592542   2591669  
  6430.000000   2590869   2590135   2589452   2588818   2588230  
  6420.000000   2587687   2587173   2586662   2586115   2585511  
  6410.000000   2584842   2584140   2583455   2582850   2582367  
  6400.000000   2582019   2581784   2581619   2581478   2581331  
  6390.000000   2581171   2581009   2580856   2580717   2580579  
  6380.000000   2580419   2580222   2579981   2579712   2579437  
  6370.000000   2579179   2578935   2578690   2578406   2578060  
  6360.000000   2577636   2577148   2576619   2576076   2575521  
  6350.000000   2574939   2574292   2573548   2572686   2571721  
  6340.000000   2570689   2569638   2568608   2567626   2566694  
  6330.000000   2565813   2564972   2564180   2563441   2562762  
  6320.000000   2562126   2561502   2560836   2560075   2559175  
  6310.000000   2558125   2556936   2555643   2554286   2552906  
  6300.000000   2551530   2550184   2548882   2547640   2546459  
  6290.000000   2545330   2544219   2543088   2541885   2540581  
  6280.000000   2539163   2537654   2536090   2534515   2532956  
  6270.000000   2531421   2529893   2528347   2526758   2525120  
  6260.000000   2523434   2521714   2519969   2518206   2516421  
  6250.000000   2514615   2512794   2510974   2509171   2507398  
  6240.000000   2505650   2503907   2502141   2500336   2498489  
  6230.000000   2496629   2494796   2493034   2491364   2489781  
  6220.000000   2488248   2486714   2485131   2483468   2481724  
  6210.000000   2479918   2478084   2476255   2474457   2472706  
  6200.000000   2471011   2469379   2467811   2466308   2464860  
  6190.000000   2463451   2462062   2460671   2459268   2457851  
  6180.000000   2456428   2455009   2453603   2452208   2450823  
  6170.000000   2449439   2448057   2446678   2445311   2443960  
  6160.000000   2442625   2441299   2439973   2438638   2437299  
  6150.000000   2435965   2434655   2433382   2432155   2430972  
  6140.000000   2429825   2428706   2427612   2426547   2425516  
  6130.000000   2424519   2423548   2422583   2421604   2420591  
  6120.000000   2419542   2418467   2417388   2416327   2415307  
  6110.000000   2414337   2413421   2412559   2411754   2411009  
  6100.000000   2410331   2409717   2409164   2408655   2408178  
  6090.000000   2407723   2407298   2406913   2406591   2406341  
  6080.000000   2406173   2406073   2406029   2406023   2406056  
  6070.000000   2406126   2406251   2406436   2406691   2407004  
  6060.000000   2407373   2407783   2408242   2408752   2409335  
  6050.000000   2409996   2410742   2411561   2412445   2413382  
  6040.000000   2414379   2415447   2416617   2417903   2419322  
  6030.000000   2420862   2422510   2424231   2426003   2427801  
  6020.000000   2429616   2431432   2433244   2435034   2436802  
  6010.000000   2438538   2440256   2441969   2443704   2445475  
  6000.000000   2447296   2449159   2451063   2452995   2454966  
  5990.000000   2456986   2459084   2461280   2463595   2466022  
  5980.000000   2468556   2471168   2473843   2476558   2479311  
  5970.000000   2482091   2484902   2487735   2490599   2493488  
  5960.000000   2496420   2499399   2502440   2505538   2508688  
  5950.000000   2511869   2515067   2518271   2521495   2524762  
  5940.000000   2528107   2531559   2535132   2538819   2542593  
  5930.000000   2546416   2550248   2554057   2557818   2561513  
  5920.000000   2565122   2568625   2572001   2575233   2578314  
  5910.000000   2581249   2584051   2586742   2589341   2591875  
  5900.000000   2594367   2596852   2599361   2601932   2604579  
  5890.000000   2607311   2610099   2612910   2615694   2618420  
  5880.000000   2621069   2623643   2626150   2628593   2630962  
  5870.000000   2633231   2635373   2637371   2639238   2641010  
  5860.000000   2642745   2644500   2646313   2648203   2650171  
  5850.000000   2652213   2654331   2656545   2658875   2661334  
  5840.000000   2663911   2666564   2669230   2671844   2674362  
  5830.000000   2676769   2679088   2681357   2683621   2685901  
  5820.000000   2688207   2690525   2692845   2695160   2697475  
  5810.000000   2699802   2702142   2704496   2706839   2709169  
  5800.000000   2711473   2713785   2716125   2718546   2721045  
  5790.000000   2723619   2726182   2728645   2730860   2732709  
  5780.000000   2734051   2734801   2734875   2734254   2732944  
  5770.000000   2731025   2728610   2725877   2722998   2720158  
  5760.000000   2717473   2715027   2712819   2710834   2709016  
  5750.000000   2707341   2705780   2704336   2703002   2701770  
  5740.000000   2700619   2699513   2698430   2697344   2696263  
  5730.000000   2695188   2694144   2693133   2692168   2691240  
  5720.000000   2690356   2689516   2688734   2688014   2687363  
  5710.000000   2686768   2686217   2685689   2685177   2684679  
  5700.000000   2684207   2683770   2683369   2682994   2682625  
  5690.000000   2682247   2681849   2681446   2681056   2680709  
  5680.000000   2680405   2680137   2679857   2679514   2679040  
  5670.000000   2678386   2677504   2676371   2674963   2673277  
  5660.000000   2671313   2669104   2666700   2664186   2661654  
  5650.000000   2659199   2656885   2654749   2652782   2650960  
  5640.000000   2649235   2647575   2645948   2644340   2642742  
  5630.000000   2641145   2639548   2637950   2636371   2634831  
  5620.000000   2633365   2631997   2630742   2629591   2628527  
  5610.000000   2627518   2626543   2625584   2624639   2623704  
  5600.000000   2622778   2621851   2620912   2619950   2618969  
  5590.000000   2617979   2617001   2616048   2615124   2614215  
  5580.000000   2613300   2612361   2611393   2610410   2609437  
  5570.000000   2608497   2607600   2606732   2605860   2604945  
  5560.000000   2603959   2602892   2601758   2600589   2599415  
  5550.000000   2598262   2597138   2596041   2594962   2593896  
  5540.000000   2592838   2591788   2590739   2589687   2588623  
  5530.000000   2587545   2586459   2585382   2584328   2583312  
  5520.000000   2582327   2581357   2580372   2579345   2578258  
  5510.000000   2577113   2575918   2574688   2573425   2572128  
  5500.000000   2570787   2569400   2567977   2566547   2565138  
  5490.000000   2563776   2562459   2561165   2559851   2558479  
  5480.000000   2557021   2555478   2553868   2552224   2550567  
  5470.000000   2548907   2547233   2545533   2543793   2542015  
  5460.000000   2540206   2538375   2536521   2534634   2532698  
  5450.000000   2530708   2528671   2526618   2524589   2522615  
  5440.000000   2520711   2518862   2517043   2515223   2513400  
  5430.000000   2511584   2509810   2508100   2506470   2504903  
  5420.000000   2503384   2501895   2500455   2499098   2497891  
  5410.000000   2496874   2496072   2495448   2494957   2494528  
  5400.000000   2494136   2493767   2493467   2493270   2493225  
  5390.000000   2493331   2493583   2493936   2494383   2494911  
  5380.000000   2495562   2496364   2497368   2498565   2499955  
  5370.000000   2501484   2503133   2504856   2506676   2508581  
  5360.000000   2510622   2512795   2515155   2517699   2520502  
  5350.000000   2523583   2527041   2530892   2535210   2539956  
  5340.000000   2545154   2550728   2556709   2563045   2569807  
  5330.000000   2576962   2584582   2592613   2601106   2610001  
  5320.000000   2619378   2629218   2639658   2650702   2662491  
  5310.000000   2674992   2688288   2702292   2717057   2732498  
  5300.000000   2748699   2765624   2783403   2802034   2821653  
  5290.000000   2842232   2863835   2886342   2909710   2933746  
  5280.000000   2958384   2983495   3009128   3035298   3062157  
  5270.000000   3089750   3118124   3147151   3176653   3206367  
  5260.000000   3236081   3265674   3295137   3324558   3354012  
  5250.000000   3383542   3413025   3442283   3471001   3498978  
  5240.000000   3526001   3552106   3577311   3601832   3625746  
  5230.000000   3649214   3672165   3694586   3716263   3737124  
  5220.000000   3756990   3775913   3793866   3811040   3827486  
  5210.000000   3843399   3858750   3873597   3887775   3901252  
  5200.000000   3913855   3925632   3936532   3946712   3956181  
  5190.000000   3965083   3973363   3981073   3988100   3994481  
  5180.000000   4000134   4005149   4009494   4013265   4016408  
  5170.000000   4018981   4020909   4022257   4022997   4023237  
  5160.000000   4022985   4022341   4021270   4019815   4017904  
  5150.000000   4015566   4012766   4009582   4006026   4002189  
  5140.000000   3998075   3993740   3989159   3984371   3979364  
  5130.000000   3974192   3968857   3963408   3957827   3952129  
  5120.000000   3946283   3940302   3934179   3927955   3921654  
  5110.000000   3915319   3908961   3902592   3896201   3889788  
  5100.000000   3883349   3876900   3870451   3864023   3857620  
  5090.000000   3851254   3844921   3838636   3832407   3826252  
  5080.000000   3820172   3814164   3808192   3802218   3796191  
  5070.000000   3790081   3783871   3777576   3771218   3764829  
  5060.000000   3758425   3752011   3745574   3739101   3732576  
  5050.000000   3726005   3719392   3712757   3706105   3699442  
  5040.000000   3692751   3686020   3679229   3672371   3665452  
  5030.000000   3658491   3651517   3644562   3637659   3630829  
  5020.000000   3624093   3617453   3610913   3604458   3598087  
  5010.000000   3591784   3585562   3579419   3573393   3567499  
  5000.000000   3561783   3556256   3550953   3545863   3541007  
  4990.000000   3536362   3531955   3527769   3523844   3520168  
  4980.000000   3516780   3513659   3510835   3508275   3506013  
  4970.000000   3504019   3502340   3500958   3499925   3499222  
  4960.000000   3498900   3498933   3499370   3500185   3501428  
  4950.000000   3503067   3505142   3507604   3510474   3513690  
  4940.000000   3517271   3521164   3525406   3529962   3534882  
  4930.000000   3540133   3545758   3551715   3558035   3564681  
  4920.000000   3571683   3579011   3586698   3594712   3603072  
  4910.000000   3611737   3620706   3629932   3639402   3649065  
  4900.000000   3658901   3668866   3678935   3689076   3699262  
  4890.000000   3709473   3719675   3729839   3739907   3749836  
  4880.000000   3759552   3769016   3778161   3786978   3795416  
  4870.000000   3803479   3811113   3818317   3825028   3831252  
  4860.000000   3836946   3842152   3846867   3851162   3855046  
  4850.000000   3858588   3861782   3864682   3867278   3869625  
  4840.000000   3871731   3873665   3875448   3877143   3878767  
  4830.000000   3880360   3881923   3883478   3885020   3886560  
  4820.000000   3888091   3889617   3891130   3892634   3894129  
  4810.000000   3895626   3897144   3898703   3900328   3902038  
  4800.000000   3903847   3905753   3907751   3909820   3911939  
  4790.000000   3914081   3916227   3918358   3920468   3922561  
  4780.000000   3924644   3926733   3928836   3930959   3933094  
  4770.000000   3935228   3937335   3939398   3941396   3943322  
  4760.000000   3945168   3946938   3948626   3950233   3951741  
  4750.000000   3953146   3954434   3955608   3956666   3957630  
  4740.000000   3958506   3959318   3960067   3960761   3961387  
  4730.000000   3961942   3962410   3962788   3963072   3963275  
  4720.000000   3963408   3963493   3963553   3963610   3963686  
  4710.000000   3963802   3963980   3964238   3964600   3965080  
  4700.000000   3965695   3966448   3967341   3968366   3969517  
  4690.000000   3970781   3972158   3973641   3975234   3976925  
  4680.000000   3978707   3980549   3982422   3984274   3986070  
  4670.000000   3987764   3989339   3990780   3992106   3993336  
  4660.000000   3994520   3995701   3996940   3998288   3999798  
  4650.000000   4001502   4003419   4005546   4007867   4010349  
  4640.000000   4012957   4015660   4018428   4021246   4024094  
  4630.000000   4026956   4029805   4032609   4035323   4037908  
  4620.000000   4040313   4042510   4044462   4046159   4047585  
  4610.000000   4048753   4049665   4050357   4050851   4051201  
  4600.000000   4051432   4051599   4051710   4051798   4051845  
  4590.000000   4051855   4051788   4051632   4051336   4050880  
  4580.000000   4050218   4049339   4048214   4046858   4045273  
  4570.000000   4043499   4041562   4039511   4037369   4035169  
  4560.000000   4032914   4030617   4028262   4025850   4023365  
  4550.000000   4020810   4018175   4015471   4012699   4009878  
  4540.000000   4007022   4004153   4001291   3998450   3995643  
  4530.000000   3992866   3990124   3987402   3984713   3982053  
  4520.000000   3979463   3976958   3974600   3972404   3970431  
  4510.000000   3968675   3967193   3965968   3965071   3964499  
  4500.000000   3964349   3964628   3965439   3966776   3968729  
  4490.000000   3971269   3974480   3978331   3982913   3988203  
  4480.000000   3994295   4001158   4008862   4017348   4026653  
  4470.000000   4036691   4047474   4058902   4070975   4083590  
  4460.000000   4096739   4110322   4124323   4138645   4153266  
  4450.000000   4168095   4183108   4198233   4213451   4228721  
  4440.000000   4244033   4259373   4274727   4290093   4305438  
  4430.000000   4320754   4335979   4351094   4366004   4380675  
  4420.000000   4394989   4408905   4422295   4435127   4447287  
  4410.000000   4458759   4469448   4479359   4488415   4496646  
  4400.000000   4504008   4510574   4516354   4521472   4525992  
  4390.000000   4530072   4533804   4537344   4540767   4544186  
  4380.000000   4547628   4551139   4554705   4558341   4562036  
  4370.000000   4565821   4569729   4573818   4578142   4582746  
  4360.000000   4587656   4592875   4598375   4604133   4610078  
  4350.000000   4616185   4622357   4628585   4634778   4640965  
  4340.000000   4647092   4653205   4659216   4665036   4670364  
  4330.000000   4674816   4677833   4678877   4677473   4673419  
  4320.000000   4666819   4658160   4648174   4637758   4627729  
  4310.000000   4618756   4611187   4605139   4600473   4596973  
  4300.000000   4594373   4592476   4591149   4590309   4589926  
  4290.000000   4589938   4590326   4591016   4592006   4593248  
  4280.000000   4594759   4596515   4598503   4600684   4603007  
  4270.000000   4605438   4607928   4610443   4612889   4615127  
  4260.000000   4616910   4617939   4617872   4616438   4613483  
  4250.000000   4609058   4603392   4596891   4590011   4583228  
  4240.000000   4576889   4571241   4566343   4562164   4558562  
  4230.000000   4555386   4552466   4549665   4546884   4544051  
  4220.000000   4541164   4538226   4535327   4532533   4529985  
  4210.000000   4527758   4525964   4524628   4523785   4523397  
  4200.000000   4523439   4523837   4524552   4525501   4526646  
  4190.000000   4527905   4529252   4530619   4532010   4533382  
  4180.000000   4534773   4536170   4537634   4539171   4540859  
  4170.000000   4542724   4544864   4547317   4550181   4553475  
  4160.000000   4557261   4561510   4566239   4571385   4576957  
  4150.000000   4582898   4589242   4595952   4603084   4610607  
  4140.000000   4618580   4626968   4635825   4645111   4654871  
  4130.000000   4665055   4675692   4686722   4698168   4709983  
  4120.000000   4722212   4734841   4747943   4761530   4775674  
  4110.000000   4790369   4805648   4821457   4837772   4854493  
  4100.000000   4871556   4888850   4906310   4923858   4941464  
  4090.000000   4959102   4976775   4994488   5012246   5030065  
  4080.000000   5047938   5065884   5083877   5101925   5119963  
  4070.000000   5137953   5155765   5173323   5190472   5207161  
  4060.000000   5223283   5238853   5253815   5268223   5282024  
  4050.000000   5295284   5307948   5320103   5331707   5342853  
  4040.000000   5353470   5363604   5373121   5382024   5390172  
  4030.000000   5397601   5404222   5410117   5415238   5419651  
  4020.000000   5423266   5426143   5428254   5429683   5430388  
  4010.000000   5430514   5430141   5429283   5427701   5425444  
  4000.000000   5422844  
##END= 
