##TITLE= Sample 023 By ssteindl date Montag, November 26 2018
##JCAMP-DX= 4.24
##DATA TYPE= INFRARED SPECTRUM
##ORIGIN= Exported PE Spectrum Data File
##OWNER= Sandra Steindl
##DATE= 18/11/26
##TIME= 11:42:35.00
##SPECTROMETER/DATA SYSTEM= PERKIN-ELMER Frontier FT-IR/NIR IR
##INSTRUMENT PARAMETERS=
  APODIZATION=stark
  DETECTOR=INGAAS
##RESOLUTION= 16.000000
##DELTAX= -2.000000
##XUNITS= 1/CM
##YUNITS= A
##XFACTOR= 1.00
##YFACTOR= 0.00000011920928955078
##FIRSTX= 10000.00
##LASTX= 4000.00
##NPOINTS= 3001
##FIRSTY= 0.290240
##MAXY= 0.654683
##MINY= 0.231386
##XYDATA= (X++(Y..Y))
 10000.000000   2434712   2434702   2435853   2439119   2443442  
  9990.000000   2446805   2448224   2448126   2447449   2447257  
  9980.000000   2448596   2452068   2457294   2463160   2468408  
  9970.000000   2472185   2474210   2474836   2474657   2474180  
  9960.000000   2473485   2472334   2470393   2467581   2464241  
  9950.000000   2460991   2458423   2456696   2455370   2453580  
  9940.000000   2450397   2445420   2438989   2432268   2426755  
  9930.000000   2423797   2424026   2427207   2432343   2438079  
  9920.000000   2443160   2446683   2448255   2447769   2445383  
  9910.000000   2441289   2435877   2429670   2423446   2418041  
  9900.000000   2414214   2412370   2412478   2414118   2416669  
  9890.000000   2419623   2422687   2425889   2429329   2433035  
  9880.000000   2436759   2440055   2442472   2443805   2444260  
  9870.000000   2444341   2444622   2445380   2446449   2447232  
  9860.000000   2446976   2445120   2441519   2436552   2430913  
  9850.000000   2425425   2420728   2417221   2414991   2413997  
  9840.000000   2414102   2415166   2416943   2419020   2420827  
  9830.000000   2421728   2421315   2419517   2416752   2413672  
  9820.000000   2410983   2409061   2407887   2407089   2406233  
  9810.000000   2405153   2404085   2403673   2404590   2407269  
  9800.000000   2411547   2416720   2421719   2425491   2427365  
  9790.000000   2427168   2425276   2422276   2418777   2415116  
  9780.000000   2411350   2407393   2403166   2398849   2394809  
  9770.000000   2391632   2389814   2389730   2391390   2394517  
  9760.000000   2398499   2402493   2405596   2406912   2405882  
  9750.000000   2402262   2396366   2388857   2380721   2372951  
  9740.000000   2366415   2361686   2359035   2358520   2360027  
  9730.000000   2363413   2368377   2374512   2381144   2387466  
  9720.000000   2392660   2396119   2397693   2397652   2396647  
  9710.000000   2395294   2393992   2392647   2390877   2388205  
  9700.000000   2384461   2379964   2375444   2371819   2369716  
  9690.000000   2369301   2370151   2371593   2373001   2374145  
  9680.000000   2375220   2376678   2378856   2381704   2384681  
  9670.000000   2386976   2387860   2387064   2384930   2382282  
  9660.000000   2380047   2378848   2378711   2379103   2379175  
  9650.000000   2378161   2375682   2371834   2367101   2362059  
  9640.000000   2357170   2352636   2348455   2344591   2341099  
  9630.000000   2338214   2336223   2335389   2335770   2337286  
  9620.000000   2339709   2342819   2346402   2350222   2353977  
  9610.000000   2357142   2359128   2359257   2357147   2352758  
  9600.000000   2346588   2339473   2332381   2326130   2321229  
  9590.000000   2317922   2316285   2316406   2318358   2322141  
  9580.000000   2327455   2333632   2339633   2344338   2346877  
  9570.000000   2346976   2345094   2342272   2339801   2338718  
  9560.000000   2339494   2341875   2345040   2347921   2349529  
  9550.000000   2349253   2346921   2342799   2337433   2331535  
  9540.000000   2325846   2321038   2317601   2315748   2315327  
  9530.000000   2315837   2316540   2316741   2316028   2314522  
  9520.000000   2312804   2311735   2312009   2313866   2316918  
  9510.000000   2320286   2322962   2324144   2323576   2321499  
  9500.000000   2318560   2315409   2312480   2309797   2307060  
  9490.000000   2303893   2300069   2295754   2291436   2287856  
  9480.000000   2285693   2285430   2287163   2290649   2295287  
  9470.000000   2300243   2304527   2307139   2307325   2304733  
  9460.000000   2299680   2293044   2286176   2280388   2276648  
  9450.000000   2275188   2275519   2276630   2277362   2276916  
  9440.000000   2275076   2272414   2269953   2268876   2269971  
  9430.000000   2273415   2278680   2284743   2290388   2294479  
  9420.000000   2296215   2295217   2291627   2286004   2279254  
  9410.000000   2272373   2266281   2261557   2258368   2256401  
  9400.000000   2255019   2253505   2251321   2248431   2245256  
  9390.000000   2242652   2241473   2242325   2245276   2249861  
  9380.000000   2255273   2260556   2264922   2267789   2268905  
  9370.000000   2268210   2265859   2262124   2257451   2252420  
  9360.000000   2247719   2244008   2241759   2241111   2241801  
  9350.000000   2243292   2244918   2246179   2246805   2246838  
  9340.000000   2246463   2245902   2245311   2244733   2244217  
  9330.000000   2243800   2243625   2243783   2244290   2244941  
  9320.000000   2245353   2245073   2243762   2241474   2238661  
  9310.000000   2236162   2234826   2235279   2237632   2241495  
  9300.000000   2246079   2250447   2253756   2255416   2255162  
  9290.000000   2252988   2249093   2243804   2237607   2231126  
  9280.000000   2225094   2220212   2216958   2215430   2215296  
  9270.000000   2215937   2216659   2216977   2216729   2216137  
  9260.000000   2215592   2215455   2215828   2216526   2217235  
  9250.000000   2217693   2217903   2218087   2218589   2219568  
  9240.000000   2220869   2221951   2222127   2220780   2217710  
  9230.000000   2213241   2208178   2203525   2200075   2198229  
  9220.000000   2197862   2198603   2200006   2201850   2204155  
  9210.000000   2207068   2210642   2214605   2218328   2220870  
  9200.000000   2221332   2219148   2214428   2207882   2200704  
  9190.000000   2194202   2189518   2187327   2187685   2190136  
  9180.000000   2193870   2198015   2201779   2204618   2206268  
  9170.000000   2206801   2206529   2205894   2205322   2205121  
  9160.000000   2205468   2206337   2207548   2208804   2209797  
  9150.000000   2210302   2210157   2209323   2207794   2205650  
  9140.000000   2202997   2200001   2196874   2193858   2191190  
  9130.000000   2189015   2187327   2185970   2184667   2183145  
  9120.000000   2181202   2178865   2176370   2174136   2172588  
  9110.000000   2172038   2172566   2173947   2175704   2177215  
  9100.000000   2177935   2177469   2175711   2172805   2169157  
  9090.000000   2165270   2161649   2158666   2156546   2155333  
  9080.000000   2154941   2155201   2155915   2156916   2158051  
  9070.000000   2159213   2160311   2161295   2162147   2162872  
  9060.000000   2163496   2164024   2164457   2164739   2164787  
  9050.000000   2164500   2163818   2162762   2161440   2160027  
  9040.000000   2158676   2157490   2156455   2155484   2154457  
  9030.000000   2153308   2152084   2150927   2150024   2149493  
  9020.000000   2149311   2149290   2149145   2148633   2147685  
  9010.000000   2146470   2145360   2144804   2145158   2146539  
  9000.000000   2148744   2151334   2153775   2155599   2156547  
  8990.000000   2156597   2155947   2154867   2153595   2152259  
  8980.000000   2150880   2149427   2147857   2146204   2144567  
  8970.000000   2143128   2142051   2141482   2141472   2141976  
  8960.000000   2142832   2143771   2144480   2144616   2143927  
  8950.000000   2142282   2139789   2136752   2133636   2130949  
  8940.000000   2129119   2128389   2128763   2130051   2131953  
  8930.000000   2134151   2136359   2138366   2140012   2141177  
  8920.000000   2141755   2141685   2141024   2139943   2138752  
  8910.000000   2137768   2137262   2137304   2137744   2138233  
  8900.000000   2138351   2137783   2136421   2134463   2132304  
  8890.000000   2130470   2129419   2129450   2130610   2132701  
  8880.000000   2135359   2138130   2140587   2142353   2143156  
  8870.000000   2142840   2141398   2138998   2135971   2132787  
  8860.000000   2129990   2128102   2127500   2128313   2130345  
  8850.000000   2133134   2136016   2138316   2139462   2139168  
  8840.000000   2137498   2134845   2131826   2129080   2127114  
  8830.000000   2126133   2126029   2126401   2126736   2126578  
  8820.000000   2125696   2124162   2122284   2120507   2119226  
  8810.000000   2118675   2118877   2119662   2120794   2122023  
  8800.000000   2123190   2124189   2124957   2125416   2125472  
  8790.000000   2125057   2124198   2123068   2121992   2121342  
  8780.000000   2121425   2122337   2123908   2125742   2127343  
  8770.000000   2128303   2128445   2127890   2126992   2126190  
  8760.000000   2125826   2126038   2126709   2127575   2128335  
  8750.000000   2128804   2128976   2129003   2129102   2129418  
  8740.000000   2129947   2130492   2130749   2130401   2129279  
  8730.000000   2127410   2125055   2122630   2120602   2119384  
  8720.000000   2119215   2120150   2122034   2124591   2127469  
  8710.000000   2130331   2132894   2134953   2136402   2137196  
  8700.000000   2137371   2136980   2136142   2134983   2133684  
  8690.000000   2132421   2131371   2130683   2130445   2130703  
  8680.000000   2131412   2132508   2133882   2135456   2137144  
  8670.000000   2138881   2140593   2142188   2143559   2144578  
  8660.000000   2145144   2145185   2144720   2143824   2142657  
  8650.000000   2141400   2140254   2139372   2138848   2138709  
  8640.000000   2138918   2139409   2140076   2140851   2141679  
  8630.000000   2142589   2143646   2144960   2146639   2148722  
  8620.000000   2151139   2153664   2155954   2157593   2158217  
  8610.000000   2157619   2155848   2153225   2150286   2147648  
  8600.000000   2145836   2145150   2145563   2146761   2148241  
  8590.000000   2149484   2150126   2150055   2149430   2148585  
  8580.000000   2147894   2147637   2147913   2148638   2149614  
  8570.000000   2150653   2151682   2152772   2154083   2155768  
  8560.000000   2157857   2160186   2162406   2164071   2164802  
  8550.000000   2164396   2162929   2160725   2158282   2156120  
  8540.000000   2154645   2154059   2154354   2155352   2156780  
  8530.000000   2158350   2159809   2160991   2161795   2162223  
  8520.000000   2162339   2162307   2162352   2162724   2163639  
  8510.000000   2165186   2167295   2169699   2171995   2173729  
  8500.000000   2174535   2174231   2172890   2170809   2168448  
  8490.000000   2166293   2164746   2164035   2164196   2165093  
  8480.000000   2166483   2168105   2169745   2171285   2172694  
  8470.000000   2174009   2175296   2176607   2177959   2179327  
  8460.000000   2180667   2181936   2183131   2184275   2185420  
  8450.000000   2186609   2187847   2189081   2190191   2191030  
  8440.000000   2191460   2191410   2190892   2190025   2188994  
  8430.000000   2188019   2187281   2186904   2186917   2187275  
  8420.000000   2187854   2188506   2189075   2189450   2189564  
  8410.000000   2189429   2189125   2188774   2188512   2188423  
  8400.000000   2188525   2188732   2188893   2188837   2188446  
  8390.000000   2187711   2186740   2185757   2185012   2184725  
  8380.000000   2184980   2185724   2186770   2187866   2188754  
  8370.000000   2189236   2189208   2188663   2187670   2186341  
  8360.000000   2184810   2183219   2181714   2180421   2179425  
  8350.000000   2178747   2178342   2178105   2177894   2177594  
  8340.000000   2177142   2176572   2175976   2175483   2175198  
  8330.000000   2175170   2175383   2175745   2176138   2176430  
  8320.000000   2176514   2176308   2175754   2174831   2173565  
  8310.000000   2172056   2170464   2169003   2167880   2167247  
  8300.000000   2167133   2167425   2167879   2168200   2168131  
  8290.000000   2167535   2166427   2164959   2163359   2161848  
  8280.000000   2160584   2159614   2158896   2158334   2157829  
  8270.000000   2157319   2156776   2156218   2155671   2155176  
  8260.000000   2154758   2154428   2154177   2153970   2153749  
  8250.000000   2153419   2152886   2152056   2150895   2149433  
  8240.000000   2147772   2146061   2144449   2143062   2141955  
  8230.000000   2141151   2140630   2140386   2140408   2140688  
  8220.000000   2141173   2141750   2142234   2142399   2142050  
  8210.000000   2141075   2139513   2137533   2135387   2133335  
  8200.000000   2131549   2130101   2128939   2127970   2127092  
  8190.000000   2126269   2125507   2124835   2124236   2123616  
  8180.000000   2122811   2121637   2119966   2117791   2115241  
  8170.000000   2112569   2110069   2108010   2106547   2105714  
  8160.000000   2105415   2105484   2105709   2105879   2105793  
  8150.000000   2105268   2104159   2102377   2099941   2096991  
  8140.000000   2093802   2090720   2088091   2086162   2085013  
  8130.000000   2084538   2084483   2084543   2084447   2084040  
  8120.000000   2083303   2082323   2081232   2080142   2079106  
  8110.000000   2078121   2077157   2076192   2075249   2074375  
  8100.000000   2073633   2073044   2072570   2072095   2071457  
  8090.000000   2070489   2069084   2067227   2065029   2062687  
  8080.000000   2060458   2058588   2057250   2056518   2056335  
  8070.000000   2056558   2056984   2057426   2057750   2057903  
  8060.000000   2057914   2057839   2057726   2057549   2057215  
  8050.000000   2056566   2055464   2053846   2051792   2049524  
  8040.000000   2047359   2045632   2044565   2044231   2044497  
  8030.000000   2045106   2045734   2046117   2046108   2045697  
  8020.000000   2044976   2044071   2043074   2042012   2040854  
  8010.000000   2039551   2038098   2036557   2035059   2033762  
  8000.000000   2032788   2032179   2031862   2031685   2031448  
  7990.000000   2030985   2030205   2029125   2027856   2026560  
  7980.000000   2025405   2024502   2023894   2023533   2023321  
  7970.000000   2023128   2022849   2022419   2021838   2021155  
  7960.000000   2020454   2019826   2019334   2019008   2018834  
  7950.000000   2018774   2018779   2018810   2018842   2018864  
  7940.000000   2018864   2018817   2018679   2018385   2017877  
  7930.000000   2017103   2016058   2014766   2013301   2011758  
  7920.000000   2010247   2008877   2007744   2006923   2006456  
  7910.000000   2006351   2006564   2007015   2007593   2008185  
  7900.000000   2008702   2009089   2009346   2009490   2009555  
  7890.000000   2009544   2009439   2009196   2008780   2008197  
  7880.000000   2007510   2006845   2006347   2006147   2006294  
  7870.000000   2006744   2007347   2007900   2008195   2008088  
  7860.000000   2007533   2006594   2005419   2004188   2003068  
  7850.000000   2002169   2001523   2001103   2000836   2000650  
  7840.000000   2000490   2000339   2000206   2000116   2000080  
  7830.000000   2000084   2000081   2000000   1999774   1999358  
  7820.000000   1998751   1998004   1997202   1996458   1995869  
  7810.000000   1995508   1995396   1995508   1995770   1996078  
  7800.000000   1996302   1996315   1996005   1995305   1994223  
  7790.000000   1992838   1991315   1989848   1988626   1987761  
  7780.000000   1987262   1987025   1986874   1986637   1986207  
  7770.000000   1985602   1984951   1984448   1984259   1984452  
  7760.000000   1984947   1985541   1985974   1986021   1985577  
  7750.000000   1984683   1983512   1982287   1981203   1980359  
  7740.000000   1979735   1979223   1978676   1977980   1977086  
  7730.000000   1976027   1974885   1973767   1972757   1971906  
  7720.000000   1971220   1970664   1970183   1969704   1969161  
  7710.000000   1968494   1967681   1966737   1965724   1964732  
  7700.000000   1963863   1963192   1962745   1962493   1962360  
  7690.000000   1962260   1962127   1961941   1961727   1961535  
  7680.000000   1961402   1961330   1961274   1961153   1960895  
  7670.000000   1960448   1959817   1959038   1958174   1957274  
  7660.000000   1956363   1955445   1954519   1953605   1952758  
  7650.000000   1952067   1951622   1951481   1951639   1952018  
  7640.000000   1952477   1952854   1953011   1952873   1952450  
  7630.000000   1951834   1951164   1950589   1950222   1950118  
  7620.000000   1950260   1950576   1950957   1951293   1951485  
  7610.000000   1951468   1951206   1950694   1949951   1949005  
  7600.000000   1947907   1946711   1945495   1944336   1943311  
  7590.000000   1942476   1941853   1941433   1941177   1941043  
  7580.000000   1941003   1941061   1941244   1941583   1942089  
  7570.000000   1942712   1943353   1943868   1944129   1944054  
  7560.000000   1943662   1943055   1942404   1941883   1941618  
  7550.000000   1941651   1941930   1942340   1942752   1943070  
  7540.000000   1943255   1943328   1943343   1943362   1943426  
  7530.000000   1943553   1943739   1943972   1944247   1944559  
  7520.000000   1944906   1945267   1945615   1945912   1946139  
  7510.000000   1946306   1946461   1946677   1947028   1947561  
  7500.000000   1948285   1949159   1950124   1951120   1952118  
  7490.000000   1953124   1954170   1955280   1956457   1957652  
  7480.000000   1958789   1959772   1960543   1961082   1961444  
  7470.000000   1961719   1962023   1962453   1963063   1963865  
  7460.000000   1964831   1965932   1967142   1968462   1969903  
  7450.000000   1971471   1973153   1974894   1976617   1978217  
  7440.000000   1979616   1980761   1981661   1982358   1982934  
  7430.000000   1983480   1984085   1984832   1985779   1986977  
  7420.000000   1988448   1990194   1992170   1994291   1996427  
  7410.000000   1998437   2000196   2001625   2002728   2003571  
  7400.000000   2004281   2004981   2005769   2006671   2007658  
  7390.000000   2008664   2009631   2010546   2011454   2012455  
  7380.000000   2013663   2015162   2016964   2018994   2021116  
  7370.000000   2023160   2024980   2026488   2027682   2028643  
  7360.000000   2029510   2030446   2031593   2033042   2034804  
  7350.000000   2036803   2038892   2040883   2042595   2043907  
  7340.000000   2044785   2045302   2045607   2045894   2046332  
  7330.000000   2047041   2048061   2049358   2050839   2052397  
  7320.000000   2053931   2055377   2056690   2057848   2058835  
  7310.000000   2059645   2060283   2060786   2061226   2061705  
  7300.000000   2062332   2063193   2064324   2065692   2067199  
  7290.000000   2068710   2070091   2071246   2072140   2072801  
  7280.000000   2073306   2073758   2074259   2074885   2075676  
  7270.000000   2076633   2077721   2078886   2080067   2081203  
  7260.000000   2082251   2083182   2083989   2084671   2085248  
  7250.000000   2085734   2086164   2086569   2087004   2087526  
  7240.000000   2088205   2089094   2090235   2091629   2093258  
  7230.000000   2095075   2097035   2099091   2101219   2103395  
  7220.000000   2105611   2107840   2110070   2112266   2114427  
  7210.000000   2116544   2118651   2120774   2122953   2125196  
  7200.000000   2127508   2129868   2132274   2134732   2137288  
  7190.000000   2139993   2142906   2146040   2149369   2152806  
  7180.000000   2156246   2159585   2162779   2165835   2168835  
  7170.000000   2171874   2175055   2178414   2181942   2185558  
  7160.000000   2189174   2192697   2196098   2199394   2202671  
  7150.000000   2206038   2209619   2213503   2217737   2222291  
  7140.000000   2227090   2231998   2236899   2241677   2246301  
  7130.000000   2250776   2255189   2259627   2264209   2268995  
  7120.000000   2274030   2279285   2284726   2290289   2295949  
  7110.000000   2301684   2307516   2313455   2319519   2325690  
  7100.000000   2331943   2338220   2344480   2350676   2356803  
  7090.000000   2362867   2368912   2374989   2381167   2387501  
  7080.000000   2394026   2400729   2407561   2414419   2421195  
  7070.000000   2427781   2434131   2440252   2446224   2452150  
  7060.000000   2458136   2464240   2470478   2476822   2483244  
  7050.000000   2489740   2496346   2503129   2510138   2517378  
  7040.000000   2524768   2532165   2539392   2546303   2552830  
  7030.000000   2559000   2564927   2570759   2576627   2582603  
  7020.000000   2588684   2594821   2600935   2606977   2612915  
  7010.000000   2618761   2624526   2630233   2635878   2641466  
  7000.000000   2646982   2652431   2657804   2663095   2668271  
  6990.000000   2673294   2678116   2682722   2687115   2691358  
  6980.000000   2695513   2699658   2703814   2707981   2712099  
  6970.000000   2716120   2719987   2723698   2727256   2730694  
  6960.000000   2734012   2737206   2740235   2743074   2745715  
  6950.000000   2748202   2750601   2753003   2755466   2758023  
  6940.000000   2760653   2763319   2765967   2768572   2771118  
  6930.000000   2773611   2776044   2778404   2780654   2782766  
  6920.000000   2784717   2786525   2788226   2789887   2791553  
  6910.000000   2793260   2795002   2796756   2798474   2800109  
  6900.000000   2801607   2802926   2804025   2804889   2805528  
  6890.000000   2806002   2806404   2806866   2807505   2808404  
  6880.000000   2809568   2810939   2812399   2813821   2815097  
  6870.000000   2816172   2817044   2817749   2818334   2818841  
  6860.000000   2819294   2819717   2820136   2820591   2821122  
  6850.000000   2821758   2822494   2823291   2824080   2824795  
  6840.000000   2825389   2825864   2826255   2826623   2827015  
  6830.000000   2827458   2827942   2828442   2828924   2829367  
  6820.000000   2829762   2830110   2830401   2830619   2830735  
  6810.000000   2830733   2830605   2830382   2830104   2829824  
  6800.000000   2829576   2829374   2829206   2829056   2828901  
  6790.000000   2828736   2828553   2828348   2828099   2827778  
  6780.000000   2827360   2826841   2826256   2825670   2825162  
  6770.000000   2824794   2824585   2824508   2824503   2824504  
  6760.000000   2824471   2824402   2824321   2824255   2824207  
  6750.000000   2824143   2824009   2823759   2823386   2822937  
  6740.000000   2822502   2822174   2822010   2821999   2822062  
  6730.000000   2822090   2821980   2821687   2821236   2820716  
  6720.000000   2820231   2819868   2819657   2819573   2819548  
  6710.000000   2819509   2819395   2819176   2818843   2818402  
  6700.000000   2817854   2817209   2816471   2815667   2814832  
  6690.000000   2814014   2813250   2812558   2811917   2811288  
  6680.000000   2810609   2809834   2808925   2807883   2806719  
  6670.000000   2805467   2804159   2802831   2801509   2800219  
  6660.000000   2798971   2797768   2796593   2795425   2794235  
  6650.000000   2793009   2791746   2790469   2789202   2787970  
  6640.000000   2786769   2785578   2784352   2783056   2781668  
  6630.000000   2780197   2778671   2777127   2775583   2774032  
  6620.000000   2772441   2770767   2768979   2767080   2765105  
  6610.000000   2763121   2761191   2759370   2757674   2756098  
  6600.000000   2754607   2753167   2751740   2750300   2748825  
  6590.000000   2747298   2745703   2744034   2742299   2740519  
  6580.000000   2738726   2736954   2735228   2733554   2731924  
  6570.000000   2730321   2728730   2727146   2725574   2724028  
  6560.000000   2722521   2721059   2719640   2718259   2716912  
  6550.000000   2715596   2714311   2713050   2711795   2710519  
  6540.000000   2709191   2707791   2706318   2704792   2703255  
  6530.000000   2701748   2700304   2698932   2697620   2696344  
  6520.000000   2695078   2693804   2692514   2691206   2689880  
  6510.000000   2688532   2687160   2685767   2684372   2683007  
  6500.000000   2681712   2680521   2679451   2678489   2677604  
  6490.000000   2676745   2675872   2674957   2673994   2672997  
  6480.000000   2671987   2670987   2670010   2669066   2668158  
  6470.000000   2667285   2666444   2665625   2664812   2663981  
  6460.000000   2663110   2662181   2661195   2660165   2659113  
  6450.000000   2658063   2657028   2656010   2655003   2653999  
  6440.000000   2653003   2652028   2651104   2650256   2649504  
  6430.000000   2648848   2648272   2647744   2647235   2646713  
  6420.000000   2646159   2645564   2644933   2644280   2643634  
  6410.000000   2643033   2642524   2642141   2641904   2641795  
  6400.000000   2641764   2641736   2641632   2641396   2641013  
  6390.000000   2640514   2639969   2639460   2639060   2638805  
  6380.000000   2638691   2638674   2638689   2638665   2638546  
  6370.000000   2638303   2637932   2637458   2636921   2636369  
  6360.000000   2635842   2635363   2634932   2634524   2634102  
  6350.000000   2633631   2633090   2632485   2631840   2631194  
  6340.000000   2630570   2629976   2629386   2628767   2628084  
  6330.000000   2627330   2626523   2625709   2624933   2624224  
  6320.000000   2623571   2622932   2622239   2621436   2620490  
  6310.000000   2619413   2618243   2617040   2615854   2614715  
  6300.000000   2613626   2612577   2611544   2610514   2609466  
  6290.000000   2608389   2607265   2606080   2604822   2603501  
  6280.000000   2602137   2600773   2599441   2598167   2596941  
  6270.000000   2595733   2594491   2593175   2591755   2590238  
  6260.000000   2588646   2587011   2585353   2583674   2581958  
  6250.000000   2580188   2578351   2576457   2574529   2572604  
  6240.000000   2570710   2568870   2567087   2565364   2563692  
  6230.000000   2562070   2560487   2558932   2557382   2555811  
  6220.000000   2554193   2552512   2550772   2548991   2547198  
  6210.000000   2545413   2543649   2541902   2540166   2538439  
  6200.000000   2536735   2535083   2533516   2532058   2530712  
  6190.000000   2529456   2528254   2527065   2525866   2524647  
  6180.000000   2523417   2522189   2520971   2519755   2518531  
  6170.000000   2517286   2516016   2514730   2513443   2512169  
  6160.000000   2510908   2509650   2508377   2507076   2505749  
  6150.000000   2504414   2503099   2501832   2500623   2499466  
  6140.000000   2498340   2497222   2496097   2494961   2493823  
  6130.000000   2492687   2491553   2490407   2489236   2488028  
  6120.000000   2486799   2485579   2484415   2483346   2482398  
  6110.000000   2481563   2480816   2480116   2479435   2478755  
  6100.000000   2478088   2477447   2476860   2476335   2475880  
  6090.000000   2475487   2475158   2474889   2474694   2474572  
  6080.000000   2474528   2474543   2474602   2474675   2474756  
  6070.000000   2474838   2474943   2475087   2475296   2475576  
  6060.000000   2475939   2476378   2476899   2477500   2478193  
  6050.000000   2478977   2479855   2480812   2481840   2482919  
  6040.000000   2484052   2485236   2486486   2487802   2489190  
  6030.000000   2490632   2492118   2493630   2495173   2496749  
  6020.000000   2498381   2500071   2501822   2503610   2505414  
  6010.000000   2507205   2508982   2510754   2512558   2514426  
  6000.000000   2516389   2518447   2520593   2522796   2525038  
  5990.000000   2527300   2529589   2531908   2534275   2536684  
  5980.000000   2539137   2541618   2544128   2546672   2549276  
  5970.000000   2551963   2554763   2557680   2560713   2563834  
  5960.000000   2567023   2570247   2573496   2576752   2580021  
  5950.000000   2583297   2586593   2589914   2593287   2596736  
  5940.000000   2600295   2603983   2607806   2611747   2615765  
  5930.000000   2619811   2623833   2627793   2631665   2635439  
  5920.000000   2639106   2642658   2646081   2649358   2652474  
  5910.000000   2655426   2658217   2660867   2663395   2665832  
  5900.000000   2668204   2670554   2672919   2675353   2677891  
  5890.000000   2680564   2683369   2686282   2689247   2692205  
  5880.000000   2695094   2697870   2700508   2702999   2705348  
  5870.000000   2707563   2709659   2711657   2713585   2715480  
  5860.000000   2717381   2719318   2721306   2723344   2725421  
  5850.000000   2727525   2729656   2731831   2734073   2736408  
  5840.000000   2738840   2741350   2743899   2746437   2748924  
  5830.000000   2751338   2753687   2755992   2758285   2760583  
  5820.000000   2762895   2765213   2767527   2769834   2772134  
  5810.000000   2774441   2776761   2779103   2781453   2783813  
  5800.000000   2786165   2788525   2790887   2793280   2795683  
  5790.000000   2798093   2800439   2802665   2804656   2806326  
  5780.000000   2807558   2808276   2808396   2807890   2806748  
  5770.000000   2805034   2802835   2800305   2797586   2794836  
  5760.000000   2792151   2789609   2787219   2784988   2782892  
  5750.000000   2780937   2779122   2777462   2775956   2774591  
  5740.000000   2773334   2772142   2770982   2769829   2768688  
  5730.000000   2767563   2766478   2765434   2764436   2763468  
  5720.000000   2762527   2761603   2760709   2759851   2759044  
  5710.000000   2758290   2757590   2756937   2756331   2755771  
  5700.000000   2755262   2754806   2754400   2754035   2753692  
  5690.000000   2753365   2753048   2752752   2752487   2752265  
  5680.000000   2752073   2751890   2751664   2751349   2750888  
  5670.000000   2750246   2749385   2748287   2746929   2745306  
  5660.000000   2743412   2741280   2738956   2736522   2734062  
  5650.000000   2731658   2729358   2727186   2725127   2723159  
  5640.000000   2721254   2719398   2717588   2715828   2714116  
  5630.000000   2712443   2710798   2709170   2707566   2706003  
  5620.000000   2704513   2703119   2701835   2700644   2699519  
  5610.000000   2698424   2697340   2696262   2695213   2694221  
  5600.000000   2693312   2692493   2691752   2691059   2690384  
  5590.000000   2689700   2688991   2688250   2687475   2686662  
  5580.000000   2685804   2684899   2683950   2682967   2681966  
  5570.000000   2680957   2679940   2678903   2677825   2676692  
  5560.000000   2675499   2674263   2673006   2671757   2670529  
  5550.000000   2669326   2668131   2666934   2665728   2664529  
  5540.000000   2663358   2662242   2661194   2660203   2659242  
  5530.000000   2658271   2657257   2656179   2655038   2653848  
  5520.000000   2652627   2651393   2650156   2648924   2647703  
  5510.000000   2646504   2645332   2644188   2643058   2641923  
  5500.000000   2640754   2639536   2638267   2636963   2635646  
  5490.000000   2634334   2633020   2631679   2630270   2628762  
  5480.000000   2627140   2625423   2623651   2621878   2620143  
  5470.000000   2618461   2616817   2615182   2613518   2611802  
  5460.000000   2610021   2608176   2606270   2604304   2602277  
  5450.000000   2600196   2598077   2595951   2593855   2591822  
  5440.000000   2589867   2587989   2586172   2584399   2582667  
  5430.000000   2580976   2579338   2577745   2576184   2574617  
  5420.000000   2573021   2571382   2569737   2568146   2566703  
  5410.000000   2565468   2564479   2563701   2563083   2562544  
  5400.000000   2562050   2561578   2561166   2560843   2560657  
  5390.000000   2560603   2560677   2560841   2561092   2561433  
  5380.000000   2561919   2562591   2563507   2564665   2566058  
  5370.000000   2567622   2569328   2571116   2573000   2574958  
  5360.000000   2577035   2579218   2581554   2584029   2586715  
  5350.000000   2589630   2592883   2596508   2600605   2605159  
  5340.000000   2610212   2615698   2621641   2627973   2634740  
  5330.000000   2641890   2649474   2657431   2665812   2674562  
  5320.000000   2683770   2693426   2703675   2714526   2726125  
  5310.000000   2738442   2751568   2765418   2780049   2795377  
  5300.000000   2811479   2828310   2845988   2864497   2883962  
  5290.000000   2904346   2925716   2947955   2971028   2994757  
  5280.000000   3019088   3043900   3069249   3095154   3121764  
  5270.000000   3149121   3177269   3206075   3235355   3264842  
  5260.000000   3294318   3323653   3352830   3381931   3411029  
  5250.000000   3440172   3469251   3498113   3526469   3554139  
  5240.000000   3580927   3606865   3631960   3656400   3680228  
  5230.000000   3703575   3726351   3748539   3769937   3790503  
  5220.000000   3810092   3828787   3846584   3863680   3880116  
  5210.000000   3896061   3911454   3926315   3940447   3953801  
  5200.000000   3966203   3977714   3988310   3998185   4007385  
  5190.000000   4016080   4024232   4031892   4038930   4045358  
  5180.000000   4051069   4056135   4060518   4064325   4067523  
  5170.000000   4070186   4072255   4073788   4074741   4075199  
  5160.000000   4075140   4074648   4073688   4072313   4070472  
  5150.000000   4068220   4065539   4062514   4059152   4055533  
  5140.000000   4051642   4047519   4043122   4038481   4033572  
  5130.000000   4028441   4023085   4017548   4011820   4005926  
  5120.000000   3999857   3993652   3987331   3980962   3974585  
  5110.000000   3968249   3961965   3955739   3949545   3943373  
  5100.000000   3937208   3931056   3924923   3918823   3912756  
  5090.000000   3906724   3900715   3894731   3888769   3882842  
  5080.000000   3876951   3871100   3865274   3859452   3853605  
  5070.000000   3847718   3841772   3835776   3829729   3823645  
  5060.000000   3817519   3811350   3805122   3798831   3792466  
  5050.000000   3786034   3779531   3772962   3766319   3759597  
  5040.000000   3752788   3745898   3738935   3731929   3724909  
  5030.000000   3717905   3710940   3704029   3697175   3690378  
  5020.000000   3683642   3676965   3670361   3663830   3657391  
  5010.000000   3651043   3644807   3638685   3632703   3626866  
  5000.000000   3621202   3615707   3610406   3605282   3600360  
  4990.000000   3595628   3591126   3586851   3582852   3579118  
  4980.000000   3575686   3572525   3569659   3567052   3564744  
  4970.000000   3562714   3561024   3559663   3558693   3558092  
  4960.000000   3557905   3558098   3558716   3559726   3561180  
  4950.000000   3563047   3565365   3568083   3571217   3574698  
  4940.000000   3578539   3582685   3587172   3591968   3597122  
  4930.000000   3602604   3608450   3614617   3621131   3627949  
  4920.000000   3635102   3642559   3650355   3658460   3666898  
  4910.000000   3675634   3684679   3694001   3703603   3713455  
  4900.000000   3723546   3733834   3744285   3754847   3765471  
  4890.000000   3776107   3786703   3797218   3807592   3817787  
  4880.000000   3827740   3837425   3846788   3855832   3864513  
  4870.000000   3872843   3880769   3888291   3895338   3901908  
  4860.000000   3907942   3913470   3918474   3923018   3927109  
  4850.000000   3930819   3934151   3937164   3939858   3942293  
  4840.000000   3944480   3946488   3948340   3950102   3951790  
  4830.000000   3953451   3955084   3956711   3958323   3959924  
  4820.000000   3961502   3963058   3964586   3966094   3967595  
  4810.000000   3969109   3970662   3972278   3973983   3975788  
  4800.000000   3977704   3979727   3981853   3984067   3986355  
  4790.000000   3988697   3991073   3993459   3995841   3998206  
  4780.000000   4000555   4002892   4005226   4007563   4009900  
  4770.000000   4012228   4014527   4016780   4018968   4021087  
  4760.000000   4023133   4025119   4027045   4028921   4030738  
  4750.000000   4032495   4034173   4035769   4037267   4038669  
  4740.000000   4039963   4041159   4042248   4043240   4044134  
  4730.000000   4044939   4045656   4046290   4046838   4047299  
  4720.000000   4047670   4047954   4048163   4048317   4048449  
  4710.000000   4048596   4048800   4049094   4049509   4050065  
  4700.000000   4050781   4051665   4052725   4053961   4055372  
  4690.000000   4056946   4058670   4060516   4062464   4064477  
  4680.000000   4066530   4068586   4070621   4072597   4074500  
  4670.000000   4076301   4078002   4079602   4081127   4082603  
  4660.000000   4084077   4085588   4087187   4088909   4090790  
  4650.000000   4092850   4095098   4097533   4100138   4102887  
  4640.000000   4105747   4108684   4111660   4114650   4117624  
  4630.000000   4120563   4123441   4126238   4128922   4131472  
  4620.000000   4133851   4136039   4138006   4139745   4141237  
  4610.000000   4142493   4143507   4144310   4144910   4145353  
  4600.000000   4145653   4145862   4145991   4146080   4146123  
  4590.000000   4146136   4146090   4145975   4145738   4145356  
  4580.000000   4144774   4143975   4142931   4141656   4140161  
  4570.000000   4138492   4136678   4134766   4132771   4130713  
  4560.000000   4128578   4126363   4124047   4121632   4119118  
  4550.000000   4116527   4113874   4111186   4108473   4105745  
  4540.000000   4103001   4100241   4097471   4094702   4091957  
  4530.000000   4089256   4086626   4084069   4081600   4079195  
  4520.000000   4076864   4074579   4072370   4070228   4068217  
  4510.000000   4066351   4064717   4063339   4062317   4061668  
  4500.000000   4061494   4061798   4062675   4064111   4066189  
  4490.000000   4068884   4072277   4076337   4081145   4086663  
  4480.000000   4092963   4099987   4107791   4116299   4125552  
  4470.000000   4135468   4146077   4157298   4169149   4181544  
  4460.000000   4194490   4207898   4221764   4235999   4250586  
  4450.000000   4265434   4280508   4295720   4311028   4326366  
  4440.000000   4341705   4357017   4372290   4387526   4402705  
  4430.000000   4417829   4432848   4447749   4462446   4476918  
  4420.000000   4491064   4504868   4518227   4531127   4543454  
  4410.000000   4555182   4566182   4576416   4585767   4594235  
  4400.000000   4601767   4608443   4614303   4619500   4624131  
  4390.000000   4628370   4632311   4636100   4639794   4643491  
  4380.000000   4647211   4651007   4654876   4658851   4662930  
  4370.000000   4667146   4671517   4676074   4680840   4685829  
  4360.000000   4691043   4696477   4702106   4707920   4713870  
  4350.000000   4719953   4726090   4732290   4738473   4744679  
  4340.000000   4750858   4757062   4763198   4769173   4774667  
  4330.000000   4779277   4782415   4783520   4782092   4777923  
  4320.000000   4771116   4762173   4751849   4741075   4730696  
  4310.000000   4721407   4713569   4707301   4702451   4698784  
  4300.000000   4696010   4693911   4692340   4691215   4690511  
  4290.000000   4690180   4690220   4690567   4691224   4692148  
  4280.000000   4693357   4694831   4696565   4698530   4700682  
  4270.000000   4702986   4705383   4707824   4710193   4712337  
  4260.000000   4713998   4714876   4714638   4713020   4709870  
  4250.000000   4705237   4699337   4692570   4685382   4678251  
  4240.000000   4671535   4665497   4660209   4655656   4651697  
  4230.000000   4648181   4644934   4641815   4638721   4635583  
  4220.000000   4632394   4629158   4625956   4622846   4619957  
  4210.000000   4617356   4615149   4613356   4612012   4611076  
  4200.000000   4610531   4610309   4610386   4610702   4611250  
  4190.000000   4611977   4612883   4613912   4615065   4616286  
  4180.000000   4617586   4618920   4620320   4621762   4623310  
  4170.000000   4624976   4626860   4629012   4631552   4634535  
  4160.000000   4638059   4642128   4646782   4651955   4657632  
  4150.000000   4663714   4670181   4676947   4684031   4691388  
  4140.000000   4699089   4707126   4715598   4724503   4733929  
  4130.000000   4743850   4754313   4765258   4776704   4788586  
  4120.000000   4800928   4813691   4826926   4840621   4854836  
  4110.000000   4869557   4884814   4900558   4916766   4933345  
  4100.000000   4950237   4967336   4984586   5001921   5019321  
  4090.000000   5036769   5054271   5071834   5089450   5107123  
  4080.000000   5124828   5142567   5160301   5178030   5195680  
  4070.000000   5213219   5230523   5247532   5264111   5280230  
  4060.000000   5295802   5310860   5325352   5339328   5352718  
  4050.000000   5365562   5377777   5389424   5400447   5410937  
  4040.000000   5420844   5430246   5439058   5447330   5454960  
  4030.000000   5462001   5468358   5474076   5479053   5483294  
  4020.000000   5486661   5489184   5490837   5491733   5491879  
  4010.000000   5491469   5490622   5489374   5487498   5485022  
  4000.000000   5482232  
##END= 
