##TITLE= Sample 012 By ssteindl date Dienstag, November 20 2018
##JCAMP-DX= 4.24
##DATA TYPE= INFRARED SPECTRUM
##ORIGIN= Exported PE Spectrum Data File
##OWNER= Sandra Steindl
##DATE= 18/11/20
##TIME= 10:05:03.00
##SPECTROMETER/DATA SYSTEM= PERKIN-ELMER Frontier FT-IR/NIR IR
##INSTRUMENT PARAMETERS=
  APODIZATION=stark
  DETECTOR=INGAAS
##RESOLUTION= 16.000000
##DELTAX= -2.000000
##XUNITS= 1/CM
##YUNITS= A
##XFACTOR= 1.00
##YFACTOR= 0.00000011920928955078
##FIRSTX= 10000.00
##LASTX= 4000.00
##NPOINTS= 3001
##FIRSTY= 0.187715
##MAXY= 0.556982
##MINY= 0.165882
##XYDATA= (X++(Y..Y))
 10000.000000   1574670   1570011   1567044   1567657   1571257  
  9990.000000   1575487   1578444   1579384   1578274   1575596  
  9980.000000   1572479   1570030   1568710   1568154   1567684  
  9970.000000   1566621   1564648   1561928   1559008   1556508  
  9960.000000   1554810   1554008   1553917   1554373   1555316  
  9950.000000   1556870   1559154   1562069   1565186   1567747  
  9940.000000   1568970   1568291   1565685   1561601   1556856  
  9930.000000   1552221   1548247   1545088   1542655   1540816  
  9920.000000   1539563   1539123   1539765   1541704   1544840  
  9910.000000   1548831   1553153   1557339   1561133   1564510  
  9900.000000   1567584   1570366   1572629   1573880   1573556  
  9890.000000   1571321   1567317   1562248   1557185   1553208  
  9880.000000   1550983   1550513   1551123   1551759   1551369  
  9870.000000   1549324   1545570   1540654   1535428   1530819  
  9860.000000   1527498   1525820   1525796   1527192   1529677  
  9850.000000   1532812   1536156   1539145   1541202   1541728  
  9840.000000   1540336   1536932   1531925   1526098   1520588  
  9830.000000   1516495   1514705   1515581   1518904   1523968  
  9820.000000   1529747   1535295   1539911   1543430   1546108  
  9810.000000   1548559   1551419   1555111   1559654   1564603  
  9800.000000   1569218   1572629   1574123   1573298   1570141  
  9790.000000   1565037   1558590   1551586   1544746   1538757  
  9780.000000   1534093   1531067   1529688   1529707   1530559  
  9770.000000   1531504   1531771   1530758   1528225   1524299  
  9760.000000   1519501   1514476   1509914   1506259   1503758  
  9750.000000   1502382   1502008   1502491   1503727   1505696  
  9740.000000   1508325   1511528   1515101   1518836   1522546  
  9730.000000   1526115   1529490   1532551   1535072   1536625  
  9720.000000   1536707   1534850   1530860   1524953   1517809  
  9710.000000   1510463   1504033   1499426   1497030   1496660  
  9700.000000   1497601   1498952   1499868   1499876   1498919  
  9690.000000   1497338   1495689   1494538   1494306   1495109  
  9680.000000   1496815   1499013   1501244   1503009   1503992  
  9670.000000   1504034   1503215   1501791   1500132   1498653  
  9660.000000   1497712   1497570   1498341   1500008   1502434  
  9650.000000   1505426   1508702   1511993   1514928   1517194  
  9640.000000   1518457   1518582   1517623   1515895   1513891  
  9630.000000   1512086   1510789   1509927   1509066   1507449  
  9620.000000   1504274   1498954   1491417   1482224   1472523  
  9610.000000   1463792   1457429   1454402   1454945   1458584  
  9600.000000   1464247   1470636   1476556   1481219   1484397  
  9590.000000   1486329   1487568   1488609   1489760   1490925  
  9580.000000   1491801   1491940   1491072   1489170   1486533  
  9570.000000   1483704   1481266   1479747   1479381   1480156  
  9560.000000   1481743   1483688   1485483   1486741   1487243  
  9550.000000   1486977   1486084   1484813   1483430   1482173  
  9540.000000   1481191   1480529   1480122   1479821   1479468  
  9530.000000   1478928   1478152   1477141   1475931   1474524  
  9520.000000   1472882   1470935   1468636   1466061   1463423  
  9510.000000   1461118   1459599   1459298   1460445   1462997  
  9500.000000   1466599   1470660   1474490   1477424   1478951  
  9490.000000   1478753   1476759   1473134   1468311   1462937  
  9480.000000   1457813   1453738   1451314   1450796   1451961  
  9470.000000   1454174   1456509   1458065   1458210   1456806  
  9460.000000   1454207   1451109   1448260   1446192   1445074  
  9450.000000   1444716   1444744   1444779   1444638   1444340  
  9440.000000   1444073   1443994   1444085   1444097   1443632  
  9430.000000   1442326   1440065   1437034   1433751   1430860  
  9420.000000   1428991   1428525   1429494   1431584   1434211  
  9410.000000   1436762   1438716   1439848   1440204   1440127  
  9400.000000   1440088   1440583   1441920   1444112   1446819  
  9390.000000   1449395   1451080   1451185   1449325   1445505  
  9380.000000   1440141   1433921   1427639   1421980   1417397  
  9370.000000   1414037   1411823   1410530   1409923   1409808  
  9360.000000   1410056   1410590   1411373   1412409   1413768  
  9350.000000   1415545   1417883   1420844   1424415   1428405  
  9340.000000   1432509   1436334   1439517   1441851   1443344  
  9330.000000   1444239   1444889   1445632   1446641   1447899  
  9320.000000   1449180   1450154   1450421   1449667   1447705  
  9310.000000   1444592   1440592   1436174   1431886   1428281  
  9300.000000   1425750   1424441   1424176   1424511   1424884  
  9290.000000   1424811   1424065   1422736   1421179   1419848  
  9280.000000   1419115   1419097   1419653   1420445   1421166  
  9270.000000   1421645   1421940   1422257   1422818   1423730  
  9260.000000   1424901   1426093   1427039   1427579   1427723  
  9250.000000   1427624   1427465   1427335   1427146   1426696  
  9240.000000   1425774   1424298   1422392   1420355   1418570  
  9230.000000   1417292   1416570   1416194   1415834   1415174  
  9220.000000   1414038   1412476   1410712   1409111   1408038  
  9210.000000   1407808   1408610   1410544   1413583   1417525  
  9200.000000   1421931   1426131   1429361   1430925   1430439  
  9190.000000   1427936   1423949   1419337   1415049   1411781  
  9180.000000   1409779   1408827   1408428   1408083   1407502  
  9170.000000   1406741   1406089   1405920   1406416   1407516  
  9160.000000   1408920   1410267   1411306   1411980   1412448  
  9150.000000   1412919   1413558   1414320   1415001   1415316  
  9140.000000   1415080   1414285   1413113   1411825   1410655  
  9130.000000   1409727   1409048   1408588   1408333   1408383  
  9120.000000   1408860   1409888   1411413   1413242   1415050  
  9110.000000   1416545   1417592   1418224   1418633   1418969  
  9100.000000   1419252   1419221   1418449   1416514   1413277  
  9090.000000   1409018   1404427   1400443   1397966   1397566  
  9080.000000   1399276   1402622   1406786   1410883   1414192  
  9070.000000   1416306   1417170   1416998   1416152   1415030  
  9060.000000   1413999   1413390   1413455   1414337   1415987  
  9050.000000   1418186   1420549   1422620   1423953   1424252  
  9040.000000   1423440   1421612   1418970   1415709   1412016  
  9030.000000   1408023   1403869   1399778   1396097   1393267  
  9020.000000   1391659   1391516   1392832   1395368   1398659  
  9010.000000   1402158   1405371   1407916   1409577   1410258  
  9000.000000   1410015   1408972   1407355   1405453   1403632  
  8990.000000   1402250   1401572   1401708   1402561   1403860  
  8980.000000   1405210   1406235   1406679   1406446   1405590  
  8970.000000   1404234   1402537   1400618   1398578   1396521  
  8960.000000   1394631   1393156   1392380   1392544   1393747  
  8950.000000   1395894   1398665   1401613   1404265   1406259  
  8940.000000   1407411   1407751   1407494   1406944   1406410  
  8930.000000   1406112   1406174   1406576   1407209   1407860  
  8920.000000   1408293   1408272   1407638   1406343   1404481  
  8910.000000   1402299   1400158   1398464   1397558   1397646  
  8900.000000   1398750   1400714   1403247   1406012   1408703  
  8890.000000   1411108   1413102   1414645   1415739   1416406  
  8880.000000   1416699   1416688   1416512   1416321   1416290  
  8870.000000   1416506   1416936   1417396   1417590   1417241  
  8860.000000   1416185   1414518   1412568   1410858   1409924  
  8850.000000   1410153   1411648   1414161   1417182   1420075  
  8840.000000   1422296   1423509   1423651   1422908   1421633  
  8830.000000   1420250   1419152   1418653   1418961   1420161  
  8820.000000   1422200   1424860   1427765   1430428   1432354  
  8810.000000   1433172   1432767   1431319   1429275   1427200  
  8800.000000   1425623   1424881   1425050   1425974   1427364  
  8790.000000   1428946   1430554   1432164   1433820   1435555  
  8780.000000   1437304   1438892   1440086   1440674   1440591  
  8770.000000   1439923   1438931   1437932   1437235   1437031  
  8760.000000   1437379   1438212   1439383   1440741   1442147  
  8750.000000   1443524   1444833   1446096   1447370   1448745  
  8740.000000   1450308   1452106   1454115   1456210   1458193  
  8730.000000   1459823   1460922   1461432   1461456   1461226  
  8720.000000   1461006   1461002   1461283   1461777   1462326  
  8710.000000   1462782   1463090   1463329   1463662   1464260  
  8700.000000   1465185   1466370   1467615   1468696   1469469  
  8690.000000   1469947   1470315   1470840   1471764   1473163  
  8680.000000   1474915   1476705   1478170   1479000   1479088  
  8670.000000   1478536   1477644   1476794   1476330   1476487  
  8660.000000   1477336   1478822   1480814   1483164   1485748  
  8650.000000   1488447   1491131   1493636   1495780   1497386  
  8640.000000   1498360   1498719   1498659   1498478   1498547  
  8630.000000   1499155   1500438   1502315   1504513   1506675  
  8620.000000   1508464   1509723   1510516   1511144   1512014  
  8610.000000   1513506   1515809   1518839   1522248   1525523  
  8600.000000   1528162   1529826   1530449   1530246   1529623  
  8590.000000   1529045   1528876   1529301   1530298   1531706  
  8580.000000   1533295   1534873   1536324   1537628   1538803  
  8570.000000   1539875   1540831   1541627   1542219   1542590  
  8560.000000   1542796   1542935   1543143   1543534   1544162  
  8550.000000   1545022   1546039   1547135   1548240   1549355  
  8540.000000   1550525   1551835   1553351   1555072   1556898  
  8530.000000   1558643   1560079   1560995   1561270   1560914  
  8520.000000   1560086   1559047   1558090   1557454   1557263  
  8510.000000   1557500   1558031   1558665   1559228   1559619  
  8500.000000   1559843   1559981   1560155   1560472   1560996  
  8490.000000   1561729   1562647   1563718   1564954   1566390  
  8480.000000   1568087   1570069   1572307   1574687   1577027  
  8470.000000   1579122   1580795   1581954   1582620   1582921  
  8460.000000   1583063   1583271   1583731   1584532   1585647  
  8450.000000   1586939   1588200   1589207   1589793   1589898  
  8440.000000   1589587   1589040   1588496   1588205   1588360  
  8430.000000   1589065   1590313   1592023   1594056   1596264  
  8420.000000   1598494   1600618   1602525   1604132   1605376  
  8410.000000   1606244   1606766   1607027   1607125   1607163  
  8400.000000   1607206   1607281   1607363   1607403   1607347  
  8390.000000   1607156   1606795   1606234   1605424   1604333  
  8380.000000   1602957   1601377   1599751   1598337   1597421  
  8370.000000   1597238   1597866   1599187   1600893   1602573  
  8360.000000   1603822   1604362   1604121   1603230   1601973  
  8350.000000   1600656   1599530   1598713   1598210   1597931  
  8340.000000   1597760   1597599   1597397   1597150   1596870  
  8330.000000   1596571   1596250   1595903   1595528   1595133  
  8320.000000   1594736   1594350   1593995   1593685   1593442  
  8310.000000   1593294   1593272   1593397   1593655   1593988  
  8300.000000   1594293   1594460   1594414   1594163   1593802  
  8290.000000   1593492   1593394   1593611   1594137   1594852  
  8280.000000   1595549   1596009   1596061   1595643   1594785  
  8270.000000   1593599   1592224   1590804   1589453   1588249  
  8260.000000   1587224   1586370   1585624   1584891   1584025  
  8250.000000   1582905   1581461   1579758   1577987   1576434  
  8240.000000   1575373   1574961   1575161   1575717   1576227  
  8230.000000   1576258   1575510   1573909   1571656   1569139  
  8220.000000   1566804   1565012   1563930   1563523   1563587  
  8210.000000   1563858   1564099   1564178   1564059   1563773  
  8200.000000   1563350   1562784   1562023   1560991   1559636  
  8190.000000   1557949   1555994   1553879   1551734   1549684  
  8180.000000   1547813   1546189   1544832   1543760   1542958  
  8170.000000   1542399   1542012   1541697   1541328   1540780  
  8160.000000   1539963   1538833   1537419   1535782   1534024  
  8150.000000   1532226   1530463   1528768   1527163   1525660  
  8140.000000   1524282   1523069   1522068   1521329   1520874  
  8130.000000   1520695   1520736   1520911   1521111   1521231  
  8120.000000   1521191   1520946   1520508   1519917   1519242  
  8110.000000   1518531   1517811   1517056   1516210   1515203  
  8100.000000   1513991   1512586   1511068   1509582   1508295  
  8090.000000   1507351   1506818   1506669   1506777   1506969  
  8080.000000   1507066   1506948   1506580   1506016   1505368  
  8070.000000   1504756   1504266   1503916   1503658   1503398  
  8060.000000   1503034   1502486   1501718   1500739   1499587  
  8050.000000   1498316   1496972   1495601   1494242   1492944  
  8040.000000   1491755   1490724   1489876   1489207   1488673  
  8030.000000   1488205   1487734   1487210   1486625   1486006  
  8020.000000   1485400   1484840   1484336   1483856   1483351  
  8010.000000   1482777   1482131   1481448   1480812   1480301  
  8000.000000   1479970   1479808   1479745   1479669   1479476  
  7990.000000   1479104   1478569   1477950   1477368   1476933  
  7980.000000   1476703   1476668   1476751   1476842   1476836  
  7970.000000   1476670   1476335   1475877   1475365   1474875  
  7960.000000   1474460   1474144   1473921   1473755   1473600  
  7950.000000   1473394   1473087   1472634   1472021   1471263  
  7940.000000   1470421   1469587   1468870   1468368   1468143  
  7930.000000   1468203   1468499   1468942   1469433   1469889  
  7920.000000   1470264   1470551   1470775   1470962   1471129  
  7910.000000   1471262   1471336   1471312   1471175   1470926  
  7900.000000   1470599   1470236   1469878   1469547   1469245  
  7890.000000   1468968   1468714   1468507   1468393   1468431  
  7880.000000   1468669   1469118   1469741   1470453   1471150  
  7870.000000   1471736   1472166   1472447   1472648   1472860  
  7860.000000   1473167   1473607   1474165   1474777   1475360  
  7850.000000   1475841   1476184   1476397   1476522   1476614  
  7840.000000   1476717   1476860   1477043   1477265   1477517  
  7830.000000   1477802   1478116   1478450   1478771   1479030  
  7820.000000   1479160   1479114   1478862   1478432   1477883  
  7810.000000   1477311   1476808   1476450   1476268   1476245  
  7800.000000   1476319   1476395   1476365   1476126   1475605  
  7790.000000   1474776   1473667   1472369   1471020   1469778  
  7780.000000   1468787   1468141   1467855   1467869   1468058  
  7770.000000   1468277   1468398   1468350   1468125   1467767  
  7760.000000   1467345   1466910   1466484   1466041   1465535  
  7750.000000   1464927   1464211   1463433   1462677   1462047  
  7740.000000   1461617   1461420   1461422   1461533   1461636  
  7730.000000   1461609   1461364   1460849   1460064   1459040  
  7720.000000   1457845   1456558   1455283   1454125   1453193  
  7710.000000   1452566   1452278   1452304   1452550   1452885  
  7700.000000   1453166   1453300   1453264   1453128   1453025  
  7690.000000   1453092   1453417   1453978   1454644   1455195  
  7680.000000   1455412   1455145   1454379   1453238   1451952  
  7670.000000   1450776   1449907   1449438   1449335   1449481  
  7660.000000   1449729   1449962   1450129   1450244   1450353  
  7650.000000   1450495   1450673   1450848   1450962   1450968  
  7640.000000   1450861   1450683   1450513   1450434   1450507  
  7630.000000   1450747   1451125   1451585   1452056   1452481  
  7620.000000   1452818   1453041   1453144   1453125   1453003  
  7610.000000   1452801   1452557   1452302   1452061   1451835  
  7600.000000   1451617   1451393   1451172   1450995   1450932  
  7590.000000   1451073   1451485   1452195   1453161   1454279  
  7580.000000   1455421   1456463   1457328   1457996   1458498  
  7570.000000   1458882   1459192   1459445   1459637   1459761  
  7560.000000   1459831   1459887   1460002   1460238   1460633  
  7550.000000   1461162   1461747   1462275   1462642   1462788  
  7540.000000   1462727   1462538   1462353   1462311   1462534  
  7530.000000   1463085   1463967   1465115   1466426   1467770  
  7520.000000   1469029   1470104   1470952   1471582   1472064  
  7510.000000   1472502   1473015   1473702   1474621   1475784  
  7500.000000   1477160   1478692   1480318   1481987   1483656  
  7490.000000   1485285   1486828   1488212   1489364   1490206  
  7480.000000   1490709   1490885   1490815   1490622   1490456  
  7470.000000   1490463   1490759   1491420   1492469   1493895  
  7460.000000   1495652   1497664   1499829   1502021   1504110  
  7450.000000   1505975   1507546   1508803   1509810   1510681  
  7440.000000   1511577   1512639   1513965   1515575   1517422  
  7430.000000   1519410   1521423   1523369   1525199   1526917  
  7420.000000   1528555   1530149   1531716   1533240   1534684  
  7410.000000   1536011   1537222   1538364   1539538   1540860  
  7400.000000   1542424   1544264   1546326   1548489   1550592  
  7390.000000   1552500   1554150   1555567   1556854   1558144  
  7380.000000   1559551   1561123   1562830   1564585   1566291  
  7370.000000   1567887   1569370   1570794   1572232   1573743  
  7360.000000   1575332   1576952   1578519   1579944   1581179  
  7350.000000   1582216   1583100   1583896   1584671   1585476  
  7340.000000   1586348   1587319   1588434   1589743   1591286  
  7330.000000   1593068   1595041   1597101   1599110   1600944  
  7320.000000   1602534   1603889   1605090   1606251   1607480  
  7310.000000   1608839   1610323   1611876   1613422   1614902  
  7300.000000   1616293   1617614   1618899   1620174   1621436  
  7290.000000   1622655   1623786   1624796   1625678   1626466  
  7280.000000   1627216   1628002   1628886   1629919   1631120  
  7270.000000   1632491   1634011   1635637   1637311   1638954  
  7260.000000   1640496   1641866   1643045   1644042   1644926  
  7250.000000   1645781   1646709   1647776   1649021   1650446  
  7240.000000   1652042   1653806   1655760   1657943   1660391  
  7230.000000   1663101   1666017   1669016   1671955   1674689  
  7220.000000   1677144   1679315   1681292   1683203   1685202  
  7210.000000   1687393   1689825   1692466   1695245   1698069  
  7200.000000   1700873   1703625   1706338   1709045   1711788  
  7190.000000   1714590   1717464   1720399   1723391   1726430  
  7180.000000   1729524   1732667   1735860   1739079   1742301  
  7170.000000   1745490   1748644   1751767   1754909   1758117  
  7160.000000   1761449   1764926   1768553   1772301   1776149  
  7150.000000   1780073   1784091   1788219   1792493   1796905  
  7140.000000   1801428   1805978   1810482   1814865   1819129  
  7130.000000   1823320   1827554   1831940   1836582   1841499  
  7120.000000   1846654   1851936   1857231   1862440   1867535  
  7110.000000   1872541   1877540   1882612   1887829   1893214  
  7100.000000   1898760   1904421   1910153   1915901   1921624  
  7090.000000   1927278   1932827   1938244   1943528   1948710  
  7080.000000   1953861   1959063   1964395   1969887   1975516  
  7070.000000   1981192   1986805   1992252   1997485   2002516  
  7060.000000   2007420   2012290   2017211   2022229   2027352  
  7050.000000   2032563   2037840   2043185   2048614   2054156  
  7040.000000   2059814   2065566   2071348   2077080   2082681  
  7030.000000   2088105   2093340   2098412   2103355   2108204  
  7020.000000   2112965   2117638   2122207   2126677   2131063  
  7010.000000   2135410   2139748   2144111   2148487   2152855  
  7000.000000   2157159   2161362   2165424   2169346   2173134  
  6990.000000   2176819   2180416   2183945   2187396   2190762  
  6980.000000   2194016   2197153   2200164   2203070   2205892  
  6970.000000   2208680   2211466   2214289   2217148   2220030  
  6960.000000   2222878   2225634   2228229   2230622   2232794  
  6950.000000   2234771   2236594   2238328   2240022   2241726  
  6940.000000   2243464   2245264   2247130   2249072   2251080  
  6930.000000   2253140   2255207   2257232   2259148   2260899  
  6920.000000   2262443   2263765   2264872   2265802   2266604  
  6910.000000   2267339   2268068   2268849   2269722   2270709  
  6900.000000   2271799   2272958   2274125   2275246   2276274  
  6890.000000   2277201   2278045   2278856   2279686   2280583  
  6880.000000   2281569   2282640   2283778   2284956   2286144  
  6870.000000   2287317   2288446   2289502   2290458   2291298  
  6860.000000   2292026   2292672   2293282   2293905   2294563  
  6850.000000   2295250   2295920   2296518   2296997   2297356  
  6840.000000   2297634   2297918   2298289   2298811   2299487  
  6830.000000   2300276   2301094   2301860   2302511   2303023  
  6820.000000   2303401   2303667   2303842   2303939   2303966  
  6810.000000   2303940   2303888   2303856   2303883   2303998  
  6800.000000   2304197   2304457   2304735   2305005   2305248  
  6790.000000   2305475   2305688   2305883   2306024   2306056  
  6780.000000   2305923   2305591   2305074   2304434   2303760  
  6770.000000   2303142   2302639   2302265   2301997   2301791  
  6760.000000   2301609   2301429   2301246   2301062   2300876  
  6750.000000   2300676   2300453   2300210   2299977   2299802  
  6740.000000   2299742   2299828   2300058   2300382   2300726  
  6730.000000   2301016   2301211   2301312   2301358   2301401  
  6720.000000   2301481   2301603   2301741   2301854   2301907  
  6710.000000   2301889   2301808   2301691   2301548   2301381  
  6700.000000   2301165   2300881   2300516   2300094   2299650  
  6690.000000   2299236   2298883   2298596   2298348   2298097  
  6680.000000   2297798   2297432   2296992   2296496   2295951  
  6670.000000   2295360   2294706   2293975   2293157   2292270  
  6660.000000   2291350   2290451   2289611   2288852   2288159  
  6650.000000   2287498   2286821   2286092   2285286   2284401  
  6640.000000   2283445   2282434   2281378   2280295   2279195  
  6630.000000   2278099   2277024   2275984   2274977   2273994  
  6620.000000   2273005   2271984   2270903   2269753   2268531  
  6610.000000   2267251   2265925   2264568   2263194   2261818  
  6600.000000   2260452   2259109   2257790   2256483   2255161  
  6590.000000   2253796   2252365   2250871   2249342   2247832  
  6580.000000   2246392   2245059   2243834   2242681   2241541  
  6570.000000   2240355   2239082   2237717   2236280   2234810  
  6560.000000   2233341   2231896   2230478   2229083   2227708  
  6550.000000   2226356   2225032   2223739   2222464   2221181  
  6540.000000   2219853   2218448   2216956   2215394   2213804  
  6530.000000   2212240   2210750   2209363   2208083   2206892  
  6520.000000   2205762   2204660   2203554   2202419   2201237  
  6510.000000   2199997   2198706   2197388   2196088   2194858  
  6500.000000   2193749   2192788   2191967   2191244   2190546  
  6490.000000   2189796   2188929   2187906   2186722   2185400  
  6480.000000   2183981   2182516   2181058   2179657   2178349  
  6470.000000   2177156   2176070   2175055   2174051   2172992  
  6460.000000   2171824   2170531   2169138   2167704   2166306  
  6450.000000   2165003   2163828   2162767   2161785   2160834  
  6440.000000   2159887   2158932   2157987   2157071   2156201  
  6430.000000   2155373   2154576   2153792   2153021   2152267  
  6420.000000   2151555   2150896   2150295   2149728   2149165  
  6410.000000   2148575   2147948   2147295   2146652   2146058  
  6400.000000   2145543   2145113   2144762   2144468   2144216  
  6390.000000   2143998   2143815   2143664   2143529   2143383  
  6380.000000   2143190   2142925   2142584   2142194   2141802  
  6370.000000   2141457   2141188   2140993   2140837   2140669  
  6360.000000   2140439   2140123   2139717   2139245   2138733  
  6350.000000   2138207   2137675   2137143   2136609   2136079  
  6340.000000   2135559   2135057   2134566   2134071   2133543  
  6330.000000   2132964   2132320   2131628   2130912   2130207  
  6320.000000   2129531   2128886   2128246   2127583   2126864  
  6310.000000   2126079   2125230   2124335   2123404   2122445  
  6300.000000   2121442   2120382   2119252   2118064   2116838  
  6290.000000   2115614   2114419   2113269   2112155   2111056  
  6280.000000   2109945   2108801   2107618   2106401   2105159  
  6270.000000   2103897   2102610   2101294   2099943   2098572  
  6260.000000   2097204   2095881   2094636   2093489   2092432  
  6250.000000   2091426   2090413   2089328   2088116   2086747  
  6240.000000   2085224   2083577   2081860   2080137   2078463  
  6230.000000   2076878   2075396   2074004   2072672   2071364  
  6220.000000   2070052   2068724   2067392   2066079   2064810  
  6210.000000   2063596   2062432   2061289   2060138   2058951  
  6200.000000   2057725   2056475   2055236   2054038   2052907  
  6190.000000   2051843   2050833   2049855   2048891   2047933  
  6180.000000   2046985   2046056   2045154   2044279   2043425  
  6170.000000   2042584   2041751   2040925   2040104   2039278  
  6160.000000   2038430   2037531   2036553   2035481   2034327  
  6150.000000   2033130   2031946   2030835   2029836   2028954  
  6140.000000   2028156   2027388   2026588   2025710   2024736  
  6130.000000   2023680   2022577   2021467   2020385   2019350  
  6120.000000   2018371   2017441   2016557   2015711   2014907  
  6110.000000   2014144   2013432   2012773   2012175   2011643  
  6100.000000   2011184   2010796   2010484   2010239   2010056  
  6090.000000   2009921   2009826   2009758   2009714   2009683  
  6080.000000   2009665   2009652   2009644   2009635   2009630  
  6070.000000   2009626   2009629   2009640   2009668   2009717  
  6060.000000   2009810   2009959   2010192   2010521   2010961  
  6050.000000   2011501   2012134   2012834   2013594   2014407  
  6040.000000   2015296   2016278   2017389   2018642   2020047  
  6030.000000   2021582   2023229   2024949   2026725   2028533  
  6020.000000   2030372   2032230   2034110   2035999   2037901  
  6010.000000   2039808   2041736   2043688   2045689   2047741  
  6000.000000   2049856   2052024   2054248   2056520   2058859  
  5990.000000   2061275   2063797   2066432   2069192   2072063  
  5980.000000   2075043   2078116   2081292   2084578   2088001  
  5970.000000   2091565   2095275   2099097   2103003   2106943  
  5960.000000   2110898   2114848   2118808   2122788   2126814  
  5950.000000   2130885   2135004   2139156   2143340   2147557  
  5940.000000   2151826   2156170   2160608   2165147   2169771  
  5930.000000   2174450   2179139   2183799   2188391   2192887  
  5920.000000   2197260   2201490   2205549   2209416   2213070  
  5910.000000   2216508   2219734   2222773   2225652   2228414  
  5900.000000   2231092   2233734   2236371   2239050   2241792  
  5890.000000   2244625   2247538   2250519   2253524   2256514  
  5880.000000   2259442   2262278   2264995   2267585   2270041  
  5870.000000   2272361   2274545   2276599   2278542   2280404  
  5860.000000   2282226   2284053   2285919   2287851   2289856  
  5850.000000   2291931   2294070   2296267   2298520   2300828  
  5840.000000   2303187   2305583   2307998   2310406   2312789  
  5830.000000   2315135   2317449   2319743   2322038   2324351  
  5820.000000   2326696   2329075   2331488   2333926   2336376  
  5810.000000   2338826   2341254   2343650   2345993   2348294  
  5800.000000   2350551   2352807   2355076   2357405   2359785  
  5790.000000   2362216   2364628   2366954   2369071   2370872  
  5780.000000   2372221   2373025   2373188   2372689   2371531  
  5770.000000   2369799   2367604   2365112   2362471   2359830  
  5760.000000   2357276   2354871   2352614   2350508   2348522  
  5750.000000   2346664   2344927   2343329   2341871   2340551  
  5740.000000   2339356   2338262   2337248   2336289   2335364  
  5730.000000   2334441   2333493   2332482   2331385   2330192  
  5720.000000   2328924   2327621   2326345   2325148   2324070  
  5710.000000   2323117   2322273   2321504   2320776   2320063  
  5700.000000   2319350   2318637   2317923   2317212   2316499  
  5690.000000   2315791   2315092   2314422   2313792   2313216  
  5680.000000   2312675   2312141   2311550   2310845   2309959  
  5670.000000   2308851   2307487   2305866   2303990   2301881  
  5660.000000   2299567   2297093   2294509   2291881   2289265  
  5650.000000   2286712   2284245   2281873   2279583   2277365  
  5640.000000   2275211   2273126   2271121   2269204   2267380  
  5630.000000   2265637   2263964   2262340   2260765   2259237  
  5620.000000   2257773   2256375   2255049   2253777   2252548  
  5610.000000   2251343   2250168   2249033   2247968   2246992  
  5600.000000   2246118   2245334   2244615   2243927   2243245  
  5590.000000   2242552   2241848   2241135   2240417   2239691  
  5580.000000   2238947   2238176   2237376   2236554   2235725  
  5570.000000   2234901   2234084   2233265   2232424   2231542  
  5560.000000   2230607   2229626   2228614   2227594   2226582  
  5550.000000   2225584   2224589   2223586   2222562   2221516  
  5540.000000   2220459   2219408   2218379   2217386   2216433  
  5530.000000   2215520   2214643   2213798   2212974   2212156  
  5520.000000   2211322   2210447   2209512   2208513   2207460  
  5510.000000   2206383   2205308   2204259   2203233   2202217  
  5500.000000   2201180   2200101   2198970   2197800   2196611  
  5490.000000   2195423   2194237   2193038   2191793   2190479  
  5480.000000   2189081   2187614   2186105   2184592   2183096  
  5470.000000   2181621   2180149   2178659   2177132   2175568  
  5460.000000   2173977   2172381   2170790   2169205   2167618  
  5450.000000   2166016   2164397   2162772   2161162   2159588  
  5440.000000   2158058   2156564   2155089   2153612   2152131  
  5430.000000   2150654   2149212   2147823   2146506   2145247  
  5420.000000   2144037   2142858   2141723   2140656   2139710  
  5410.000000   2138920   2138313   2137863   2137537   2137270  
  5400.000000   2137033   2136800   2136598   2136450   2136409  
  5390.000000   2136492   2136724   2137093   2137611   2138268  
  5380.000000   2139093   2140084   2141263   2142603   2144102  
  5370.000000   2145712   2147436   2149249   2151191   2153260  
  5360.000000   2155510   2157933   2160573   2163411   2166500  
  5350.000000   2169834   2173489   2177466   2181839   2186587  
  5340.000000   2191764   2197328   2203336   2209752   2216640  
  5330.000000   2223952   2231737   2239922   2248545   2257544  
  5320.000000   2267000   2276902   2287384   2298454   2310241  
  5310.000000   2322713   2335944   2349851   2364484   2379762  
  5300.000000   2395757   2412426   2429868   2448060   2467100  
  5290.000000   2486939   2507622   2529040   2551158   2573822  
  5280.000000   2596987   2620547   2644540   2668966   2693929  
  5270.000000   2719445   2745536   2772091   2798968   2825975  
  5260.000000   2852957   2879829   2906586   2933291   2959982  
  5250.000000   2986680   3013272   3039623   3065494   3090752  
  5240.000000   3115244   3139014   3162073   3184586   3206589  
  5230.000000   3228194   3249322   3269959   3289929   3309189  
  5220.000000   3327602   3345224   3362034   3378194   3393734  
  5210.000000   3408805   3423362   3437441   3450882   3463654  
  5200.000000   3475602   3486774   3497128   3506816   3515855  
  5190.000000   3524379   3532344   3539795   3546620   3552842  
  5180.000000   3558374   3563290   3567557   3571273   3574403  
  5170.000000   3577017   3579062   3580600   3581599   3582148  
  5160.000000   3582237   3581951   3581257   3580205   3578740  
  5150.000000   3576909   3574681   3572129   3569248   3566105  
  5140.000000   3562678   3559000   3555029   3550794   3546278  
  5130.000000   3541535   3536578   3531466   3526206   3520833  
  5120.000000   3515339   3509754   3504078   3498352   3492589  
  5110.000000   3486818   3481039   3475256   3469455   3463641  
  5100.000000   3457815   3452001   3446219   3440495   3434837  
  5090.000000   3429249   3423719   3418241   3412803   3407405  
  5080.000000   3402042   3396715   3391411   3386123   3380828  
  5070.000000   3375514   3370158   3364751   3359269   3353700  
  5060.000000   3348018   3342215   3336280   3330230   3324080  
  5050.000000   3317868   3311613   3305335   3299028   3292684  
  5040.000000   3286276   3279793   3273225   3266581   3259872  
  5030.000000   3253116   3246330   3239528   3232730   3225957  
  5020.000000   3219240   3212610   3206098   3199717   3193472  
  5010.000000   3187345   3181320   3175370   3169492   3163680  
  5000.000000   3157962   3152347   3146873   3141546   3136395  
  4990.000000   3131419   3126648   3122079   3117742   3113623  
  4980.000000   3109738   3106052   3102565   3099235   3096077  
  4970.000000   3093072   3090270   3087675   3085349   3083291  
  4960.000000   3081550   3080105   3078994   3078190   3077733  
  4950.000000   3077598   3077824   3078375   3079279   3080489  
  4940.000000   3082031   3083864   3086032   3088507   3091340  
  4930.000000   3094502   3098030   3101883   3106091   3110613  
  4920.000000   3115489   3120695   3126277   3132216   3138549  
  4910.000000   3145248   3152332   3159769   3167566   3175685  
  4900.000000   3184109   3192787   3201671   3210693   3219786  
  4890.000000   3228893   3237953   3246929   3255766   3264435  
  4880.000000   3272863   3281010   3288782   3296137   3302980  
  4870.000000   3309289   3314989   3320092   3324549   3328401  
  4860.000000   3331621   3334268   3336328   3337869   3338886  
  4850.000000   3339450   3339566   3339311   3338704   3337834  
  4840.000000   3336732   3335486   3334130   3332735   3331324  
  4830.000000   3329945   3328610   3327344   3326151   3325046  
  4820.000000   3324029   3323107   3322285   3321565   3320960  
  4810.000000   3320467   3320098   3319844   3319709   3319677  
  4800.000000   3319749   3319907   3320159   3320498   3320936  
  4790.000000   3321471   3322109   3322839   3323654   3324532  
  4780.000000   3325462   3326423   3327409   3328407   3329414  
  4770.000000   3330420   3331420   3332407   3333377   3334326  
  4760.000000   3335255   3336162   3337046   3337901   3338718  
  4750.000000   3339490   3340209   3340875   3341490   3342062  
  4740.000000   3342599   3343111   3343602   3344077   3344538  
  4730.000000   3344989   3345435   3345880   3346330   3346783  
  4720.000000   3347245   3347707   3348177   3348653   3349156  
  4710.000000   3349696   3350309   3351013   3351851   3352843  
  4700.000000   3354033   3355441   3357107   3359044   3361275  
  4690.000000   3363791   3366586   3369620   3372861   3376247  
  4680.000000   3379739   3383273   3386818   3390323   3393773  
  4670.000000   3397137   3400424   3403630   3406793   3409935  
  4660.000000   3413110   3416358   3419735   3423278   3427028  
  4650.000000   3431005   3435224   3439678   3444344   3449186  
  4640.000000   3454153   3459196   3464262   3469314   3474318  
  4630.000000   3479257   3484111   3488868   3493501   3497992  
  4620.000000   3502298   3506398   3510247   3513831   3517113  
  4610.000000   3520096   3522754   3525107   3527146   3528909  
  4600.000000   3530399   3531672   3532737   3533648   3534405  
  4590.000000   3535042   3535538   3535899   3536078   3536063  
  4580.000000   3535803   3535295   3534516   3533497   3532261  
  4570.000000   3530872   3529374   3527829   3526255   3524675  
  4560.000000   3523066   3521419   3519704   3517919   3516066  
  4550.000000   3514174   3512268   3510381   3508527   3506714  
  4540.000000   3504934   3503177   3501437   3499714   3498022  
  4530.000000   3496366   3494762   3493199   3491679   3490176  
  4520.000000   3488697   3487231   3485821   3484481   3483285  
  4510.000000   3482253   3481458   3480902   3480643   3480672  
  4500.000000   3481053   3481782   3482947   3484556   3486706  
  4490.000000   3489401   3492729   3496671   3501291   3506544  
  4480.000000   3512474   3519020   3526219   3534012   3542437  
  4470.000000   3551435   3561037   3571167   3581825   3592911  
  4460.000000   3604397   3616177   3628221   3640446   3652841  
  4450.000000   3665350   3677974   3690676   3703456   3716291  
  4440.000000   3729182   3742120   3755101   3768119   3781144  
  4430.000000   3794160   3807105   3819954   3832635   3845132  
  4420.000000   3857383   3869385   3881070   3892426   3903359  
  4410.000000   3913829   3923727   3933014   3941611   3949532  
  4400.000000   3956765   3963391   3969461   3975095   3980368  
  4390.000000   3985406   3990282   3995114   3999957   4004895  
  4380.000000   4009947   4015147   4020468   4025907   4031430  
  4370.000000   4037033   4042701   4048443   4054250   4060119  
  4360.000000   4066020   4071937   4077820   4083667   4089422  
  4350.000000   4095101   4100628   4106028   4111211   4116222  
  4340.000000   4120999   4125608   4129972   4134041   4137547  
  4330.000000   4140161   4141365   4140671   4137636   4132088  
  4320.000000   4124140   4114277   4103212   4091813   4080866  
  4310.000000   4071003   4062559   4055637   4050113   4045777  
  4300.000000   4042394   4039773   4037798   4036378   4035481  
  4290.000000   4035034   4035022   4035373   4036106   4037199  
  4280.000000   4038702   4040614   4042938   4045626   4048598  
  4270.000000   4051757   4054981   4058150   4061098   4063635  
  4260.000000   4065505   4066433   4066144   4064450   4061279  
  4250.000000   4056747   4051115   4044791   4038197   4031764  
  4240.000000   4025782   4020452   4015797   4011774   4008237  
  4230.000000   4005051   4002063   3999161   3996258   3993296  
  4220.000000   3990260   3987143   3984005   3980891   3977911  
  4210.000000   3975135   3972665   3970533   3968777   3967364  
  4200.000000   3966266   3965408   3964748   3964223   3963823  
  4190.000000   3963514   3963322   3963233   3963281   3963446  
  4180.000000   3963754   3964175   3964739   3965427   3966295  
  4170.000000   3967354   3968689   3970329   3972359   3974791  
  4160.000000   3977682   3981010   3984802   3989011   3993652  
  4150.000000   3998671   4004082   4009825   4015919   4022311  
  4140.000000   4029035   4036056   4043429   4051127   4059204  
  4130.000000   4067619   4076404   4085501   4094941   4104687  
  4120.000000   4114802   4125297   4136264   4147737   4159792  
  4110.000000   4172430   4185668   4199442   4213701   4228330  
  4100.000000   4243239   4258304   4273449   4288593   4303710  
  4090.000000   4318786   4333837   4348883   4363934   4379003  
  4080.000000   4394064   4409114   4424101   4439014   4453781  
  4070.000000   4468379   4482704   4496719   4510306   4523440  
  4060.000000   4536024   4548071   4559513   4570389   4580643  
  4050.000000   4590335   4599420   4607982   4615992   4623531  
  4040.000000   4630546   4637080   4643034   4648431   4653183  
  4030.000000   4657353   4660909   4663952   4666476   4668560  
  4020.000000   4670154   4671311   4672010   4672305   4672154  
  4010.000000   4671644   4670812   4669652   4667994   4665867  
  4000.000000   4663501  
##END= 
