##TITLE= Sample 050 By ssteindl date Dienstag, November 20 2018
##JCAMP-DX= 4.24
##DATA TYPE= INFRARED SPECTRUM
##ORIGIN= Exported PE Spectrum Data File
##OWNER= Sandra Steindl
##DATE= 18/11/20
##TIME= 12:15:47.00
##SPECTROMETER/DATA SYSTEM= PERKIN-ELMER Frontier FT-IR/NIR IR
##INSTRUMENT PARAMETERS=
  APODIZATION=stark
  DETECTOR=INGAAS
##RESOLUTION= 16.000000
##DELTAX= -2.000000
##XUNITS= 1/CM
##YUNITS= A
##XFACTOR= 1.00
##YFACTOR= 0.00000011920928955078
##FIRSTX= 10000.00
##LASTX= 4000.00
##NPOINTS= 3001
##FIRSTY= 0.200621
##MAXY= 0.570432
##MINY= 0.170152
##XYDATA= (X++(Y..Y))
 10000.000000   1682931   1684526   1685169   1683738   1680389  
  9990.000000   1676161   1671857   1667760   1663946   1660329  
  9980.000000   1656459   1651803   1646134   1639736   1633313  
  9970.000000   1627818   1624179   1622900   1623819   1626086  
  9960.000000   1628464   1629713   1629101   1626604   1622931  
  9950.000000   1619207   1616553   1615714   1616872   1619686  
  9940.000000   1623518   1627671   1631582   1634856   1637196  
  9930.000000   1638328   1637964   1635916   1632220   1627252  
  9920.000000   1621717   1616454   1612196   1609301   1607662  
  9910.000000   1606785   1606016   1604837   1603030   1600717  
  9900.000000   1598227   1595901   1593961   1592455   1591364  
  9890.000000   1590662   1590441   1590812   1591901   1593655  
  9880.000000   1595898   1598301   1600550   1602432   1603872  
  9870.000000   1604924   1605673   1606209   1606626   1607090  
  9860.000000   1607873   1609334   1611739   1615108   1618992  
  9850.000000   1622531   1624637   1624390   1621455   1616268  
  9840.000000   1609997   1604112   1599842   1597693   1597252  
  9830.000000   1597470   1597148   1595586   1592890   1589993  
  9820.000000   1588185   1588575   1591517   1596468   1602137  
  9810.000000   1606976   1609763   1609951   1607850   1604337  
  9800.000000   1600548   1597398   1595377   1594460   1594275  
  9790.000000   1594306   1594098   1593378   1592075   1590335  
  9780.000000   1588442   1586819   1585901   1586064   1587484  
  9770.000000   1590029   1593262   1596489   1598983   1600178  
  9760.000000   1599881   1598335   1596147   1594101   1592899  
  9750.000000   1592966   1594325   1596657   1599364   1601805  
  9740.000000   1603391   1603779   1602907   1601010   1598542  
  9730.000000   1596018   1593869   1592248   1590992   1589629  
  9720.000000   1587595   1584464   1580193   1575259   1570543  
  9710.000000   1567130   1565861   1567107   1570538   1575299  
  9700.000000   1580244   1584332   1586928   1587887   1587551  
  9690.000000   1586433   1585048   1583619   1582105   1580231  
  9680.000000   1577692   1574345   1570294   1565980   1562014  
  9670.000000   1559159   1558011   1558961   1561912   1566329  
  9660.000000   1571213   1575329   1577492   1576835   1573125  
  9650.000000   1566756   1558747   1550353   1542792   1536834  
  9640.000000   1532727   1530182   1528639   1527542   1526556  
  9630.000000   1525688   1525176   1525372   1526519   1528650  
  9620.000000   1531585   1534958   1538399   1541519   1544078  
  9610.000000   1545875   1546853   1547034   1546567   1545726  
  9600.000000   1544838   1544267   1544263   1544953   1546247  
  9590.000000   1547925   1549641   1551071   1551899   1551909  
  9580.000000   1550927   1548866   1545726   1541650   1536974  
  9570.000000   1532188   1527864   1524475   1522222   1520959  
  9560.000000   1520206   1519376   1518005   1515995   1513680  
  9550.000000   1511690   1510689   1511031   1512627   1514890  
  9540.000000   1517045   1518334   1518406   1517330   1515613  
  9530.000000   1513928   1512870   1512762   1513579   1515086  
  9520.000000   1516995   1519145   1521540   1524260   1527302  
  9510.000000   1530454   1533263   1535160   1535633   1534436  
  9500.000000   1531716   1527978   1524001   1520576   1518338  
  9490.000000   1517558   1518101   1519479   1520991   1521975  
  9480.000000   1521957   1520848   1518915   1516791   1515240  
  9470.000000   1515012   1516553   1519885   1524544   1529680  
  9460.000000   1534296   1537470   1538611   1537545   1534533  
  9450.000000   1530138   1525055   1519932   1515272   1511391  
  9440.000000   1508451   1506506   1505513   1505361   1505807  
  9430.000000   1506557   1507255   1507626   1507530   1507025  
  9420.000000   1506353   1505825   1505713   1506105   1506873  
  9410.000000   1507726   1508343   1508511   1508222   1507655  
  9400.000000   1507105   1506815   1506861   1507051   1506997  
  9390.000000   1506226   1504408   1501506   1497825   1493961  
  9380.000000   1490587   1488332   1487572   1488424   1490699  
  9370.000000   1493997   1497768   1501406   1504345   1506091  
  9360.000000   1506326   1504910   1501984   1497930   1493379  
  9350.000000   1489051   1485618   1483520   1482875   1483492  
  9340.000000   1484950   1486773   1488547   1490029   1491134  
  9330.000000   1491879   1492296   1492368   1492055   1491327  
  9320.000000   1490267   1489084   1488110   1487704   1488102  
  9310.000000   1489352   1491228   1493355   1495253   1496526  
  9300.000000   1496905   1496317   1494877   1492776   1490257  
  9290.000000   1487475   1484559   1481549   1478462   1475271  
  9280.000000   1471956   1468591   1465378   1462717   1461078  
  9270.000000   1460962   1462665   1466209   1471183   1476828  
  9260.000000   1482164   1486268   1488555   1488864   1487513  
  9250.000000   1485063   1482183   1479313   1476625   1473965  
  9240.000000   1471089   1467809   1464146   1460369   1456893  
  9230.000000   1454220   1452719   1452623   1453897   1456354  
  9220.000000   1459657   1463411   1467202   1470622   1473360  
  9210.000000   1475202   1476116   1476191   1475625   1474616  
  9200.000000   1473321   1471799   1470050   1468091   1466008  
  9190.000000   1464029   1462408   1461372   1460935   1460904  
  9180.000000   1460911   1460556   1459595   1457993   1455978  
  9170.000000   1453882   1452018   1450515   1449311   1448238  
  9160.000000   1447207   1446366   1446103   1446915   1449146  
  9150.000000   1452802   1457433   1462231   1466253   1468738  
  9140.000000   1469379   1468333   1466150   1463475   1460889  
  9130.000000   1458683   1456880   1455308   1453773   1452180  
  9120.000000   1450560   1449069   1447900   1447253   1447264  
  9110.000000   1448030   1449564   1451800   1454539   1457452  
  9100.000000   1460123   1462158   1463332   1463703   1463616  
  9090.000000   1463575   1464029   1465168   1466836   1468531  
  9080.000000   1469608   1469513   1468015   1465263   1461683  
  9070.000000   1457850   1454271   1451311   1449128   1447797  
  9060.000000   1447369   1447906   1449386   1451635   1454269  
  9050.000000   1456718   1458361   1458733   1457713   1455557  
  9040.000000   1452813   1450131   1448082   1446995   1446920  
  9030.000000   1447705   1449109   1450888   1452790   1454544  
  9020.000000   1455824   1456283   1455647   1453827   1451039  
  9010.000000   1447768   1444665   1442313   1441064   1440921  
  9000.000000   1441591   1442645   1443687   1444528   1445161  
  8990.000000   1445733   1446375   1447132   1447950   1448711  
  8980.000000   1449355   1449884   1450386   1450894   1451355  
  8970.000000   1451570   1451306   1450397   1448886   1447080  
  8960.000000   1445472   1444579   1444700   1445841   1447692  
  8950.000000   1449812   1451774   1453371   1454626   1455731  
  8940.000000   1456850   1457996   1458974   1459476   1459217  
  8930.000000   1458085   1456208   1453898   1451522   1449348  
  8920.000000   1447461   1445766   1444106   1442341   1440448  
  8910.000000   1438481   1436544   1434687   1432906   1431169  
  8900.000000   1429524   1428146   1427338   1427459   1428782  
  8890.000000   1431361   1434952   1439100   1443281   1447055  
  8880.000000   1450168   1452539   1454234   1455303   1455760  
  8870.000000   1455515   1454516   1452770   1450450   1447848  
  8860.000000   1445325   1443208   1441688   1440843   1440620  
  8850.000000   1440974   1441849   1443243   1445116   1447376  
  8840.000000   1449835   1452228   1454300   1455854   1456849  
  8830.000000   1457335   1457459   1457338   1457083   1456746  
  8820.000000   1456397   1456123   1456076   1456403   1457191  
  8810.000000   1458398   1459840   1461260   1462417   1463222  
  8800.000000   1463767   1464331   1465234   1466744   1468934  
  8790.000000   1471694   1474757   1477806   1480570   1482855  
  8780.000000   1484561   1485597   1485871   1485268   1483744  
  8770.000000   1481381   1478457   1475419   1472805   1471103  
  8760.000000   1470613   1471377   1473164   1475586   1478201  
  8750.000000   1480657   1482739   1484397   1485717   1486856  
  8740.000000   1488002   1489313   1490901   1492783   1494879  
  8730.000000   1497004   1498924   1500412   1501351   1501762  
  8720.000000   1501819   1501768   1501828   1502077   1502408  
  8710.000000   1502580   1502345   1501594   1500472   1499364  
  8700.000000   1498779   1499174   1500731   1503305   1506427  
  8690.000000   1509507   1512046   1513800   1514867   1515579  
  8680.000000   1516360   1517490   1519013   1520692   1522160  
  8670.000000   1523071   1523296   1522970   1522462   1522238  
  8660.000000   1522672   1523949   1525975   1528474   1531068  
  8650.000000   1533428   1535355   1536813   1537898   1538755  
  8640.000000   1539517   1540244   1540953   1541601   1542160  
  8630.000000   1542588   1542888   1543056   1543110   1543080  
  8620.000000   1543040   1543127   1543538   1544501   1546208  
  8610.000000   1548744   1552019   1555775   1559630   1563192  
  8600.000000   1566169   1568459   1570179   1571602   1573044  
  8590.000000   1574738   1576746   1578942   1581064   1582830  
  8580.000000   1584043   1584664   1584793   1584645   1584426  
  8570.000000   1584303   1584326   1584486   1584725   1585019  
  8560.000000   1585375   1585828   1586395   1587041   1587680  
  8550.000000   1588190   1588484   1588540   1588446   1588352  
  8540.000000   1588435   1588818   1589549   1590598   1591889  
  8530.000000   1593362   1594991   1596800   1598811   1601013  
  8520.000000   1603313   1605548   1607534   1609117   1610247  
  8510.000000   1610972   1611423   1611737   1612006   1612236  
  8500.000000   1612369   1612336   1612121   1611805   1611559  
  8490.000000   1611587   1612044   1612964   1614230   1615607  
  8480.000000   1616816   1617643   1618013   1618034   1617957  
  8470.000000   1618110   1618800   1620212   1622372   1625112  
  8460.000000   1628125   1631005   1633362   1634894   1635485  
  8450.000000   1635214   1634357   1633320   1632556   1632445  
  8440.000000   1633179   1634747   1636920   1639372   1641729  
  8430.000000   1643724   1645220   1646262   1646990   1647579  
  8420.000000   1648145   1648696   1649150   1649349   1649148  
  8410.000000   1648460   1647309   1645829   1644228   1642759  
  8400.000000   1641646   1641081   1641164   1641916   1643240  
  8390.000000   1644962   1646821   1648548   1649891   1650705  
  8380.000000   1650977   1650828   1650480   1650160   1650038  
  8370.000000   1650127   1650297   1650302   1649893   1648915  
  8360.000000   1647369   1645449   1643467   1641797   1640717  
  8350.000000   1640379   1640739   1641629   1642797   1643984  
  8340.000000   1644977   1645620   1645831   1645559   1644803  
  8330.000000   1643584   1641991   1640164   1638307   1636631  
  8320.000000   1635318   1634480   1634135   1634230   1634659  
  8310.000000   1635323   1636139   1637058   1638027   1638958  
  8300.000000   1639729   1640184   1640197   1639721   1638839  
  8290.000000   1637751   1636728   1636035   1635833   1636144  
  8280.000000   1636824   1637643   1638335   1638718   1638697  
  8270.000000   1638297   1637591   1636678   1635614   1634431  
  8260.000000   1633124   1631711   1630233   1628765   1627382  
  8250.000000   1626122   1624945   1623739   1622347   1620633  
  8240.000000   1618540   1616123   1613549   1611053   1608870  
  8230.000000   1607180   1606062   1605494   1605368   1605544  
  8220.000000   1605875   1606247   1606570   1606777   1606813  
  8210.000000   1606630   1606192   1605474   1604483   1603235  
  8200.000000   1601774   1600139   1598366   1596487   1594530  
  8190.000000   1592548   1590606   1588802   1587224   1585942  
  8180.000000   1584959   1584214   1583577   1582888   1581991  
  8170.000000   1580783   1579245   1577450   1575561   1573774  
  8160.000000   1572285   1571209   1570566   1570251   1570066  
  8150.000000   1569762   1569111   1567978   1566377   1564489  
  8140.000000   1562620   1561122   1560275   1560195   1560773  
  8130.000000   1561699   1562538   1562858   1562363   1560979  
  8120.000000   1558880   1556419   1554026   1552057   1550695  
  8110.000000   1549905   1549469   1549087   1548477   1547486  
  8100.000000   1546117   1544532   1542970   1541673   1540798  
  8090.000000   1540366   1540268   1540282   1540165   1539697  
  8080.000000   1538762   1537361   1535630   1533803   1532158  
  8070.000000   1530949   1530340   1530361   1530896   1531712  
  8060.000000   1532520   1533049   1533121   1532686   1531828  
  8050.000000   1530718   1529557   1528505   1527645   1526971  
  8040.000000   1526417   1525905   1525375   1524832   1524319  
  8030.000000   1523921   1523702   1523702   1523892   1524194  
  8020.000000   1524490   1524648   1524552   1524113   1523291  
  8010.000000   1522091   1520573   1518838   1517023   1515281  
  8000.000000   1513751   1512544   1511706   1511229   1511040  
  7990.000000   1511038   1511107   1511155   1511128   1511005  
  7980.000000   1510799   1510520   1510173   1509735   1509180  
  7970.000000   1508491   1507693   1506867   1506145   1505676  
  7960.000000   1505580   1505902   1506569   1507414   1508198  
  7950.000000   1508688   1508728   1508271   1507406   1506297  
  7940.000000   1505146   1504097   1503222   1502495   1501836  
  7930.000000   1501166   1500449   1499733   1499123   1498763  
  7920.000000   1498771   1499217   1500086   1501291   1502689  
  7910.000000   1504103   1505356   1506285   1506772   1506760  
  7900.000000   1506280   1505445   1504450   1503512   1502828  
  7890.000000   1502504   1502525   1502769   1503043   1503173  
  7880.000000   1503060   1502732   1502312   1501981   1501883  
  7870.000000   1502076   1502502   1503021   1503478   1503766  
  7860.000000   1503876   1503883   1503909   1504055   1504350  
  7850.000000   1504747   1505136   1505409   1505502   1505422  
  7840.000000   1505233   1505022   1504850   1504735   1504641  
  7830.000000   1504520   1504333   1504084   1503810   1503565  
  7820.000000   1503381   1503256   1503144   1502987   1502740  
  7810.000000   1502393   1501975   1501530   1501091   1500649  
  7800.000000   1500159   1499556   1498799   1497902   1496953  
  7790.000000   1496093   1495472   1495200   1495302   1495711  
  7780.000000   1496281   1496839   1497235   1497375   1497248  
  7770.000000   1496906   1496444   1495954   1495513   1495148  
  7760.000000   1494854   1494593   1494319   1493995   1493602  
  7750.000000   1493154   1492686   1492253   1491910   1491698  
  7740.000000   1491632   1491694   1491834   1491979   1492056  
  7730.000000   1492005   1491798   1491446   1491002   1490547  
  7720.000000   1490177   1489973   1489979   1490185   1490519  
  7710.000000   1490863   1491077   1491042   1490693   1490051  
  7700.000000   1489220   1488358   1487631   1487152   1486941  
  7690.000000   1486916   1486919   1486776   1486369   1485681  
  7680.000000   1484817   1483955   1483286   1482934   1482900  
  7670.000000   1483070   1483255   1483263   1482988   1482441  
  7660.000000   1481755   1481125   1480737   1480682   1480932  
  7650.000000   1481339   1481707   1481858   1481709   1481285  
  7640.000000   1480722   1480199   1479880   1479861   1480145  
  7630.000000   1480653   1481269   1481877   1482407   1482832  
  7620.000000   1483169   1483443   1483673   1483857   1483984  
  7610.000000   1484046   1484059   1484064   1484118   1484271  
  7600.000000   1484543   1484909   1485307   1485651   1485861  
  7590.000000   1485889   1485731   1485431   1485062   1484704  
  7580.000000   1484429   1484282   1484289   1484460   1484800  
  7570.000000   1485306   1485967   1486755   1487618   1488484  
  7560.000000   1489280   1489942   1490448   1490801   1491059  
  7550.000000   1491273   1491499   1491747   1492001   1492219  
  7540.000000   1492366   1492444   1492508   1492670   1493065  
  7530.000000   1493824   1495014   1496624   1498548   1500613  
  7520.000000   1502619   1504375   1505751   1506687   1507213  
  7510.000000   1507414   1507420   1507360   1507358   1507498  
  7500.000000   1507837   1508390   1509143   1510063   1511105  
  7490.000000   1512230   1513397   1514581   1515762   1516928  
  7480.000000   1518074   1519198   1520309   1521411   1522524  
  7470.000000   1523653   1524805   1525965   1527118   1528236  
  7460.000000   1529310   1530346   1531381   1532469   1533668  
  7450.000000   1535015   1536519   1538152   1539868   1541617  
  7440.000000   1543376   1545144   1546943   1548788   1550672  
  7430.000000   1552541   1554315   1555904   1557259   1558384  
  7420.000000   1559357   1560298   1561341   1562583   1564061  
  7410.000000   1565745   1567567   1569449   1571335   1573201  
  7400.000000   1575053   1576902   1578754   1580598   1582422  
  7390.000000   1584228   1586043   1587919   1589911   1592052  
  7380.000000   1594323   1596658   1598952   1601105   1603047  
  7370.000000   1604758   1606257   1607582   1608761   1609806  
  7360.000000   1610711   1611485   1612173   1612865   1613679  
  7350.000000   1614731   1616082   1617726   1619568   1621477  
  7340.000000   1623330   1625066   1626696   1628285   1629911  
  7330.000000   1631617   1633388   1635151   1636815   1638305  
  7320.000000   1639607   1640761   1641846   1642944   1644102  
  7310.000000   1645325   1646579   1647824   1649035   1650222  
  7300.000000   1651419   1652666   1653980   1655344   1656708  
  7290.000000   1658012   1659215   1660307   1661318   1662298  
  7280.000000   1663298   1664354   1665480   1666672   1667925  
  7270.000000   1669237   1670614   1672059   1673562   1675083  
  7260.000000   1676568   1677940   1679145   1680143   1680954  
  7250.000000   1681624   1682243   1682905   1683713   1684745  
  7240.000000   1686068   1687711   1689684   1691954   1694473  
  7230.000000   1697158   1699926   1702682   1705366   1707935  
  7220.000000   1710398   1712776   1715132   1717513   1719979  
  7210.000000   1722555   1725261   1728079   1730988   1733950  
  7200.000000   1736934   1739918   1742903   1745903   1748953  
  7190.000000   1752077   1755300   1758600   1761940   1765244  
  7180.000000   1768443   1771477   1774342   1777081   1779798  
  7170.000000   1782613   1785657   1789008   1792695   1796665  
  7160.000000   1800818   1805011   1809129   1813081   1816852  
  7150.000000   1820476   1824049   1827674   1831468   1835491  
  7140.000000   1839771   1844264   1848911   1853631   1858379  
  7130.000000   1863132   1867921   1872782   1877769   1882897  
  7120.000000   1888165   1893521   1898912   1904264   1909539  
  7110.000000   1914706   1919780   1924782   1929760   1934754  
  7100.000000   1939818   1944989   1950304   1955768   1961372  
  7090.000000   1967073   1972818   1978546   1984219   1989826  
  7080.000000   1995396   2000972   2006606   2012325   2018126  
  7070.000000   2023975   2029821   2035619   2041349   2047018  
  7060.000000   2052654   2058284   2063922   2069555   2075150  
  7050.000000   2080661   2086049   2091294   2096392   2101360  
  7040.000000   2106223   2111012   2115757   2120500   2125276  
  7030.000000   2130127   2135073   2140122   2145241   2150389  
  7020.000000   2155500   2160527   2165432   2170208   2174858  
  7010.000000   2179395   2183820   2188130   2192312   2196367  
  7000.000000   2200303   2204152   2207940   2211702   2215434  
  6990.000000   2219128   2222746   2226265   2229660   2232939  
  6980.000000   2236114   2239209   2242230   2245181   2248047  
  6970.000000   2250828   2253521   2256154   2258748   2261336  
  6960.000000   2263923   2266509   2269068   2271587   2274048  
  6950.000000   2276456   2278809   2281105   2283319   2285412  
  6940.000000   2287334   2289060   2290590   2291977   2293300  
  6930.000000   2294662   2296140   2297785   2299587   2301503  
  6920.000000   2303450   2305349   2307116   2308700   2310068  
  6910.000000   2311221   2312182   2313000   2313738   2314467  
  6900.000000   2315244   2316103   2317040   2318030   2319023  
  6890.000000   2319984   2320893   2321768   2322644   2323573  
  6880.000000   2324585   2325688   2326855   2328040   2329192  
  6870.000000   2330269   2331251   2332145   2332968   2333750  
  6860.000000   2334512   2335277   2336054   2336851   2337663  
  6850.000000   2338481   2339283   2340045   2340740   2341352  
  6840.000000   2341879   2342342   2342773   2343219   2343714  
  6830.000000   2344287   2344940   2345659   2346410   2347153  
  6820.000000   2347840   2348432   2348892   2349208   2349378  
  6810.000000   2349429   2349399   2349342   2349309   2349342  
  6800.000000   2349459   2349660   2349915   2350188   2350429  
  6790.000000   2350600   2350670   2350632   2350496   2350292  
  6780.000000   2350059   2349836   2349648   2349503   2349386  
  6770.000000   2349270   2349129   2348952   2348748   2348543  
  6760.000000   2348363   2348224   2348113   2347997   2347835  
  6750.000000   2347604   2347323   2347047   2346864   2346851  
  6740.000000   2347048   2347436   2347937   2348436   2348823  
  6730.000000   2349031   2349050   2348930   2348757   2348618  
  6720.000000   2348577   2348660   2348855   2349127   2349426  
  6710.000000   2349705   2349914   2350015   2349976   2349791  
  6700.000000   2349471   2349068   2348639   2348249   2347932  
  6690.000000   2347689   2347474   2347225   2346877   2346397  
  6680.000000   2345787   2345082   2344326   2343555   2342780  
  6670.000000   2342001   2341204   2340399   2339607   2338870  
  6660.000000   2338216   2337650   2337137   2336618   2336027  
  6650.000000   2335323   2334498   2333587   2332634   2331680  
  6640.000000   2330733   2329777   2328778   2327716   2326597  
  6630.000000   2325464   2324368   2323359   2322447   2321605  
  6620.000000   2320770   2319875   2318862   2317708   2316417  
  6610.000000   2315016   2313531   2311986   2310395   2308778  
  6600.000000   2307157   2305570   2304049   2302619   2301273  
  6590.000000   2299987   2298711   2297405   2296037   2294609  
  6580.000000   2293139   2291656   2290184   2288737   2287311  
  6570.000000   2285899   2284491   2283083   2281676   2280266  
  6560.000000   2278847   2277408   2275939   2274435   2272906  
  6550.000000   2271366   2269829   2268301   2266774   2265236  
  6540.000000   2263675   2262100   2260536   2259023   2257602  
  6530.000000   2256295   2255098   2253983   2252910   2251840  
  6520.000000   2250747   2249618   2248446   2247222   2245932  
  6510.000000   2244555   2243085   2241539   2239959   2238409  
  6500.000000   2236951   2235627   2234443   2233370   2232357  
  6490.000000   2231357   2230333   2229274   2228177   2227043  
  6480.000000   2225859   2224605   2223260   2221824   2220324  
  6470.000000   2218810   2217344   2215972   2214705   2213521  
  6460.000000   2212367   2211185   2209933   2208595   2207187  
  6450.000000   2205737   2204278   2202837   2201434   2200084  
  6440.000000   2198808   2197623   2196544   2195568   2194677  
  6430.000000   2193830   2192989   2192122   2191229   2190322  
  6420.000000   2189439   2188603   2187833   2187120   2186453  
  6410.000000   2185819   2185225   2184691   2184245   2183904  
  6400.000000   2183666   2183501   2183365   2183212   2183016  
  6390.000000   2182771   2182491   2182196   2181901   2181610  
  6380.000000   2181315   2181011   2180695   2180378   2180069  
  6370.000000   2179773   2179479   2179167   2178813   2178406  
  6360.000000   2177952   2177482   2177023   2176596   2176190  
  6350.000000   2175771   2175292   2174719   2174043   2173295  
  6340.000000   2172526   2171798   2171145   2170575   2170057  
  6330.000000   2169551   2169011   2168415   2167758   2167059  
  6320.000000   2166332   2165596   2164852   2164102   2163341  
  6310.000000   2162575   2161805   2161032   2160241   2159413  
  6300.000000   2158514   2157521   2156421   2155225   2153950  
  6290.000000   2152624   2151263   2149876   2148459   2147013  
  6280.000000   2145545   2144083   2142656   2141300   2140031  
  6270.000000   2138851   2137738   2136664   2135593   2134498  
  6260.000000   2133358   2132160   2130896   2129563   2128167  
  6250.000000   2126725   2125265   2123817   2122406   2121034  
  6240.000000   2119683   2118318   2116904   2115422   2113881  
  6230.000000   2112320   2110786   2109325   2107956   2106667  
  6220.000000   2105423   2104179   2102905   2101588   2100243  
  6210.000000   2098889   2097552   2096239   2094947   2093661  
  6200.000000   2092375   2091086   2089808   2088559   2087362  
  6190.000000   2086231   2085175   2084196   2083290   2082447  
  6180.000000   2081652   2080878   2080094   2079268   2078382  
  6170.000000   2077439   2076463   2075495   2074571   2073708  
  6160.000000   2072890   2072074   2071203   2070231   2069143  
  6150.000000   2067962   2066743   2065548   2064428   2063402  
  6140.000000   2062459   2061565   2060680   2059779   2058854  
  6130.000000   2057917   2056985   2056077   2055201   2054357  
  6120.000000   2053545   2052755   2051986   2051226   2050465  
  6110.000000   2049686   2048878   2048039   2047186   2046346  
  6100.000000   2045564   2044878   2044315   2043878   2043553  
  6090.000000   2043307   2043113   2042940   2042776   2042612  
  6080.000000   2042450   2042287   2042136   2041998   2041897  
  6070.000000   2041845   2041869   2041970   2042156   2042403  
  6060.000000   2042700   2043023   2043376   2043764   2044218  
  6050.000000   2044759   2045414   2046182   2047068   2048051  
  6040.000000   2049129   2050290   2051549   2052905   2054374  
  6030.000000   2055948   2057628   2059394   2061246   2063169  
  6020.000000   2065174   2067255   2069421   2071661   2073971  
  6010.000000   2076327   2078721   2081129   2083546   2085954  
  6000.000000   2088357   2090745   2093139   2095553   2098029  
  5990.000000   2100597   2103301   2106153   2109168   2112324  
  5980.000000   2115609   2118997   2122485   2126066   2129758  
  5970.000000   2133559   2137475   2141481   2145561   2149677  
  5960.000000   2153815   2157956   2162108   2166267   2170448  
  5950.000000   2174646   2178870   2183119   2187408   2191754  
  5940.000000   2196178   2200701   2205330   2210062   2214879  
  5930.000000   2219758   2224667   2229574   2234435   2239201  
  5920.000000   2243804   2248181   2252273   2256051   2259519  
  5910.000000   2262725   2265732   2268623   2271452   2274262  
  5900.000000   2277055   2279830   2282567   2285274   2287949  
  5890.000000   2290619   2293285   2295954   2298603   2301215  
  5880.000000   2303755   2306208   2308558   2310800   2312927  
  5870.000000   2314935   2316816   2318575   2320229   2321812  
  5860.000000   2323376   2324971   2326641   2328409   2330279  
  5850.000000   2332240   2334279   2336385   2338557   2340796  
  5840.000000   2343107   2345485   2347922   2350403   2352919  
  5830.000000   2355460   2358023   2360601   2363191   2365777  
  5820.000000   2368353   2370912   2373465   2376031   2378632  
  5810.000000   2381279   2383960   2386649   2389292   2391857  
  5800.000000   2394308   2396669   2398959   2401248   2403556  
  5790.000000   2405915   2408270   2410565   2412667   2414465  
  5780.000000   2415808   2416594   2416720   2416152   2414884  
  5770.000000   2412992   2410580   2407818   2404866   2401896  
  5760.000000   2399016   2396317   2393812   2391515   2389398  
  5750.000000   2387456   2385669   2384033   2382525   2381118  
  5740.000000   2379775   2378461   2377156   2375851   2374557  
  5730.000000   2373281   2372033   2370800   2369571   2368322  
  5720.000000   2367048   2365752   2364457   2363185   2361956  
  5710.000000   2360772   2359628   2358511   2357419   2356358  
  5700.000000   2355347   2354404   2353537   2352737   2351978  
  5690.000000   2351231   2350467   2349684   2348884   2348095  
  5680.000000   2347327   2346590   2345862   2345113   2344286  
  5670.000000   2343327   2342175   2340781   2339104   2337128  
  5660.000000   2334860   2332345   2329653   2326881   2324118  
  5650.000000   2321446   2318902   2316496   2314206   2312009  
  5640.000000   2309882   2307823   2305839   2303937   2302119  
  5630.000000   2300364   2298651   2296953   2295272   2293620  
  5620.000000   2292038   2290556   2289204   2287973   2286843  
  5610.000000   2285774   2284738   2283716   2282718   2281754  
  5600.000000   2280846   2279993   2279190   2278419   2277666  
  5590.000000   2276927   2276213   2275538   2274916   2274351  
  5580.000000   2273828   2273327   2272821   2272292   2271730  
  5570.000000   2271131   2270492   2269812   2269084   2268304  
  5560.000000   2267475   2266606   2265711   2264805   2263888  
  5550.000000   2262955   2261989   2260976   2259909   2258798  
  5540.000000   2257664   2256533   2255424   2254346   2253295  
  5530.000000   2252262   2251242   2250236   2249251   2248300  
  5520.000000   2247384   2246503   2245644   2244794   2243941  
  5510.000000   2243081   2242204   2241303   2240356   2239342  
  5500.000000   2238235   2237028   2235728   2234372   2232999  
  5490.000000   2231647   2230325   2229020   2227694   2226312  
  5480.000000   2224847   2223305   2221707   2220097   2218503  
  5470.000000   2216945   2215414   2213895   2212365   2210811  
  5460.000000   2209233   2207634   2206018   2204381   2202718  
  5450.000000   2201022   2199296   2197556   2195827   2194133  
  5440.000000   2192489   2190898   2189358   2187863   2186424  
  5430.000000   2185050   2183760   2182551   2181408   2180289  
  5420.000000   2179158   2177984   2176780   2175584   2174473  
  5410.000000   2173507   2172740   2172161   2171746   2171433  
  5400.000000   2171190   2170984   2170832   2170747   2170772  
  5390.000000   2170913   2171193   2171599   2172153   2172857  
  5380.000000   2173751   2174842   2176153   2177650   2179319  
  5370.000000   2181099   2182986   2184951   2187035   2189243  
  5360.000000   2191639   2194219   2197038   2200081   2203406  
  5350.000000   2207012   2210976   2215292   2220020   2225119  
  5340.000000   2230618   2236460   2242695   2249292   2256336  
  5330.000000   2263803   2271766   2280167   2289052   2298351  
  5320.000000   2308135   2318381   2329217   2340652   2352822  
  5310.000000   2365700   2379373   2393758   2408903   2424725  
  5300.000000   2441292   2458557   2476627   2495481   2515225  
  5290.000000   2535810   2557279   2579507   2602446   2625920  
  5280.000000   2649869   2674182   2698902   2724043   2749734  
  5270.000000   2776014   2802923   2830360   2858179   2886170  
  5260.000000   2914158   2942040   2969800   2997500   3025185  
  5250.000000   3052885   3080491   3107866   3134761   3161028  
  5240.000000   3186504   3211230   3235222   3258660   3281598  
  5230.000000   3304165   3326289   3347953   3368962   3389254  
  5220.000000   3408666   3427242   3444958   3461981   3478359  
  5210.000000   3494265   3509676   3524646   3539025   3552783  
  5200.000000   3565761   3577994   3589431   3600208   3610326  
  5190.000000   3619911   3628907   3637359   3645158   3652333  
  5180.000000   3658808   3664667   3669881   3674551   3678637  
  5170.000000   3682206   3685198   3687675   3689601   3691063  
  5160.000000   3692043   3692618   3692744   3692460   3691708  
  5150.000000   3690534   3688917   3686944   3684626   3682047  
  5140.000000   3679196   3676119   3672783   3669225   3665429  
  5130.000000   3661447   3657280   3652967   3648485   3643842  
  5120.000000   3639006   3633993   3628811   3623516   3618150  
  5110.000000   3612770   3607399   3602055   3596723   3591400  
  5100.000000   3586074   3580757   3575460   3570204   3565000  
  5090.000000   3559860   3554780   3549767   3544814   3539926  
  5080.000000   3535093   3530302   3525523   3520723   3515861  
  5070.000000   3510913   3505856   3500698   3495441   3490105  
  5060.000000   3484694   3479221   3473679   3468079   3462411  
  5050.000000   3456687   3450896   3445042   3439099   3433060  
  5040.000000   3426900   3420618   3414208   3407690   3401075  
  5030.000000   3394386   3387630   3380822   3373967   3367078  
  5020.000000   3360170   3353266   3346385   3339545   3332755  
  5010.000000   3326018   3319340   3312721   3306179   3299729  
  5000.000000   3293401   3287207   3281167   3275272   3269527  
  4990.000000   3263908   3258425   3253062   3247848   3242779  
  4980.000000   3237892   3233179   3228673   3224358   3220266  
  4970.000000   3216383   3212750   3209360   3206259   3203435  
  4960.000000   3200929   3198717   3196836   3195258   3194020  
  4950.000000   3193098   3192532   3192296   3192428   3192897  
  4940.000000   3193741   3194925   3196493   3198408   3200711  
  4930.000000   3203362   3206395   3209763   3213496   3217552  
  4920.000000   3221965   3226706   3231818   3237281   3243137  
  4910.000000   3249366   3255996   3262994   3270359   3278039  
  4900.000000   3286003   3294185   3302540   3311010   3319555  
  4890.000000   3328138   3336720   3345272   3353736   3362068  
  4880.000000   3370182   3378024   3385493   3392546   3399091  
  4870.000000   3405109   3410525   3415348   3419529   3423108  
  4860.000000   3426062   3428452   3430266   3431570   3432352  
  4850.000000   3432678   3432546   3432035   3431174   3430062  
  4840.000000   3428744   3427315   3425805   3424274   3422729  
  4830.000000   3421200   3419685   3418208   3416780   3415423  
  4820.000000   3414156   3412992   3411947   3411026   3410238  
  4810.000000   3409581   3409063   3408668   3408394   3408214  
  4800.000000   3408118   3408087   3408127   3408239   3408450  
  4790.000000   3408771   3409221   3409789   3410464   3411208  
  4780.000000   3411997   3412800   3413613   3414437   3415291  
  4770.000000   3416190   3417149   3418166   3419232   3420325  
  4760.000000   3421426   3422513   3423575   3424607   3425611  
  4750.000000   3426592   3427558   3428515   3429469   3430424  
  4740.000000   3431382   3432339   3433293   3434232   3435147  
  4730.000000   3436028   3436869   3437668   3438434   3439179  
  4720.000000   3439929   3440706   3441543   3442457   3443473  
  4710.000000   3444591   3445821   3447150   3448587   3450127  
  4700.000000   3451799   3453622   3455647   3457906   3460444  
  4690.000000   3463273   3466403   3469806   3473456   3477295  
  4680.000000   3481282   3485350   3489459   3493547   3497585  
  4670.000000   3501526   3505365   3509092   3512748   3516368  
  4660.000000   3520026   3523777   3527688   3531788   3536100  
  4650.000000   3540613   3545310   3550165   3555156   3560267  
  4640.000000   3565488   3570815   3576233   3581727   3587263  
  4630.000000   3592805   3598294   3603681   3608902   3613913  
  4620.000000   3618655   3623101   3627213   3630993   3634427  
  4610.000000   3637547   3640359   3642908   3645197   3647266  
  4600.000000   3649100   3650733   3652149   3653391   3654458  
  4590.000000   3655402   3656220   3656940   3657522   3657951  
  4580.000000   3658159   3658120   3657787   3657169   3656277  
  4570.000000   3655166   3653878   3652481   3651007   3649504  
  4560.000000   3647984   3646475   3644977   3643506   3642053  
  4550.000000   3640617   3639175   3637711   3636203   3634638  
  4540.000000   3633011   3631330   3629612   3627877   3626147  
  4530.000000   3624435   3622756   3621109   3619506   3617937  
  4520.000000   3616418   3614942   3613533   3612184   3610936  
  4510.000000   3609784   3608785   3607943   3607330   3606955  
  4500.000000   3606902   3607178   3607873   3608989   3610618  
  4490.000000   3612756   3615493   3618818   3622818   3627473  
  4480.000000   3632857   3638935   3645765   3653290   3661541  
  4470.000000   3670434   3679972   3690050   3700652   3711672  
  4460.000000   3723094   3734827   3746864   3759129   3771615  
  4450.000000   3784258   3797047   3809938   3822926   3835995  
  4440.000000   3849147   3862378   3875674   3889011   3902337  
  4430.000000   3915608   3928743   3941698   3954395   3966813  
  4420.000000   3978889   3990624   4001966   4012923   4023443  
  4410.000000   4033531   4043127   4052233   4060793   4068817  
  4400.000000   4076273   4083204   4089621   4095614   4101240  
  4390.000000   4106624   4111849   4117044   4122282   4127658  
  4380.000000   4133200   4138948   4144882   4151000   4157258  
  4370.000000   4163638   4170093   4176592   4183076   4189493  
  4360.000000   4195773   4201868   4207723   4213343   4218701  
  4350.000000   4223860   4228794   4233587   4238196   4242714  
  4340.000000   4247106   4251457   4255690   4259754   4263357  
  4330.000000   4266149   4267576   4267122   4264306   4258934  
  4320.000000   4251101   4241285   4230207   4218745   4207699  
  4310.000000   4197709   4189108   4181989   4176212   4171554  
  4300.000000   4167769   4164672   4162160   4160168   4158695  
  4290.000000   4157694   4157173   4157069   4157399   4158131  
  4280.000000   4159300   4160889   4162895   4165268   4167943  
  4270.000000   4170845   4173881   4176959   4179937   4182631  
  4260.000000   4184775   4186069   4186190   4184900   4182071  
  4250.000000   4177780   4172259   4165911   4159172   4152502  
  4240.000000   4146226   4140581   4135614   4131295   4127477  
  4230.000000   4124015   4120743   4117542   4114325   4111048  
  4220.000000   4107717   4104349   4101020   4097791   4094775  
  4210.000000   4092039   4089682   4087728   4086213   4085091  
  4200.000000   4084326   4083822   4083515   4083308   4083170  
  4190.000000   4083051   4082980   4082957   4083051   4083276  
  4180.000000   4083696   4084308   4085152   4086209   4087516  
  4170.000000   4089062   4090903   4093045   4095552   4098425  
  4160.000000   4101713   4105390   4109482   4113937   4118769  
  4150.000000   4123919   4129405   4135180   4141276   4147667  
  4140.000000   4154410   4161491   4168970   4176820   4185078  
  4130.000000   4193683   4202643   4211886   4221429   4231241  
  4120.000000   4241382   4251871   4262802   4274209   4286167  
  4110.000000   4298677   4311755   4325340   4339384   4353771  
  4100.000000   4368412   4383185   4398014   4412828   4427608  
  4090.000000   4442351   4457079   4471814   4486562   4501329  
  4080.000000   4516083   4530818   4545483   4560072   4574515  
  4070.000000   4588791   4602790   4616467   4629696   4642450  
  4060.000000   4654635   4666275   4677310   4687786   4697647  
  4050.000000   4706942   4715624   4723768   4731348   4738454  
  4040.000000   4745047   4751181   4756769   4761836   4766302  
  4030.000000   4770228   4773589   4776489   4778929   4780984  
  4020.000000   4782601   4783824   4784631   4785074   4785129  
  4010.000000   4784897   4784441   4783754   4782647   4781112  
  4000.000000   4779354  
##END= 
