##TITLE= Sample 042 By ssteindl date Dienstag, November 20 2018
##JCAMP-DX= 4.24
##DATA TYPE= INFRARED SPECTRUM
##ORIGIN= Exported PE Spectrum Data File
##OWNER= Sandra Steindl
##DATE= 18/11/20
##TIME= 12:04:51.00
##SPECTROMETER/DATA SYSTEM= PERKIN-ELMER Frontier FT-IR/NIR IR
##INSTRUMENT PARAMETERS=
  APODIZATION=stark
  DETECTOR=INGAAS
##RESOLUTION= 16.000000
##DELTAX= -2.000000
##XUNITS= 1/CM
##YUNITS= A
##XFACTOR= 1.00
##YFACTOR= 0.00000011920928955078
##FIRSTX= 10000.00
##LASTX= 4000.00
##NPOINTS= 3001
##FIRSTY= 0.226347
##MAXY= 0.598088
##MINY= 0.183910
##XYDATA= (X++(Y..Y))
 10000.000000   1898739   1895613   1892222   1888290   1883963  
  9990.000000   1879430   1874598   1869241   1863502   1857902  
  9980.000000   1853110   1849650   1847866   1847747   1848981  
  9970.000000   1850980   1853124   1854827   1855710   1855626  
  9960.000000   1854761   1853525   1852516   1852324   1853403  
  9950.000000   1855907   1859631   1864031   1868349   1871856  
  9940.000000   1874022   1874734   1874207   1872952   1871449  
  9930.000000   1870048   1868792   1867515   1865934   1863810  
  9920.000000   1861029   1857600   1853597   1849076   1844029  
  9910.000000   1838435   1832320   1825881   1819497   1813701  
  9900.000000   1809052   1805974   1804671   1805066   1806862  
  9890.000000   1809609   1812773   1815791   1818145   1819404  
  9880.000000   1819422   1818312   1816633   1815081   1814436  
  9870.000000   1815073   1816899   1819197   1820956   1821211  
  9860.000000   1819536   1816325   1812753   1810474   1810947  
  9850.000000   1814979   1822293   1831714   1841486   1849943  
  9840.000000   1855978   1859315   1860423   1860144   1859268  
  9830.000000   1858182   1856794   1854682   1851415   1846842  
  9820.000000   1841235   1835267   1829733   1825393   1822613  
  9810.000000   1821449   1821519   1822310   1823230   1823834  
  9800.000000   1823849   1823194   1821940   1820226   1818233  
  9790.000000   1816087   1813902   1811706   1809517   1807312  
  9780.000000   1805076   1802819   1800554   1798353   1796295  
  9770.000000   1794504   1793129   1792303   1792129   1792542  
  9760.000000   1793301   1793910   1793753   1792241   1789069  
  9750.000000   1784392   1778897   1773688   1769984   1768749  
  9740.000000   1770353   1774410   1779900   1785446   1789767  
  9730.000000   1791993   1791871   1789731   1786266   1782315  
  9720.000000   1778589   1775637   1773783   1773229   1774034  
  9710.000000   1776121   1779192   1782694   1785842   1787744  
  9700.000000   1787609   1784946   1779753   1772491   1764056  
  9690.000000   1755498   1747868   1741991   1738367   1737149  
  9680.000000   1738113   1740787   1744496   1748558   1752386  
  9670.000000   1755603   1758092   1759915   1761255   1762226  
  9660.000000   1762854   1763010   1762549   1761417   1759774  
  9650.000000   1758034   1756732   1756379   1757186   1758981  
  9640.000000   1761188   1762998   1763631   1762539   1759570  
  9630.000000   1754944   1749172   1742922   1736884   1731733  
  9620.000000   1728031   1726234   1726564   1728969   1733023  
  9610.000000   1737986   1742904   1746831   1749048   1749212  
  9600.000000   1747433   1744148   1740033   1735725   1731791  
  9590.000000   1728568   1726251   1724867   1724311   1724371  
  9580.000000   1724703   1724962   1724843   1724270   1723409  
  9570.000000   1722671   1722542   1723364   1725151   1727493  
  9560.000000   1729688   1730973   1730854   1729315   1726843  
  9550.000000   1724246   1722308   1721481   1721718   1722510  
  9540.000000   1723159   1723026   1721823   1719627   1716842  
  9530.000000   1713962   1711392   1709334   1707800   1706759  
  9520.000000   1706248   1706456   1707638   1710006   1713530  
  9510.000000   1717919   1722600   1726936   1730340   1732470  
  9500.000000   1733262   1732889   1731681   1729966   1728003  
  9490.000000   1725910   1723660   1721146   1718209   1714757  
  9480.000000   1710771   1706398   1701912   1697720   1694251  
  9470.000000   1691842   1690601   1690317   1690492   1690467  
  9460.000000   1689666   1687806   1685070   1682041   1679571  
  9450.000000   1678442   1679135   1681609   1685327   1689385  
  9440.000000   1692816   1694885   1695316   1694358   1692634  
  9430.000000   1690929   1689890   1689849   1690751   1692186  
  9420.000000   1693604   1694440   1694349   1693187   1691032  
  9410.000000   1688065   1684499   1680580   1676579   1672879  
  9400.000000   1669940   1668302   1668421   1670565   1674603  
  9390.000000   1680015   1685915   1691301   1695308   1697401  
  9380.000000   1697519   1695946   1693242   1689949   1686517  
  9370.000000   1683175   1680030   1677160   1674690   1672852  
  9360.000000   1671840   1671813   1672702   1674326   1676344  
  9350.000000   1678443   1680361   1681942   1683098   1683721  
  9340.000000   1683691   1682819   1680999   1678228   1674735  
  9330.000000   1670925   1667297   1664295   1662136   1660802  
  9320.000000   1660060   1659646   1659391   1659302   1659505  
  9310.000000   1660108   1661055   1662096   1662808   1662775  
  9300.000000   1661734   1659762   1657315   1655098   1653836  
  9290.000000   1653952   1655446   1657820   1660256   1661772  
  9280.000000   1661545   1659115   1654605   1648678   1642395  
  9270.000000   1636934   1633300   1632130   1633518   1637054  
  9260.000000   1641911   1647145   1651934   1655789   1658584  
  9250.000000   1660471   1661722   1662502   1662807   1662421  
  9240.000000   1661125   1658807   1655617   1651988   1648509  
  9230.000000   1645820   1644328   1644179   1645145   1646815  
  9220.000000   1648670   1650230   1651104   1650980   1649683  
  9210.000000   1647129   1643451   1638946   1634165   1629770  
  9200.000000   1626449   1624679   1624606   1626026   1628455  
  9190.000000   1631360   1634272   1637000   1639565   1642147  
  9180.000000   1644856   1647635   1650241   1652297   1653474  
  9170.000000   1653553   1652556   1650652   1648114   1645167  
  9160.000000   1641934   1638471   1634807   1631085   1627522  
  9150.000000   1624463   1622216   1621023   1620912   1621720  
  9140.000000   1623106   1624662   1626013   1626846   1626974  
  9130.000000   1626307   1624904   1622912   1620569   1618173  
  9120.000000   1616059   1614538   1613806   1613911   1614726  
  9110.000000   1616012   1617432   1618635   1619296   1619175  
  9100.000000   1618186   1616346   1613818   1610824   1607676  
  9090.000000   1604655   1601989   1599796   1598113   1596944  
  9080.000000   1596295   1596238   1596866   1598289   1600506  
  9070.000000   1603365   1606523   1609527   1611954   1613506  
  9060.000000   1614110   1613893   1613130   1612098   1610979  
  9050.000000   1609822   1608618   1607333   1606012   1604746  
  9040.000000   1603666   1602799   1602020   1601074   1599700  
  9030.000000   1597774   1595408   1593023   1591224   1590639  
  9020.000000   1591652   1594310   1598293   1603024   1607828  
  9010.000000   1612106   1615475   1617719   1618765   1618579  
  9000.000000   1617209   1614769   1611519   1607863   1604333  
  8990.000000   1601473   1599681   1599129   1599677   1600987  
  8980.000000   1602574   1604032   1605081   1605649   1605780  
  8970.000000   1605584   1605174   1604617   1603975   1603288  
  8960.000000   1602643   1602111   1601761   1601583   1601500  
  8950.000000   1601384   1601112   1600641   1600006   1599347  
  8940.000000   1598825   1598592   1598707   1599161   1599879  
  8930.000000   1600758   1601688   1602556   1603246   1603609  
  8920.000000   1603489   1602740   1601310   1599264   1596803  
  8910.000000   1594231   1591892   1590092   1589020   1588725  
  8900.000000   1589105   1589969   1591065   1592148   1593022  
  8890.000000   1593560   1593742   1593613   1593290   1592884  
  8880.000000   1592495   1592158   1591862   1591570   1591277  
  8870.000000   1591044   1591005   1591333   1592163   1593515  
  8860.000000   1595250   1597059   1598563   1599408   1599397  
  8850.000000   1598535   1597041   1595278   1593667   1592580  
  8840.000000   1592263   1592807   1594142   1596070   1598270  
  8830.000000   1600370   1602001   1602891   1602940   1602258  
  8820.000000   1601153   1600031   1599282   1599121   1599533  
  8810.000000   1600268   1600982   1601378   1601348   1601020  
  8800.000000   1600673   1600632   1601072   1601974   1603109  
  8790.000000   1604176   1604951   1605378   1605613   1605890  
  8780.000000   1606414   1607199   1608046   1608605   1608529  
  8770.000000   1607658   1606112   1604298   1602782   1602116  
  8760.000000   1602643   1604403   1607118   1610282   1613308  
  8750.000000   1615664   1617004   1617195   1616353   1614762  
  8740.000000   1612840   1611029   1609729   1609199   1609517  
  8730.000000   1610577   1612136   1613906   1615623   1617136  
  8720.000000   1618408   1619500   1620505   1621473   1622386  
  8710.000000   1623146   1623641   1623800   1623642   1623298  
  8700.000000   1622968   1622889   1623247   1624143   1625545  
  8690.000000   1627294   1629124   1630701   1631695   1631846  
  8680.000000   1631060   1629425   1627240   1624942   1623036  
  8670.000000   1621940   1621901   1622906   1624708   1626915  
  8660.000000   1629106   1630967   1632335   1633259   1633933  
  8650.000000   1634635   1635628   1637080   1639030   1641347  
  8640.000000   1643783   1645986   1647620   1648403   1648214  
  8630.000000   1647127   1645426   1643533   1641893   1640859  
  8620.000000   1640605   1641110   1642205   1643660   1645286  
  8610.000000   1646985   1648738   1650569   1652463   1654346  
  8600.000000   1656088   1657584   1658826   1659935   1661138  
  8590.000000   1662665   1664644   1667004   1669463   1671614  
  8580.000000   1673067   1673575   1673110   1671865   1670185  
  8570.000000   1668456   1666992   1666000   1665566   1665708  
  8560.000000   1666386   1667538   1669054   1670782   1672522  
  8550.000000   1674073   1675303   1676195   1676862   1677485  
  8540.000000   1678252   1679251   1680459   1681739   1682941  
  8530.000000   1683969   1684849   1685715   1686733   1688018  
  8520.000000   1689535   1691123   1692538   1693580   1694179  
  8510.000000   1694427   1694547   1694777   1695259   1695971  
  8500.000000   1696739   1697324   1697530   1697315   1696812  
  8490.000000   1696300   1696083   1696392   1697296   1698696  
  8480.000000   1700358   1702012   1703435   1704503   1705210  
  8470.000000   1705620   1705843   1705970   1706068   1706153  
  8460.000000   1706229   1706284   1706340   1706430   1706611  
  8450.000000   1706947   1707496   1708304   1709390   1710754  
  8440.000000   1712380   1714235   1716277   1718439   1720628  
  8430.000000   1722724   1724584   1726078   1727121   1727729  
  8420.000000   1728026   1728228   1728572   1729242   1730281  
  8410.000000   1731567   1732814   1733691   1733917   1733393  
  8400.000000   1732209   1730666   1729143   1728014   1727490  
  8390.000000   1727609   1728233   1729126   1730028   1730724  
  8380.000000   1731082   1731051   1730627   1729840   1728737  
  8370.000000   1727412   1726016   1724743   1723796   1723333  
  8360.000000   1723428   1724021   1724928   1725885   1726622  
  8350.000000   1726937   1726736   1726043   1724993   1723791  
  8340.000000   1722674   1721859   1721497   1721650   1722270  
  8330.000000   1723214   1724253   1725144   1725688   1725791  
  8320.000000   1725484   1724895   1724194   1723507   1722871  
  8310.000000   1722214   1721407   1720339   1718994   1717494  
  8300.000000   1716065   1714986   1714464   1714572   1715193  
  8290.000000   1716071   1716884   1717348   1717284   1716653  
  8280.000000   1715551   1714155   1712668   1711268   1710081  
  8270.000000   1709175   1708556   1708183   1707964   1707792  
  8260.000000   1707550   1707171   1706622   1705951   1705234  
  8250.000000   1704575   1704045   1703645   1703306   1702883  
  8240.000000   1702225   1701192   1699716   1697802   1695528  
  8230.000000   1693041   1690525   1688205   1686290   1684972  
  8220.000000   1684346   1684415   1685035   1685962   1686873  
  8210.000000   1687457   1687482   1686849   1685595   1683852  
  8200.000000   1681797   1679573   1677292   1675005   1672762  
  8190.000000   1670619   1668654   1666954   1665557   1664452  
  8180.000000   1663544   1662718   1661863   1660943   1660002  
  8170.000000   1659142   1658460   1657981   1657628   1657231  
  8160.000000   1656601   1655606   1654231   1652585   1650868  
  8150.000000   1649281   1647962   1646929   1646092   1645290  
  8140.000000   1644364   1643204   1641780   1640133   1638361  
  8130.000000   1636592   1634967   1633631   1632712   1632292  
  8120.000000   1632368   1632821   1633422   1633874   1633909  
  8110.000000   1633369   1632276   1630820   1629296   1627988  
  8100.000000   1627071   1626556   1626299   1626091   1625759  
  8090.000000   1625243   1624622   1624046   1623648   1623452  
  8080.000000   1623345   1623118   1622559   1621552   1620142  
  8070.000000   1618529   1617001   1615842   1615229   1615202  
  8060.000000   1615649   1616365   1617102   1617627   1617759  
  8050.000000   1617378   1616442   1614988   1613142   1611102  
  8040.000000   1609113   1607412   1606154   1605388   1605021  
  8030.000000   1604881   1604765   1604532   1604131   1603611  
  8020.000000   1603059   1602535   1602026   1601428   1600609  
  8010.000000   1599452   1597953   1596210   1594429   1592832  
  8000.000000   1591590   1590767   1590308   1590087   1589951  
  7990.000000   1589804   1589619   1589442   1589359   1589447  
  7980.000000   1589743   1590215   1590781   1591309   1591658  
  7970.000000   1591688   1591306   1590475   1589251   1587770  
  7960.000000   1586243   1584897   1583917   1583381   1583233  
  7950.000000   1583302   1583355   1583192   1582713   1581963  
  7940.000000   1581103   1580354   1579905   1579847   1580147  
  7930.000000   1580666   1581227   1581664   1581879   1581844  
  7920.000000   1581585   1581153   1580606   1579997   1579394  
  7910.000000   1578878   1578541   1578457   1578648   1579055  
  7900.000000   1579540   1579926   1580046   1579816   1579261  
  7890.000000   1578512   1577767   1577211   1576961   1577027  
  7880.000000   1577320   1577689   1577985   1578103   1578013  
  7870.000000   1577757   1577419   1577097   1576870   1576792  
  7860.000000   1576879   1577129   1577514   1577996   1578518  
  7850.000000   1579019   1579431   1579694   1579769   1579636  
  7840.000000   1579305   1578796   1578144   1577374   1576512  
  7830.000000   1575579   1574607   1573651   1572781   1572099  
  7820.000000   1571694   1571645   1571971   1572635   1573521  
  7810.000000   1574466   1575284   1575805   1575924   1575615  
  7800.000000   1574945   1574041   1573060   1572133   1571339  
  7790.000000   1570688   1570136   1569621   1569096   1568557  
  7780.000000   1568041   1567610   1567306   1567126   1567004  
  7770.000000   1566829   1566484   1565890   1565051   1564058  
  7760.000000   1563077   1562287   1561833   1561768   1562037  
  7750.000000   1562495   1562948   1563220   1563198   1562869  
  7740.000000   1562309   1561650   1561034   1560552   1560230  
  7730.000000   1560006   1559776   1559409   1558813   1557951  
  7720.000000   1556856   1555628   1554394   1553298   1552449  
  7710.000000   1551928   1551758   1551925   1552370   1553010  
  7700.000000   1553736   1554433   1554985   1555294   1555297  
  7690.000000   1554972   1554349   1553489   1552488   1551428  
  7680.000000   1550389   1549411   1548508   1547672   1546883  
  7670.000000   1546131   1545415   1544764   1544219   1543838  
  7660.000000   1543669   1543743   1544053   1544548   1545142  
  7650.000000   1545727   1546203   1546498   1546593   1546512  
  7640.000000   1546319   1546080   1545852   1545653   1545473  
  7630.000000   1545276   1545034   1544739   1544413   1544108  
  7620.000000   1543875   1543761   1543784   1543941   1544210  
  7610.000000   1544565   1544981   1545432   1545886   1546296  
  7600.000000   1546604   1546749   1546688   1546409   1545943  
  7590.000000   1545353   1544726   1544137   1543643   1543264  
  7580.000000   1542997   1542828   1542745   1542750   1542853  
  7570.000000   1543067   1543395   1543827   1544340   1544903  
  7560.000000   1545490   1546079   1546657   1547207   1547720  
  7550.000000   1548180   1548587   1548946   1549283   1549627  
  7540.000000   1550014   1550456   1550955   1551481   1551999  
  7530.000000   1552472   1552885   1553242   1553570   1553915  
  7520.000000   1554322   1554842   1555518   1556386   1557468  
  7510.000000   1558754   1560205   1561733   1563225   1564551  
  7500.000000   1565609   1566343   1566783   1567019   1567197  
  7490.000000   1567456   1567914   1568623   1569579   1570730  
  7480.000000   1572007   1573348   1574718   1576110   1577534  
  7470.000000   1579003   1580525   1582096   1583705   1585328  
  7460.000000   1586947   1588528   1590044   1591450   1592717  
  7450.000000   1593822   1594765   1595574   1596302   1597020  
  7440.000000   1597802   1598717   1599813   1601117   1602635  
  7430.000000   1604348   1606214   1608166   1610124   1612005  
  7420.000000   1613744   1615308   1616714   1618015   1619300  
  7410.000000   1620652   1622131   1623749   1625478   1627253  
  7400.000000   1629004   1630678   1632250   1633733   1635155  
  7390.000000   1636554   1637951   1639353   1640752   1642139  
  7380.000000   1643512   1644885   1646284   1647740   1649271  
  7370.000000   1650879   1652539   1654215   1655860   1657443  
  7360.000000   1658948   1660381   1661766   1663129   1664491  
  7350.000000   1665851   1667191   1668474   1669670   1670758  
  7340.000000   1671748   1672675   1673598   1674585   1675693  
  7330.000000   1676968   1678424   1680058   1681837   1683716  
  7320.000000   1685637   1687542   1689371   1691068   1692598  
  7310.000000   1693938   1695095   1696093   1696975   1697786  
  7300.000000   1698571   1699371   1700219   1701147   1702174  
  7290.000000   1703313   1704549   1705853   1707171   1708454  
  7280.000000   1709666   1710804   1711906   1713026   1714224  
  7270.000000   1715521   1716896   1718271   1719559   1720678  
  7260.000000   1721608   1722382   1723098   1723865   1724778  
  7250.000000   1725875   1727151   1728558   1730057   1731627  
  7240.000000   1733295   1735097   1737069   1739194   1741415  
  7230.000000   1743628   1745751   1747726   1749576   1751361  
  7220.000000   1753191   1755142   1757270   1759565   1762000  
  7210.000000   1764530   1767140   1769833   1772644   1775595  
  7200.000000   1778699   1781927   1785241   1788584   1791926  
  7190.000000   1795242   1798541   1801826   1805119   1808418  
  7180.000000   1811741   1815092   1818493   1821952   1825470  
  7170.000000   1829008   1832521   1835944   1839251   1842452  
  7160.000000   1845629   1848885   1852339   1856054   1860042  
  7150.000000   1864242   1868579   1872968   1877389   1881860  
  7140.000000   1886456   1891237   1896243   1901437   1906755  
  7130.000000   1912088   1917375   1922569   1927701   1932808  
  7120.000000   1937959   1943185   1948516   1953950   1959498  
  7110.000000   1965163   1970972   1976926   1983021   1989214  
  7100.000000   1995459   2001703   2007933   2014161   2020439  
  7090.000000   2026816   2033328   2039960   2046672   2053394  
  7080.000000   2060071   2066663   2073164   2079579   2085920  
  7070.000000   2092176   2098333   2104377   2110316   2116189  
  7060.000000   2122066   2128019   2134106   2140353   2146742  
  7050.000000   2153235   2159785   2166359   2172935   2179503  
  7040.000000   2186041   2192516   2198885   2205109   2211175  
  7030.000000   2217100   2222932   2228724   2234509   2240294  
  7020.000000   2246042   2251713   2257265   2262701   2268044  
  7010.000000   2273350   2278653   2283974   2289282   2294533  
  7000.000000   2299663   2304639   2309440   2314091   2318614  
  6990.000000   2323049   2327414   2331734   2336012   2340267  
  6980.000000   2344497   2348701   2352836   2356852   2360673  
  6970.000000   2364247   2367542   2370592   2373463   2376267  
  6960.000000   2379093   2382015   2385043   2388157   2391290  
  6950.000000   2394382   2397369   2400221   2402917   2405471  
  6940.000000   2407893   2410224   2412491   2414739   2416991  
  6930.000000   2419262   2421533   2423772   2425923   2427944  
  6920.000000   2429793   2431467   2432972   2434338   2435594  
  6910.000000   2436773   2437904   2439021   2440152   2441327  
  6900.000000   2442548   2443806   2445061   2446273   2447409  
  6890.000000   2448476   2449512   2450588   2451769   2453095  
  6880.000000   2454547   2456061   2457544   2458913   2460118  
  6870.000000   2461160   2462071   2462900   2463674   2464397  
  6860.000000   2465051   2465625   2466128   2466605   2467115  
  6850.000000   2467718   2468430   2469232   2470058   2470841  
  6840.000000   2471525   2472103   2472600   2473060   2473512  
  6830.000000   2473958   2474363   2474683   2474884   2474965  
  6820.000000   2474962   2474930   2474919   2474957   2475034  
  6810.000000   2475125   2475195   2475231   2475240   2475248  
  6800.000000   2475281   2475355   2475461   2475580   2475683  
  6790.000000   2475755   2475789   2475793   2475768   2475721  
  6780.000000   2475645   2475542   2475412   2475270   2475122  
  6770.000000   2474969   2474789   2474546   2474195   2473710  
  6760.000000   2473088   2472366   2471599   2470850   2470158  
  6750.000000   2469540   2468985   2468477   2468003   2467573  
  6740.000000   2467204   2466911   2466688   2466499   2466289  
  6730.000000   2466004   2465611   2465117   2464561   2464005  
  6720.000000   2463505   2463092   2462763   2462494   2462242  
  6710.000000   2461973   2461652   2461261   2460777   2460190  
  6700.000000   2459493   2458702   2457851   2456998   2456198  
  6690.000000   2455489   2454871   2454304   2453718   2453048  
  6680.000000   2452247   2451318   2450295   2449237   2448194  
  6670.000000   2447198   2446243   2445309   2444361   2443377  
  6660.000000   2442340   2441247   2440089   2438864   2437568  
  6650.000000   2436216   2434837   2433483   2432202   2431027  
  6640.000000   2429952   2428939   2427918   2426831   2425643  
  6630.000000   2424364   2423030   2421695   2420392   2419122  
  6620.000000   2417857   2416554   2415182   2413740   2412253  
  6610.000000   2410763   2409300   2407872   2406456   2405021  
  6600.000000   2403541   2402018   2400481   2398971   2397515  
  6590.000000   2396117   2394742   2393342   2391873   2390320  
  6580.000000   2388702   2387070   2385476   2383958   2382516  
  6570.000000   2381123   2379730   2378292   2376783   2375199  
  6560.000000   2373557   2371883   2370201   2368527   2366876  
  6550.000000   2365256   2363679   2362153   2360685   2359274  
  6540.000000   2357913   2356594   2355314   2354072   2352872  
  6530.000000   2351713   2350587   2349475   2348355   2347206  
  6520.000000   2346022   2344808   2343579   2342347   2341118  
  6510.000000   2339885   2338640   2337378   2336114   2334879  
  6500.000000   2333710   2332641   2331678   2330803   2329972  
  6490.000000   2329138   2328263   2327336   2326367   2325382  
  6480.000000   2324404   2323438   2322476   2321496   2320482  
  6470.000000   2319425   2318331   2317213   2316082   2314944  
  6460.000000   2313799   2312651   2311511   2310405   2309363  
  6450.000000   2308409   2307543   2306741   2305959   2305145  
  6440.000000   2304267   2303315   2302314   2301302   2300327  
  6430.000000   2299421   2298603   2297869   2297214   2296626  
  6420.000000   2296098   2295621   2295181   2294759   2294336  
  6410.000000   2293902   2293463   2293041   2292668   2292368  
  6400.000000   2292149   2291989   2291847   2291676   2291443  
  6390.000000   2291137   2290771   2290371   2289961   2289551  
  6380.000000   2289135   2288698   2288224   2287716   2287187  
  6370.000000   2286664   2286169   2285716   2285302   2284922  
  6360.000000   2284560   2284212   2283871   2283535   2283189  
  6350.000000   2282815   2282385   2281884   2281309   2280679  
  6340.000000   2280023   2279367   2278719   2278064   2277364  
  6330.000000   2276581   2275688   2274693   2273625   2272539  
  6320.000000   2271484   2270495   2269578   2268717   2267882  
  6310.000000   2267044   2266178   2265271   2264311   2263296  
  6300.000000   2262221   2261095   2259933   2258771   2257640  
  6290.000000   2256564   2255542   2254549   2253537   2252462  
  6280.000000   2251292   2250028   2248694   2247330   2245966  
  6270.000000   2244615   2243259   2241878   2240446   2238968  
  6260.000000   2237469   2235996   2234586   2233260   2232002  
  6250.000000   2230770   2229506   2228167   2226724   2225179  
  6240.000000   2223549   2221858   2220122   2218348   2216540  
  6230.000000   2214706   2212861   2211027   2209228   2207477  
  6220.000000   2205774   2204112   2202478   2200875   2199319  
  6210.000000   2197838   2196465   2195215   2194077   2193011  
  6200.000000   2191959   2190854   2189650   2188323   2186885  
  6190.000000   2185367   2183816   2182274   2180775   2179338  
  6180.000000   2177967   2176660   2175403   2174185   2172986  
  6170.000000   2171792   2170590   2169379   2168161   2166948  
  6160.000000   2165752   2164581   2163430   2162284   2161118  
  6150.000000   2159909   2158644   2157325   2155976   2154633  
  6140.000000   2153330   2152095   2150933   2149831   2148760  
  6130.000000   2147686   2146589   2145461   2144317   2143177  
  6120.000000   2142065   2140987   2139937   2138889   2137820  
  6110.000000   2136715   2135585   2134462   2133397   2132439  
  6100.000000   2131625   2130957   2130420   2129970   2129570  
  6090.000000   2129183   2128802   2128425   2128071   2127746  
  6080.000000   2127462   2127210   2126992   2126800   2126648  
  6070.000000   2126539   2126492   2126504   2126577   2126693  
  6060.000000   2126845   2127022   2127240   2127514   2127883  
  6050.000000   2128367   2128993   2129757   2130661   2131677  
  6040.000000   2132791   2133973   2135213   2136486   2137795  
  6030.000000   2139132   2140516   2141959   2143498   2145145  
  6020.000000   2146922   2148813   2150802   2152843   2154904  
  6010.000000   2156949   2158971   2160967   2162960   2164961  
  6000.000000   2166994   2169062   2171180   2173344   2175572  
  5990.000000   2177865   2180244   2182708   2185269   2187921  
  5980.000000   2190668   2193505   2196439   2199462   2202578  
  5970.000000   2205764   2209010   2212292   2215610   2218962  
  5960.000000   2222373   2225857   2229434   2233093   2236819  
  5950.000000   2240574   2244340   2248104   2251889   2255727  
  5940.000000   2259660   2263712   2267882   2272146   2276462  
  5930.000000   2280793   2285113   2289415   2293697   2297952  
  5920.000000   2302152   2306256   2310206   2313963   2317506  
  5910.000000   2320850   2324029   2327090   2330058   2332949  
  5900.000000   2335749   2338455   2341061   2343603   2346118  
  5890.000000   2348666   2351275   2353958   2356685   2359413  
  5880.000000   2362084   2364658   2367106   2369423   2371610  
  5870.000000   2373668   2375601   2377413   2379125   2380773  
  5860.000000   2382411   2384096   2385878   2387783   2389817  
  5850.000000   2391965   2394206   2396526   2398920   2401392  
  5840.000000   2403946   2406577   2409274   2412012   2414773  
  5830.000000   2417536   2420297   2423048   2425790   2428507  
  5820.000000   2431189   2433818   2436388   2438905   2441380  
  5810.000000   2443832   2446262   2448673   2451036   2453347  
  5800.000000   2455585   2457781   2459949   2462148   2464383  
  5790.000000   2466671   2468947   2471148   2473143   2474824  
  5780.000000   2476051   2476732   2476777   2476161   2474880  
  5770.000000   2473014   2470667   2468007   2465191   2462385  
  5760.000000   2459690   2457179   2454850   2452696   2450682  
  5750.000000   2448804   2447058   2445465   2444029   2442743  
  5740.000000   2441573   2440472   2439399   2438319   2437236  
  5730.000000   2436160   2435122   2434134   2433206   2432317  
  5720.000000   2431451   2430579   2429695   2428792   2427884  
  5710.000000   2426977   2426086   2425213   2424368   2423555  
  5700.000000   2422786   2422070   2421415   2420821   2420282  
  5690.000000   2419795   2419354   2418970   2418645   2418393  
  5680.000000   2418200   2418043   2417866   2417607   2417185  
  5670.000000   2416533   2415588   2414318   2412704   2410761  
  5660.000000   2408521   2406050   2403426   2400749   2398107  
  5650.000000   2395579   2393203   2390994   2388929   2386979  
  5640.000000   2385108   2383296   2381533   2379822   2378166  
  5630.000000   2376565   2375017   2373512   2372055   2370644  
  5620.000000   2369291   2367997   2366768   2365592   2364461  
  5610.000000   2363360   2362292   2361264   2360292   2359383  
  5600.000000   2358538   2357735   2356945   2356134   2355278  
  5590.000000   2354372   2353428   2352468   2351513   2350572  
  5580.000000   2349644   2348715   2347771   2346802   2345803  
  5570.000000   2344776   2343723   2342644   2341533   2340389  
  5560.000000   2339211   2338009   2336793   2335575   2334362  
  5550.000000   2333154   2331947   2330740   2329535   2328342  
  5540.000000   2327174   2326038   2324931   2323839   2322742  
  5530.000000   2321622   2320470   2319291   2318094   2316894  
  5520.000000   2315697   2314501   2313300   2312096   2310893  
  5510.000000   2309712   2308566   2307467   2306404   2305350  
  5500.000000   2304264   2303115   2301884   2300580   2299228  
  5490.000000   2297861   2296494   2295127   2293735   2292287  
  5480.000000   2290755   2289134   2287439   2285702   2283959  
  5470.000000   2282241   2280562   2278927   2277326   2275751  
  5460.000000   2274186   2272612   2271008   2269350   2267616  
  5450.000000   2265801   2263915   2261989   2260063   2258173  
  5440.000000   2256345   2254583   2252884   2251235   2249640  
  5430.000000   2248101   2246632   2245229   2243886   2242571  
  5420.000000   2241267   2239955   2238662   2237423   2236304  
  5410.000000   2235342   2234563   2233932   2233414   2232946  
  5400.000000   2232510   2232096   2231751   2231512   2231438  
  5390.000000   2231542   2231836   2232289   2232895   2233629  
  5380.000000   2234509   2235530   2236715   2238039   2239508  
  5370.000000   2241078   2242761   2244532   2246433   2248460  
  5360.000000   2250670   2253055   2255672   2258518   2261667  
  5350.000000   2265133   2269005   2273283   2278024   2283175  
  5340.000000   2288760   2294706   2301059   2307785   2314970  
  5330.000000   2322593   2330731   2339325   2348422   2357947  
  5320.000000   2367970   2378460   2389545   2401228   2413651  
  5310.000000   2426790   2440741   2455427   2470908   2487103  
  5300.000000   2504089   2521822   2540419   2559867   2580287  
  5290.000000   2601637   2623969   2647156   2671149   2695761  
  5280.000000   2720937   2746564   2772703   2799375   2826721  
  5270.000000   2854770   2883541   2912888   2942619   2972476  
  5260.000000   3002260   3031865   3061294   3090636   3119968  
  5250.000000   3149335   3178632   3207717   3236322   3264290  
  5240.000000   3291440   3317813   3343412   3368413   3392847  
  5230.000000   3416833   3440275   3463155   3485274   3506585  
  5220.000000   3526939   3546403   3564957   3582784   3599925  
  5210.000000   3616552   3632620   3648171   3663027   3677149  
  5200.000000   3690360   3702712   3714162   3724884   3734904  
  5190.000000   3744379   3753260   3761597   3769256   3776252  
  5180.000000   3782480   3788018   3792827   3797018   3800553  
  5170.000000   3803508   3805819   3807552   3808664   3809248  
  5160.000000   3809292   3808886   3807996   3806676   3804868  
  5150.000000   3802625   3799921   3796848   3793413   3789706  
  5140.000000   3785712   3781480   3776968   3772207   3767174  
  5130.000000   3761921   3756448   3750805   3744979   3738992  
  5120.000000   3732820   3726486   3719995   3713399   3706727  
  5110.000000   3700031   3693322   3686620   3679916   3673217  
  5100.000000   3666527   3659871   3653265   3646729   3640260  
  5090.000000   3633852   3627482   3621143   3614830   3608558  
  5080.000000   3602339   3596186   3590086   3584023   3577956  
  5070.000000   3571856   3565691   3559454   3553137   3546750  
  5060.000000   3540284   3533741   3527102   3520365   3513519  
  5050.000000   3506575   3499534   3492410   3485200   3477909  
  5040.000000   3470531   3463077   3455561   3448019   3440480  
  5030.000000   3432982   3425543   3418169   3410854   3403585  
  5020.000000   3396359   3389175   3382051   3375000   3368048  
  5010.000000   3361198   3354467   3347845   3341349   3334973  
  5000.000000   3328747   3322671   3316776   3311055   3305530  
  4990.000000   3300185   3295044   3290096   3285378   3280885  
  4980.000000   3276655   3272670   3268958   3265489   3262288  
  4970.000000   3259331   3256659   3254255   3252169   3250375  
  4960.000000   3248914   3247750   3246920   3246396   3246230  
  4950.000000   3246406   3246984   3247943   3249326   3251090  
  4940.000000   3253262   3255789   3258698   3261944   3265561  
  4930.000000   3269505   3273808   3278424   3283386   3288658  
  4920.000000   3294282   3300242   3306586   3313299   3320415  
  4910.000000   3327896   3335745   3343904   3352352   3361026  
  4900.000000   3369895   3378908   3388041   3397263   3406554  
  4890.000000   3415897   3425262   3434621   3443914   3453093  
  4880.000000   3462076   3470814   3479230   3487305   3494976  
  4870.000000   3502242   3509040   3515369   3521164   3526435  
  4860.000000   3531144   3535336   3539011   3542240   3545032  
  4850.000000   3547455   3549503   3551230   3552633   3553775  
  4840.000000   3554678   3555424   3556050   3556630   3557191  
  4830.000000   3557778   3558396   3559068   3559790   3560573  
  4820.000000   3561415   3562318   3563278   3564294   3565361  
  4810.000000   3566478   3567643   3568850   3570096   3571365  
  4800.000000   3572652   3573947   3575256   3576589   3577968  
  4790.000000   3579415   3580950   3582575   3584282   3586047  
  4780.000000   3587842   3589634   3591399   3593119   3594784  
  4770.000000   3596390   3597936   3599427   3600867   3602267  
  4760.000000   3603633   3604976   3606293   3607586   3608840  
  4750.000000   3610047   3611191   3612271   3613280   3614225  
  4740.000000   3615102   3615913   3616650   3617309   3617881  
  4730.000000   3618368   3618774   3619109   3619382   3619601  
  4720.000000   3619771   3619895   3619984   3620049   3620118  
  4710.000000   3620215   3620374   3620611   3620946   3621380  
  4700.000000   3621920   3622569   3623345   3624265   3625355  
  4690.000000   3626626   3628085   3629712   3631480   3633344  
  4680.000000   3635266   3637200   3639126   3641015   3642868  
  4670.000000   3644670   3646436   3648167   3649888   3651612  
  4660.000000   3653374   3655191   3657095   3659102   3661233  
  4650.000000   3663500   3665921   3668500   3671242   3674136  
  4640.000000   3677162   3680291   3683483   3686707   3689927  
  4630.000000   3693123   3696271   3699352   3702338   3705199  
  4620.000000   3707892   3710386   3712646   3714665   3716433  
  4610.000000   3717973   3719293   3720429   3721389   3722208  
  4600.000000   3722891   3723476   3723968   3724406   3724786  
  4590.000000   3725124   3725387   3725557   3725574   3725406  
  4580.000000   3725001   3724348   3723432   3722282   3720921  
  4570.000000   3719408   3717779   3716089   3714358   3712613  
  4560.000000   3710845   3709055   3707219   3705330   3703376  
  4550.000000   3701368   3699313   3697236   3695149   3693067  
  4540.000000   3690990   3688913   3686829   3684726   3682608  
  4530.000000   3680476   3678352   3676247   3674193   3672199  
  4520.000000   3670301   3668503   3666843   3665318   3663976  
  4510.000000   3662810   3661877   3661172   3660767   3660663  
  4500.000000   3660947   3661620   3662774   3664403   3666595  
  4490.000000   3669339   3672725   3676743   3681487   3686939  
  4480.000000   3693183   3700176   3707972   3716498   3725779  
  4470.000000   3735722   3746331   3757504   3769235   3781423  
  4460.000000   3794063   3807066   3820431   3834085   3848026  
  4450.000000   3862187   3876552   3891058   3905683   3920388  
  4440.000000   3935161   3949991   3964868   3979784   3994696  
  4430.000000   4009573   4024327   4038909   4053215   4067210  
  4420.000000   4080802   4093980   4106663   4118848   4130449  
  4410.000000   4141457   4151785   4161437   4170353   4178577  
  4400.000000   4186101   4193017   4199361   4205257   4210761  
  4390.000000   4216003   4221038   4225978   4230855   4235742  
  4380.000000   4240632   4245556   4250484   4255429   4260375  
  4370.000000   4265344   4270340   4275387   4280479   4285617  
  4360.000000   4290776   4295944   4301091   4306230   4311326  
  4350.000000   4316405   4321405   4326350   4331165   4335906  
  4340.000000   4340545   4345171   4349744   4354232   4358372  
  4330.000000   4361815   4364014   4364435   4362590   4358264  
  4320.000000   4351536   4342860   4332925   4322576   4312578  
  4310.000000   4303552   4295819   4289486   4284429   4280457  
  4300.000000   4277344   4274918   4273064   4271703   4270796  
  4290.000000   4270267   4270084   4270162   4270496   4271050  
  4280.000000   4271854   4272911   4274239   4275826   4277647  
  4270.000000   4279674   4281848   4284109   4286325   4288321  
  4260.000000   4289828   4290539   4290134   4288371   4285133  
  4250.000000   4280499   4274715   4268189   4261369   4254715  
  4240.000000   4248559   4243132   4238478   4234549   4231187  
  4230.000000   4228224   4225481   4222825   4220165   4217451  
  4220.000000   4214690   4211896   4209149   4206498   4204054  
  4210.000000   4201870   4200036   4198570   4197504   4196797  
  4200.000000   4196420   4196291   4196359   4196540   4196807  
  4190.000000   4197107   4197461   4197856   4198352   4198952  
  4180.000000   4199724   4200662   4201820   4203181   4204795  
  4170.000000   4206654   4208829   4211335   4214259   4217617  
  4160.000000   4221481   4225836   4230716   4236069   4241907  
  4150.000000   4248162   4254847   4261900   4269342   4277117  
  4140.000000   4285258   4293715   4302527   4311650   4321123  
  4130.000000   4330903   4341025   4351446   4362207   4373280  
  4120.000000   4384721   4396529   4408775   4421470   4434675  
  4110.000000   4448381   4462606   4477296   4492414   4507867  
  4100.000000   4523587   4539479   4555492   4571575   4587714  
  4090.000000   4603900   4620130   4636398   4652678   4668955  
  4080.000000   4685193   4701393   4717532   4733632   4749655  
  4070.000000   4765600   4781371   4796925   4812135   4826968  
  4060.000000   4841327   4855230   4868611   4881507   4893839  
  4050.000000   4905635   4916815   4927429   4937427   4946894  
  4040.000000   4955781   4964155   4971925   4979125   4985656  
  4030.000000   4991573   4996815   5001471   5005505   5008982  
  4020.000000   5011821   5014065   5015677   5016715   5017128  
  4010.000000   5017033   5016495   5015528   5013937   5011770  
  4000.000000   5009310  
##END= 
