##TITLE= Sample 041 By ssteindl date Dienstag, November 20 2018
##JCAMP-DX= 4.24
##DATA TYPE= INFRARED SPECTRUM
##ORIGIN= Exported PE Spectrum Data File
##OWNER= Sandra Steindl
##DATE= 18/11/20
##TIME= 12:03:11.00
##SPECTROMETER/DATA SYSTEM= PERKIN-ELMER Frontier FT-IR/NIR IR
##INSTRUMENT PARAMETERS=
  APODIZATION=stark
  DETECTOR=INGAAS
##RESOLUTION= 16.000000
##DELTAX= -2.000000
##XUNITS= 1/CM
##YUNITS= A
##XFACTOR= 1.00
##YFACTOR= 0.00000011920928955078
##FIRSTX= 10000.00
##LASTX= 4000.00
##NPOINTS= 3001
##FIRSTY= 0.188562
##MAXY= 0.575040
##MINY= 0.164331
##XYDATA= (X++(Y..Y))
 10000.000000   1581774   1577985   1574509   1571678   1569483  
  9990.000000   1567582   1565787   1564187   1563148   1563145  
  9980.000000   1564587   1567587   1571806   1576582   1581163  
  9970.000000   1585021   1587973   1590208   1592073   1593829  
  9960.000000   1595468   1596664   1596943   1595825   1593118  
  9950.000000   1588885   1583504   1577414   1571023   1564601  
  9940.000000   1558290   1552289   1546875   1542574   1539964  
  9930.000000   1539630   1541878   1546680   1553583   1561788  
  9920.000000   1570269   1577893   1583635   1586670   1586607  
  9910.000000   1583512   1578045   1571305   1564696   1559554  
  9900.000000   1556801   1556693   1558685   1561674   1564279  
  9890.000000   1565360   1564306   1561256   1556958   1552475  
  9880.000000   1548746   1546282   1545016   1544429   1543861  
  9870.000000   1542831   1541318   1539754   1538832   1539172  
  9860.000000   1540960   1543819   1546845   1548932   1549200  
  9850.000000   1547325   1543735   1539432   1535622   1533275  
  9840.000000   1532725   1533625   1535098   1536147   1536106  
  9830.000000   1534835   1532777   1530596   1528843   1527586  
  9820.000000   1526399   1524557   1521504   1517193   1512289  
  9810.000000   1507982   1505571   1505989   1509382   1515096  
  9800.000000   1521883   1528379   1533590   1537087   1539059  
  9790.000000   1539948   1540194   1539926   1539020   1537248  
  9780.000000   1534595   1531419   1528454   1526595   1526545  
  9770.000000   1528582   1532383   1537192   1542012   1545957  
  9760.000000   1548444   1549302   1548708   1547074   1544863  
  9750.000000   1542552   1540525   1539146   1538683   1539303  
  9740.000000   1540975   1543434   1546164   1548493   1549715  
  9730.000000   1549254   1546806   1542393   1536408   1529519  
  9720.000000   1522592   1516539   1512125   1509870   1509851  
  9710.000000   1511788   1515023   1518804   1522408   1525364  
  9700.000000   1527485   1528775   1529332   1529104   1527947  
  9690.000000   1525566   1521811   1516745   1510827   1504815  
  9680.000000   1499571   1495857   1494049   1494168   1495848  
  9670.000000   1498607   1501912   1505325   1508460   1510942  
  9660.000000   1512404   1512484   1511012   1508029   1503954  
  9650.000000   1499429   1495224   1491941   1489850   1488853  
  9640.000000   1488569   1488619   1488743   1488975   1489477  
  9630.000000   1490441   1491855   1493463   1494830   1495488  
  9620.000000   1495164   1493818   1491682   1489075   1486310  
  9610.000000   1483573   1480946   1478485   1476291   1474569  
  9600.000000   1473539   1473347   1473931   1474994   1476093  
  9590.000000   1476782   1476809   1476151   1475022   1473686  
  9580.000000   1472365   1471119   1469938   1468817   1467883  
  9570.000000   1467411   1467728   1469067   1471382   1474334  
  9560.000000   1477333   1479784   1481279   1481761   1481501  
  9550.000000   1480947   1480481   1480253   1480112   1479736  
  9540.000000   1478809   1477186   1475000   1472539   1470197  
  9530.000000   1468221   1466698   1465464   1464223   1462651  
  9520.000000   1460535   1457920   1455130   1452802   1451715  
  9510.000000   1452679   1456220   1462442   1470826   1480265  
  9500.000000   1489263   1496252   1500096   1500325   1497342  
  9490.000000   1492158   1486071   1480206   1475218   1471281  
  9480.000000   1468193   1465756   1463895   1462870   1463003  
  9470.000000   1464557   1467326   1470649   1473462   1474675  
  9460.000000   1473557   1469957   1464401   1457791   1451176  
  9450.000000   1445356   1440808   1437628   1435709   1434860  
  9440.000000   1434896   1435636   1436812   1438075   1439001  
  9430.000000   1439296   1438896   1438082   1437373   1437321  
  9420.000000   1438289   1440232   1442737   1445110   1446677  
  9410.000000   1446949   1445771   1443268   1439740   1435522  
  9400.000000   1430933   1426274   1421922   1418316   1415919  
  9390.000000   1415022   1415588   1417190   1419090   1420513  
  9380.000000   1420912   1420218   1418881   1417724   1417617  
  9370.000000   1419100   1422148   1426179   1430283   1433548  
  9360.000000   1435355   1435520   1434317   1432304   1430125  
  9350.000000   1428235   1426800   1425656   1424454   1422798  
  9340.000000   1420425   1417299   1413659   1410039   1407096  
  9330.000000   1405529   1405752   1407864   1411493   1415968  
  9320.000000   1420474   1424292   1427013   1428548   1429092  
  9310.000000   1428862   1427974   1426307   1423641   1419767  
  9300.000000   1414748   1409002   1403314   1398622   1395696  
  9290.000000   1394925   1396133   1398744   1401918   1404883  
  9280.000000   1407106   1408409   1408940   1408990   1408878  
  9270.000000   1408787   1408800   1408863   1408876   1408703  
  9260.000000   1408245   1407473   1406455   1405379   1404511  
  9250.000000   1404161   1404544   1405671   1407272   1408816  
  9240.000000   1409704   1409443   1407891   1405315   1402353  
  9230.000000   1399793   1398286   1398142   1399232   1401133  
  9220.000000   1403322   1405429   1407325   1409112   1410953  
  9210.000000   1412911   1414820   1416317   1416978   1416530  
  9200.000000   1415006   1412750   1410314   1408245   1406908  
  9190.000000   1406386   1406470   1406790   1406929   1406617  
  9180.000000   1405741   1404380   1402693   1400919   1399308  
  9170.000000   1398106   1397493   1397537   1398174   1399154  
  9160.000000   1400094   1400519   1400053   1398525   1396093  
  9150.000000   1393170   1390328   1388094   1386818   1386566  
  9140.000000   1387150   1388240   1389502   1390742   1391923  
  9130.000000   1393160   1394603   1396356   1398384   1400511  
  9120.000000   1402478   1403981   1404800   1404797   1403996  
  9110.000000   1402515   1400561   1398371   1396170   1394158  
  9100.000000   1392456   1391156   1390300   1389928   1390052  
  9090.000000   1390666   1391719   1393089   1394562   1395839  
  9080.000000   1396615   1396654   1395893   1394469   1392722  
  9070.000000   1391123   1390161   1390186   1391284   1393277  
  9060.000000   1395752   1398186   1400059   1401004   1400911  
  9050.000000   1399901   1398273   1396377   1394541   1392961  
  9040.000000   1391679   1390612   1389645   1388728   1387912  
  9030.000000   1387391   1387396   1388146   1389684   1391857  
  9020.000000   1394307   1396566   1398196   1398888   1398572  
  9010.000000   1397383   1395612   1393580   1391556   1389706  
  9000.000000   1388130   1386891   1386069   1385731   1385903  
  8990.000000   1386493   1387268   1387880   1387970   1387312  
  8980.000000   1385932   1384148   1382477   1381511   1381697  
  8970.000000   1383216   1385897   1389317   1392938   1396250  
  8960.000000   1398890   1400640   1401456   1401313   1400217  
  8950.000000   1398149   1395184   1391507   1387477   1383609  
  8940.000000   1380494   1378687   1378505   1380038   1383055  
  8930.000000   1387127   1391644   1395996   1399690   1402374  
  8920.000000   1403890   1404204   1403457   1401835   1399582  
  8910.000000   1396938   1394203   1391690   1389727   1388623  
  8900.000000   1388591   1389723   1391845   1394611   1397488  
  8890.000000   1399962   1401620   1402311   1402174   1401568  
  8880.000000   1400945   1400628   1400718   1401021   1401172  
  8870.000000   1400767   1399578   1397628   1395219   1392803  
  8860.000000   1390833   1389602   1389167   1389372   1389947  
  8850.000000   1390644   1391333   1392038   1392893   1394077  
  8840.000000   1395724   1397881   1400497   1403426   1406478  
  8830.000000   1409406   1411964   1413896   1415013   1415212  
  8820.000000   1414546   1413236   1411657   1410242   1409373  
  8810.000000   1409265   1409915   1411124   1412567   1413927  
  8800.000000   1414980   1415672   1416091   1416426   1416884  
  8790.000000   1417625   1418726   1420168   1421870   1423694  
  8780.000000   1425497   1427124   1428456   1429411   1429992  
  8770.000000   1430268   1430382   1430491   1430735   1431188  
  8760.000000   1431845   1432652   1433542   1434517   1435647  
  8750.000000   1437087   1438984   1441427   1444353   1447554  
  8740.000000   1450687   1453375   1455307   1456327   1456493  
  8730.000000   1456021   1455230   1454416   1453788   1453401  
  8720.000000   1453184   1452984   1452658   1452145   1451508  
  8710.000000   1450931   1450655   1450911   1451831   1453411  
  8700.000000   1455507   1457892   1460327   1462632   1464735  
  8690.000000   1466662   1468515   1470393   1472355   1474358  
  8680.000000   1476305   1478041   1479437   1480412   1480954  
  8670.000000   1481124   1481020   1480792   1480597   1480621  
  8660.000000   1481028   1481947   1483418   1485361   1487557  
  8650.000000   1489680   1491372   1492344   1492481   1491886  
  8640.000000   1490869   1489844   1489217   1489263   1490070  
  8630.000000   1491528   1493396   1495399   1497324   1499069  
  8620.000000   1500631   1502074   1503473   1504879   1506317  
  8610.000000   1507784   1509290   1510832   1512423   1514042  
  8600.000000   1515654   1517186   1518575   1519783   1520838  
  8590.000000   1521828   1522867   1524063   1525463   1527059  
  8580.000000   1528789   1530594   1532446   1534374   1536430  
  8570.000000   1538650   1540993   1543324   1545435   1547115  
  8560.000000   1548244   1548851   1549123   1549347   1549803  
  8550.000000   1550670   1551943   1553455   1554939   1556154  
  8540.000000   1556985   1557474   1557797   1558163   1558718  
  8530.000000   1559478   1560322   1561067   1561567   1561810  
  8520.000000   1561944   1562249   1563020   1564462   1566586  
  8510.000000   1569213   1572034   1574708   1576988   1578751  
  8500.000000   1580031   1580932   1581568   1581995   1582221  
  8490.000000   1582236   1582079   1581882   1581872   1582315  
  8480.000000   1583418   1585251   1587681   1590430   1593117  
  8470.000000   1595419   1597129   1598239   1598901   1599367  
  8460.000000   1599880   1600601   1601561   1602665   1603744  
  8450.000000   1604615   1605140   1605262   1604999   1604439  
  8440.000000   1603695   1602895   1602145   1601528   1601102  
  8430.000000   1600897   1600930   1601196   1601681   1602357  
  8420.000000   1603184   1604116   1605105   1606111   1607112  
  8410.000000   1608115   1609166   1610332   1611679   1613244  
  8400.000000   1615007   1616879   1618700   1620283   1621455  
  8390.000000   1622122   1622283   1622050   1621595   1621114  
  8380.000000   1620740   1620533   1620433   1620322   1620043  
  8370.000000   1619492   1618639   1617560   1616400   1615333  
  8360.000000   1614490   1613910   1613511   1613124   1612550  
  8350.000000   1611648   1610394   1608918   1607484   1606414  
  8340.000000   1605974   1606280   1607234   1608544   1609802  
  8330.000000   1610606   1610689   1610008   1608750   1607259  
  8320.000000   1605908   1604975   1604557   1604552   1604717  
  8310.000000   1604760   1604460   1603731   1602634   1601331  
  8300.000000   1600008   1598812   1597806   1596980   1596286  
  8290.000000   1595683   1595172   1594800   1594632   1594723  
  8280.000000   1595071   1595620   1596255   1596849   1597288  
  8270.000000   1597497   1597450   1597154   1596638   1595936  
  8260.000000   1595077   1594102   1593047   1591977   1590950  
  8250.000000   1590033   1589252   1588608   1588046   1587488  
  8240.000000   1586835   1586003   1584937   1583624   1582092  
  8230.000000   1580398   1578618   1576837   1575129   1573567  
  8220.000000   1572199   1571062   1570159   1569473   1568954  
  8210.000000   1568533   1568115   1567601   1566898   1565924  
  8200.000000   1564637   1563029   1561142   1559062   1556915  
  8190.000000   1554849   1553001   1551484   1550345   1549570  
  8180.000000   1549070   1548713   1548348   1547839   1547087  
  8170.000000   1546034   1544658   1542960   1540955   1538672  
  8160.000000   1536178   1533584   1531056   1528790   1526974  
  8150.000000   1525731   1525065   1524847   1524827   1524700  
  8140.000000   1524194   1523148   1521557   1519566   1517426  
  8130.000000   1515408   1513738   1512536   1511817   1511497  
  8120.000000   1511439   1511484   1511480   1511293   1510821  
  8110.000000   1510001   1508828   1507355   1505703   1504021  
  8100.000000   1502469   1501154   1500114   1499307   1498637  
  8090.000000   1498012   1497385   1496785   1496293   1495996  
  8080.000000   1495930   1496034   1496163   1496114   1495718  
  8070.000000   1494888   1493674   1492242   1490826   1489655  
  8060.000000   1488873   1488523   1488526   1488745   1489018  
  8050.000000   1489218   1489270   1489156   1488881   1488461  
  8040.000000   1487895   1487173   1486283   1485225   1484030  
  8030.000000   1482751   1481467   1480258   1479194   1478320  
  8020.000000   1477641   1477128   1476713   1476304   1475809  
  8010.000000   1475148   1474294   1473264   1472140   1471029  
  8000.000000   1470051   1469294   1468798   1468556   1468518  
  7990.000000   1468628   1468839   1469136   1469518   1469986  
  7980.000000   1470510   1471011   1471370   1471435   1471087  
  7970.000000   1470252   1468962   1467328   1465539   1463803  
  7960.000000   1462305   1461170   1460441   1460098   1460065  
  7950.000000   1460269   1460640   1461147   1461772   1462511  
  7940.000000   1463339   1464197   1464993   1465595   1465883  
  7930.000000   1465738   1465114   1464014   1462533   1460818  
  7920.000000   1459072   1457505   1456303   1455608   1455473  
  7910.000000   1455886   1456749   1457930   1459271   1460627  
  7900.000000   1461884   1462954   1463787   1464338   1464596  
  7890.000000   1464546   1464219   1463664   1462984   1462298  
  7880.000000   1461739   1461420   1461402   1461703   1462279  
  7870.000000   1463072   1463997   1464996   1466010   1467000  
  7860.000000   1467917   1468701   1469289   1469612   1469637  
  7850.000000   1469354   1468800   1468029   1467110   1466095  
  7840.000000   1465026   1463942   1462885   1461932   1461166  
  7830.000000   1460686   1460549   1460769   1461285   1461999  
  7820.000000   1462784   1463536   1464193   1464740   1465192  
  7810.000000   1465559   1465828   1465946   1465849   1465475  
  7800.000000   1464807   1463882   1462793   1461659   1460593  
  7790.000000   1459677   1458942   1458379   1457945   1457592  
  7780.000000   1457274   1456962   1456643   1456322   1456018  
  7770.000000   1455768   1455619   1455621   1455811   1456201  
  7760.000000   1456762   1457426   1458097   1458664   1459032  
  7750.000000   1459125   1458912   1458394   1457614   1456645  
  7740.000000   1455586   1454546   1453631   1452922   1452447  
  7730.000000   1452181   1452042   1451933   1451762   1451494  
  7720.000000   1451154   1450819   1450577   1450487   1450539  
  7710.000000   1450653   1450713   1450598   1450249   1449672  
  7700.000000   1448948   1448187   1447489   1446907   1446443  
  7690.000000   1446062   1445732   1445455   1445272   1445248  
  7680.000000   1445433   1445826   1446357   1446900   1447316  
  7670.000000   1447495   1447400   1447065   1446583   1446061  
  7660.000000   1445586   1445199   1444894   1444639   1444403  
  7650.000000   1444178   1443980   1443838   1443773   1443778  
  7640.000000   1443817   1443830   1443764   1443588   1443316  
  7630.000000   1443003   1442734   1442596   1442655   1442933  
  7620.000000   1443407   1444013   1444664   1445269   1445755  
  7610.000000   1446076   1446223   1446217   1446101   1445926  
  7600.000000   1445742   1445586   1445486   1445451   1445488  
  7590.000000   1445594   1445763   1445990   1446262   1446571  
  7580.000000   1446905   1447258   1447628   1448022   1448456  
  7570.000000   1448945   1449509   1450145   1450838   1451545  
  7560.000000   1452209   1452763   1453159   1453371   1453426  
  7550.000000   1453393   1453384   1453517   1453886   1454528  
  7540.000000   1455409   1456433   1457473   1458405   1459155  
  7530.000000   1459712   1460135   1460517   1460954   1461499  
  7520.000000   1462161   1462896   1463652   1464383   1465089  
  7510.000000   1465797   1466559   1467415   1468373   1469402  
  7500.000000   1470448   1471456   1472407   1473318   1474250  
  7490.000000   1475271   1476438   1477765   1479228   1480761  
  7480.000000   1482292   1483753   1485110   1486356   1487508  
  7470.000000   1488594   1489651   1490708   1491796   1492936  
  7460.000000   1494150   1495441   1496801   1498198   1499592  
  7450.000000   1500937   1502206   1503389   1504508   1505601  
  7440.000000   1506725   1507929   1509258   1510730   1512354  
  7430.000000   1514116   1515996   1517959   1519973   1522005  
  7420.000000   1524032   1526046   1528051   1530059   1532084  
  7410.000000   1534129   1536189   1538236   1540242   1542166  
  7400.000000   1543982   1545667   1547209   1548602   1549852  
  7390.000000   1550985   1552045   1553110   1554269   1555624  
  7380.000000   1557246   1559163   1561330   1563638   1565946  
  7370.000000   1568105   1570008   1571606   1572924   1574042  
  7360.000000   1575073   1576128   1577298   1578641   1580181  
  7350.000000   1581915   1583814   1585835   1587909   1589957  
  7340.000000   1591896   1593653   1595182   1596474   1597564  
  7330.000000   1598519   1599431   1600389   1601469   1602719  
  7320.000000   1604152   1605758   1607502   1609340   1611218  
  7310.000000   1613083   1614880   1616568   1618118   1619522  
  7300.000000   1620796   1621975   1623111   1624256   1625459  
  7290.000000   1626747   1628129   1629595   1631116   1632668  
  7280.000000   1634226   1635788   1637354   1638936   1640535  
  7270.000000   1642142   1643731   1645258   1646688   1647986  
  7260.000000   1649150   1650192   1651153   1652072   1652992  
  7250.000000   1653939   1654942   1656025   1657231   1658608  
  7240.000000   1660215   1662085   1664226   1666588   1669093  
  7230.000000   1671632   1674121   1676499   1678772   1680981  
  7220.000000   1683212   1685542   1688047   1690756   1693683  
  7210.000000   1696793   1700043   1703358   1706667   1709893  
  7200.000000   1712988   1715938   1718780   1721594   1724497  
  7190.000000   1727599   1730982   1734651   1738543   1742520  
  7180.000000   1746425   1750108   1753486   1756544   1759346  
  7170.000000   1761991   1764612   1767320   1770212   1773338  
  7160.000000   1776719   1780335   1784154   1788120   1792189  
  7150.000000   1796319   1800493   1804705   1808977   1813311  
  7140.000000   1817712   1822141   1826561   1830915   1835193  
  7130.000000   1839410   1843644   1847983   1852523   1857307  
  7120.000000   1862329   1867512   1872756   1877955   1883053  
  7110.000000   1888034   1892945   1897841   1902789   1907824  
  7100.000000   1912970   1918222   1923579   1929023   1934543  
  7090.000000   1940106   1945670   1951184   1956612   1961943  
  7080.000000   1967206   1972459   1977768   1983172   1988674  
  7070.000000   1994226   1999757   2005197   2010511   2015704  
  7060.000000   2020813   2025886   2030954   2036025   2041083  
  7050.000000   2046107   2051089   2056038   2060969   2065889  
  7040.000000   2070777   2075590   2080272   2084794   2089171  
  7030.000000   2093475   2097808   2102276   2106939   2111800  
  7020.000000   2116786   2121797   2126724   2131502   2136101  
  7010.000000   2140534   2144825   2148994   2153036   2156944  
  7000.000000   2160705   2164334   2167860   2171336   2174803  
  6990.000000   2178298   2181819   2185359   2188883   2192372  
  6980.000000   2195795   2199134   2202357   2205445   2208373  
  6970.000000   2211149   2213793   2216364   2218915   2221494  
  6960.000000   2224105   2226717   2229261   2231671   2233892  
  6950.000000   2235919   2237777   2239526   2241217   2242900  
  6940.000000   2244592   2246313   2248064   2249862   2251713  
  6930.000000   2253622   2255559   2257480   2259317   2261020  
  6920.000000   2262557   2263940   2265208   2266418   2267607  
  6910.000000   2268791   2269957   2271079   2272140   2273140  
  6900.000000   2274097   2275034   2275963   2276873   2277737  
  6890.000000   2278532   2279251   2279929   2280626   2281415  
  6880.000000   2282352   2283460   2284721   2286092   2287521  
  6870.000000   2288972   2290423   2291867   2293292   2294674  
  6860.000000   2295975   2297152   2298180   2299065   2299841  
  6850.000000   2300562   2301278   2302021   2302788   2303561  
  6840.000000   2304310   2305018   2305680   2306307   2306902  
  6830.000000   2307469   2307989   2308451   2308841   2309177  
  6820.000000   2309488   2309818   2310199   2310642   2311127  
  6810.000000   2311611   2312045   2312394   2312639   2312792  
  6800.000000   2312873   2312913   2312936   2312966   2313018  
  6790.000000   2313110   2313251   2313447   2313684   2313938  
  6780.000000   2314172   2314358   2314485   2314563   2314620  
  6770.000000   2314686   2314779   2314889   2314988   2315038  
  6760.000000   2315017   2314928   2314810   2314722   2314726  
  6750.000000   2314863   2315141   2315532   2315992   2316468  
  6740.000000   2316927   2317351   2317751   2318144   2318557  
  6730.000000   2319006   2319497   2320023   2320564   2321096  
  6720.000000   2321593   2322037   2322426   2322780   2323131  
  6710.000000   2323521   2323976   2324506   2325082   2325655  
  6700.000000   2326157   2326535   2326753   2326818   2326759  
  6690.000000   2326626   2326465   2326313   2326182   2326075  
  6680.000000   2325977   2325876   2325749   2325579   2325336  
  6670.000000   2325005   2324566   2324031   2323419   2322779  
  6660.000000   2322153   2321582   2321077   2320630   2320209  
  6650.000000   2319783   2319318   2318797   2318209   2317547  
  6640.000000   2316799   2315961   2315028   2314023   2312981  
  6630.000000   2311956   2310993   2310124   2309337   2308594  
  6620.000000   2307832   2307000   2306059   2305010   2303866  
  6610.000000   2302653   2301380   2300044   2298626   2297122  
  6600.000000   2295545   2293945   2292386   2290933   2289615  
  6590.000000   2288426   2287307   2286183   2284977   2283639  
  6580.000000   2282154   2280543   2278845   2277106   2275365  
  6570.000000   2273652   2271991   2270402   2268898   2267485  
  6560.000000   2266149   2264866   2263598   2262313   2260994  
  6550.000000   2259644   2258285   2256942   2255633   2254354  
  6540.000000   2253087   2251797   2250456   2249047   2247567  
  6530.000000   2246031   2244458   2242870   2241290   2239741  
  6520.000000   2238249   2236838   2235521   2234292   2233124  
  6510.000000   2231970   2230780   2229521   2228193   2226832  
  6500.000000   2225497   2224256   2223150   2222185   2221322  
  6490.000000   2220497   2219633   2218668   2217566   2216319  
  6480.000000   2214941   2213454   2211882   2210248   2208568  
  6470.000000   2206862   2205147   2203443   2201763   2200117  
  6460.000000   2198513   2196956   2195452   2194009   2192630  
  6450.000000   2191308   2190030   2188768   2187498   2186202  
  6440.000000   2184882   2183552   2182245   2180985   2179798  
  6430.000000   2178686   2177651   2176680   2175771   2174914  
  6420.000000   2174109   2173339   2172589   2171828   2171041  
  6410.000000   2170225   2169408   2168633   2167958   2167421  
  6400.000000   2167039   2166783   2166606   2166443   2166248  
  6390.000000   2165994   2165686   2165344   2164995   2164657  
  6380.000000   2164343   2164056   2163803   2163599   2163459  
  6370.000000   2163398   2163409   2163462   2163506   2163483  
  6360.000000   2163341   2163060   2162645   2162135   2161576  
  6350.000000   2161013   2160471   2159956   2159449   2158924  
  6340.000000   2158350   2157705   2156972   2156155   2155265  
  6330.000000   2154335   2153395   2152487   2151635   2150856  
  6320.000000   2150143   2149476   2148819   2148143   2147424  
  6310.000000   2146653   2145829   2144958   2144041   2143078  
  6300.000000   2142065   2141003   2139896   2138758   2137602  
  6290.000000   2136439   2135268   2134087   2132885   2131666  
  6280.000000   2130438   2129223   2128040   2126902   2125800  
  6270.000000   2124709   2123591   2122411   2121148   2119806  
  6260.000000   2118408   2116990   2115583   2114209   2112869  
  6250.000000   2111559   2110261   2108965   2107661   2106346  
  6240.000000   2105017   2103676   2102325   2100971   2099627  
  6230.000000   2098309   2097033   2095807   2094626   2093473  
  6220.000000   2092322   2091146   2089922   2088635   2087286  
  6210.000000   2085878   2084426   2082948   2081472   2080031  
  6200.000000   2078660   2077390   2076241   2075210   2074281  
  6190.000000   2073417   2072589   2071769   2070951   2070135  
  6180.000000   2069331   2068539   2067751   2066951   2066128  
  6170.000000   2065283   2064439   2063632   2062900   2062266  
  6160.000000   2061722   2061231   2060733   2060167   2059490  
  6150.000000   2058685   2057765   2056760   2055706   2054633  
  6140.000000   2053564   2052514   2051497   2050531   2049631  
  6130.000000   2048805   2048047   2047332   2046624   2045885  
  6120.000000   2045089   2044229   2043324   2042401   2041501  
  6110.000000   2040649   2039866   2039152   2038506   2037920  
  6100.000000   2037393   2036923   2036518   2036183   2035925  
  6090.000000   2035742   2035630   2035576   2035566   2035575  
  6080.000000   2035588   2035589   2035579   2035564   2035570  
  6070.000000   2035614   2035716   2035874   2036085   2036323  
  6060.000000   2036581   2036847   2037144   2037492   2037932  
  6050.000000   2038484   2039177   2040006   2040978   2042084  
  6040.000000   2043336   2044733   2046294   2048008   2049873  
  6030.000000   2051854   2053928   2056058   2058234   2060441  
  6020.000000   2062691   2064978   2067312   2069674   2072068  
  6010.000000   2074481   2076928   2079418   2081984   2084636  
  6000.000000   2087393   2090242   2093181   2096185   2099255  
  5990.000000   2102382   2105582   2108855   2112223   2115683  
  5980.000000   2119254   2122943   2126783   2130792   2135003  
  5970.000000   2139413   2144012   2148751   2153583   2158447  
  5960.000000   2163314   2168161   2173003   2177848   2182718  
  5950.000000   2187608   2192517   2197428   2202343   2207273  
  5940.000000   2212251   2217320   2222512   2227851   2233321  
  5930.000000   2238888   2244483   2250035   2255458   2260685  
  5920.000000   2265654   2270330   2274698   2278779   2282607  
  5910.000000   2286245   2289745   2293161   2296513   2299814  
  5900.000000   2303043   2306201   2309271   2312276   2315225  
  5890.000000   2318149   2321047   2323920   2326737   2329479  
  5880.000000   2332115   2334639   2337049   2339352   2341547  
  5870.000000   2343632   2345596   2347437   2349164   2350810  
  5860.000000   2352418   2354040   2355713   2357458   2359274  
  5850.000000   2361150   2363075   2365046   2367072   2369168  
  5840.000000   2371345   2373606   2375944   2378345   2380803  
  5830.000000   2383315   2385889   2388525   2391218   2393938  
  5820.000000   2396647   2399298   2401858   2404312   2406673  
  5810.000000   2408977   2411262   2413570   2415917   2418322  
  5800.000000   2420767   2423258   2425765   2428291   2430792  
  5790.000000   2433254   2435608   2437813   2439777   2441437  
  5780.000000   2442687   2443453   2443636   2443189   2442077  
  5770.000000   2440352   2438097   2435476   2432646   2429787  
  5760.000000   2427007   2424391   2421941   2419656   2417497  
  5750.000000   2415465   2413551   2411775   2410137   2408628  
  5740.000000   2407209   2405830   2404438   2402990   2401470  
  5730.000000   2399868   2398201   2396474   2394708   2392913  
  5720.000000   2391112   2389332   2387606   2385963   2384420  
  5710.000000   2382980   2381630   2380349   2379121   2377937  
  5700.000000   2376795   2375701   2374653   2373649   2372674  
  5690.000000   2371721   2370780   2369857   2368952   2368068  
  5680.000000   2367186   2366280   2365299   2364200   2362933  
  5670.000000   2361471   2359787   2357872   2355710   2353301  
  5660.000000   2350646   2347776   2344741   2341621   2338496  
  5650.000000   2335444   2332509   2329707   2327022   2324433  
  5640.000000   2321925   2319501   2317187   2315007   2312985  
  5630.000000   2311116   2309381   2307738   2306159   2304615  
  5620.000000   2303107   2301639   2300231   2298889   2297626  
  5610.000000   2296437   2295329   2294298   2293352   2292483  
  5600.000000   2291683   2290924   2290181   2289427   2288653  
  5590.000000   2287864   2287080   2286323   2285605   2284920  
  5580.000000   2284249   2283564   2282847   2282090   2281302  
  5570.000000   2280499   2279692   2278888   2278079   2277258  
  5560.000000   2276415   2275553   2274679   2273801   2272920  
  5550.000000   2272027   2271105   2270139   2269126   2268078  
  5540.000000   2267021   2265985   2264987   2264031   2263102  
  5530.000000   2262181   2261250   2260306   2259358   2258421  
  5520.000000   2257507   2256618   2255743   2254866   2253970  
  5510.000000   2253053   2252115   2251163   2250198   2249218  
  5500.000000   2248207   2247156   2246057   2244918   2243745  
  5490.000000   2242553   2241334   2240076   2238749   2237335  
  5480.000000   2235823   2234232   2232594   2230956   2229348  
  5470.000000   2227787   2226263   2224754   2223236   2221698  
  5460.000000   2220136   2218559   2216975   2215384   2213778  
  5450.000000   2212147   2210489   2208814   2207146   2205514  
  5440.000000   2203945   2202450   2201033   2199678   2198376  
  5430.000000   2197109   2195871   2194648   2193434   2192213  
  5420.000000   2190991   2189774   2188604   2187523   2186592  
  5410.000000   2185838   2185276   2184872   2184593   2184386  
  5400.000000   2184237   2184134   2184104   2184157   2184319  
  5390.000000   2184576   2184929   2185355   2185875   2186503  
  5380.000000   2187300   2188295   2189531   2190991   2192666  
  5370.000000   2194498   2196476   2198557   2200767   2203094  
  5360.000000   2205584   2208223   2211059   2214082   2217366  
  5350.000000   2220925   2224858   2229176   2233952   2239145  
  5340.000000   2244780   2250788   2257208   2263999   2271241  
  5330.000000   2278908   2287071   2295672   2304752   2314236  
  5320.000000   2324189   2334581   2345542   2357084   2369352  
  5310.000000   2382334   2396123   2410643   2425942   2441935  
  5300.000000   2458683   2476142   2494415   2513488   2533462  
  5290.000000   2554281   2575968   2598372   2621415   2644903  
  5280.000000   2668772   2692924   2717429   2742338   2767808  
  5270.000000   2793900   2820657   2847972   2875680   2903558  
  5260.000000   2931417   2959149   2986731   3014220   3041653  
  5250.000000   3069050   3096300   3123275   3149746   3175596  
  5240.000000   3200690   3225083   3248792   3271978   3294664  
  5230.000000   3316951   3338753   3360060   3380712   3400687  
  5220.000000   3419870   3438334   3456064   3473209   3489785  
  5210.000000   3505915   3521531   3536645   3551088   3564821  
  5200.000000   3577697   3589771   3601020   3611609   3621571  
  5190.000000   3631057   3640032   3648554   3656519   3663951  
  5180.000000   3670762   3677014   3682658   3687767   3692276  
  5170.000000   3696228   3699546   3702284   3704413   3706036  
  5160.000000   3707168   3707915   3708261   3708261   3707854  
  5150.000000   3707072   3705874   3704320   3702404   3700201  
  5140.000000   3697704   3694964   3691956   3688715   3685222  
  5130.000000   3681516   3677586   3673464   3669133   3664619  
  5120.000000   3659922   3655092   3650165   3645216   3640285  
  5110.000000   3635411   3630586   3625794   3620995   3616171  
  5100.000000   3611316   3606461   3601640   3596898   3592256  
  5090.000000   3587720   3583269   3578879   3574520   3570179  
  5080.000000   3565841   3561507   3557167   3552818   3548440  
  5070.000000   3544026   3539555   3535021   3530404   3525693  
  5060.000000   3520860   3515890   3510758   3505470   3500020  
  5050.000000   3494439   3488738   3482945   3477059   3471091  
  5040.000000   3465028   3458881   3452646   3446342   3439974  
  5030.000000   3433556   3427077   3420536   3413917   3407225  
  5020.000000   3400470   3393681   3386895   3380146   3373466  
  5010.000000   3366867   3360360   3353937   3347605   3341360  
  5000.000000   3335222   3329197   3323313   3317575   3312008  
  4990.000000   3306612   3301413   3296404   3291610   3287012  
  4980.000000   3282628   3278426   3274419   3270576   3266925  
  4970.000000   3263455   3260216   3257206   3254478   3252020  
  4960.000000   3249873   3248012   3246472   3245226   3244318  
  4950.000000   3243724   3243489   3243581   3244041   3244830  
  4940.000000   3245987   3247478   3249350   3251572   3254193  
  4930.000000   3257178   3260569   3264327   3268492   3273031  
  4920.000000   3277991   3283345   3289137   3295336   3301971  
  4910.000000   3309002   3316444   3324251   3332421   3340901  
  4900.000000   3349667   3358656   3367822   3377108   3386463  
  4890.000000   3395848   3405213   3414524   3423710   3432725  
  4880.000000   3441464   3449874   3457843   3465332   3472243  
  4870.000000   3478562   3484201   3489162   3493364   3496828  
  4860.000000   3499498   3501429   3502602   3503101   3502929  
  4850.000000   3502184   3500876   3499106   3496897   3494354  
  4840.000000   3491518   3488494   3485325   3482101   3478850  
  4830.000000   3475636   3472475   3469408   3466449   3463622  
  4820.000000   3460939   3458410   3456042   3453829   3451777  
  4810.000000   3449871   3448120   3446508   3445049   3443726  
  4800.000000   3442557   3441531   3440672   3439977   3439472  
  4790.000000   3439155   3439049   3439141   3439435   3439901  
  4780.000000   3440527   3441272   3442111   3443002   3443925  
  4770.000000   3444847   3445767   3446675   3447593   3448530  
  4760.000000   3449510   3450536   3451608   3452707   3453814  
  4750.000000   3454901   3455962   3456993   3458013   3459040  
  4740.000000   3460099   3461200   3462350   3463541   3464772  
  4730.000000   3466034   3467333   3468669   3470053   3471477  
  4720.000000   3472942   3474428   3475936   3477455   3479014  
  4710.000000   3480629   3482356   3484223   3486284   3488555  
  4700.000000   3491073   3493843   3496894   3500233   3503888  
  4690.000000   3507857   3512150   3516735   3521586   3526635  
  4680.000000   3531831   3537088   3542359   3547575   3552716  
  4670.000000   3557748   3562691   3567553   3572383   3577212  
  4660.000000   3582095   3587061   3592153   3597391   3602801  
  4650.000000   3608399   3614201   3620212   3626428   3632836  
  4640.000000   3639398   3646075   3652807   3659548   3666237  
  4630.000000   3672839   3679301   3685598   3691679   3697518  
  4620.000000   3703061   3708284   3713138   3717617   3721688  
  4610.000000   3725367   3728642   3731555   3734107   3736360  
  4600.000000   3738327   3740078   3741627   3743039   3744315  
  4590.000000   3745500   3746567   3747527   3748327   3748951  
  4580.000000   3749335   3749465   3749301   3748858   3748143  
  4570.000000   3747207   3746090   3744857   3743547   3742208  
  4560.000000   3740849   3739490   3738120   3736741   3735339  
  4550.000000   3733922   3732482   3731033   3729572   3728106  
  4540.000000   3726629   3725141   3723635   3722105   3720547  
  4530.000000   3718953   3717323   3715648   3713931   3712165  
  4520.000000   3710367   3708538   3706718   3704916   3703189  
  4510.000000   3701550   3700063   3698740   3697652   3696810  
  4500.000000   3696295   3696121   3696375   3697061   3698266  
  4490.000000   3699981   3702285   3705158   3708674   3712806  
  4480.000000   3717626   3723097   3729288   3736155   3743753  
  4470.000000   3752023   3760996   3770589   3780798   3791516  
  4460.000000   3802716   3814289   3826213   3838403   3850853  
  4450.000000   3863503   3876357   3889369   3902534   3915816  
  4440.000000   3929202   3942664   3956177   3969717   3983236  
  4430.000000   3996697   4010023   4023166   4036041   4048613  
  4420.000000   4060815   4072650   4084077   4095121   4105748  
  4410.000000   4115972   4125739   4135041   4143821   4152084  
  4400.000000   4159809   4167057   4173863   4180341   4186564  
  4390.000000   4192663   4198711   4204820   4211032   4217412  
  4380.000000   4223951   4230652   4237452   4244315   4251160  
  4370.000000   4257956   4264650   4271237   4277695   4284036  
  4360.000000   4290234   4296299   4302188   4307915   4313416  
  4350.000000   4318715   4323725   4328480   4332892   4337023  
  4340.000000   4340819   4344366   4347594   4350478   4352771  
  4330.000000   4354184   4354236   4352493   4348547   4342255  
  4320.000000   4333728   4323424   4312009   4300291   4289004  
  4310.000000   4278737   4269807   4262315   4256156   4251142  
  4300.000000   4247068   4243762   4241126   4239079   4237604  
  4290.000000   4236633   4236159   4236112   4236511   4237324  
  4280.000000   4238594   4240312   4242476   4245038   4247917  
  4270.000000   4251017   4254203   4257338   4260227   4262656  
  4260.000000   4264349   4265027   4264420   4262362   4258802  
  4250.000000   4253879   4247858   4241148   4234153   4227288  
  4240.000000   4220817   4214927   4209623   4204856   4200478  
  4230.000000   4196361   4192375   4188443   4184526   4180612  
  4220.000000   4176735   4172913   4169210   4165651   4162316  
  4210.000000   4159230   4156470   4154053   4152025   4150367  
  4200.000000   4149084   4148121   4147455   4147021   4146810  
  4190.000000   4146774   4146929   4147244   4147744   4148392  
  4180.000000   4149202   4150126   4151182   4152341   4153652  
  4170.000000   4155127   4156847   4158839   4161178   4163865  
  4160.000000   4166940   4170369   4174169   4178294   4182768  
  4150.000000   4187554   4192685   4198128   4203914   4210001  
  4140.000000   4216419   4223122   4230145   4237444   4245059  
  4130.000000   4252948   4261155   4269648   4278482   4287648  
  4120.000000   4297222   4307215   4317710   4328720   4340309  
  4110.000000   4352469   4365223   4378522   4392340   4406583  
  4100.000000   4421182   4436027   4451046   4466160   4481338  
  4090.000000   4496554   4511804   4527083   4542368   4557642  
  4080.000000   4572848   4587966   4602931   4617739   4632320  
  4070.000000   4646664   4660665   4674285   4687389   4699944  
  4060.000000   4711833   4723065   4733563   4743379   4752465  
  4050.000000   4760902   4768672   4775888   4782546   4788747  
  4040.000000   4794449   4799690   4804367   4808486   4811959  
  4030.000000   4814845   4817140   4818972   4820389   4821511  
  4020.000000   4822343   4822966   4823393   4823679   4823781  
  4010.000000   4823759   4823630   4823332   4822638   4821510  
  4000.000000   4820157  
##END= 
