##TITLE= Sample 022 By ssteindl date Dienstag, November 20 2018
##JCAMP-DX= 4.24
##DATA TYPE= INFRARED SPECTRUM
##ORIGIN= Exported PE Spectrum Data File
##OWNER= Sandra Steindl
##DATE= 18/11/20
##TIME= 11:23:50.00
##SPECTROMETER/DATA SYSTEM= PERKIN-ELMER Frontier FT-IR/NIR IR
##INSTRUMENT PARAMETERS=
  APODIZATION=stark
  DETECTOR=INGAAS
##RESOLUTION= 16.000000
##DELTAX= -2.000000
##XUNITS= 1/CM
##YUNITS= A
##XFACTOR= 1.00
##YFACTOR= 0.00000011920928955078
##FIRSTX= 10000.00
##LASTX= 4000.00
##NPOINTS= 3001
##FIRSTY= 0.250945
##MAXY= 0.614486
##MINY= 0.208409
##XYDATA= (X++(Y..Y))
 10000.000000   2105080   2101056   2097230   2093777   2090612  
  9990.000000   2087361   2083735   2079792   2076077   2073458  
  9980.000000   2072843   2074768   2079150   2085243   2091845  
  9970.000000   2097655   2101636   2103281   2102686   2100413  
  9960.000000   2097314   2094228   2091841   2090493   2090139  
  9950.000000   2090316   2090289   2089230   2086545   2082082  
  9940.000000   2076261   2070022   2064501   2060728   2059182  
  9930.000000   2059718   2061631   2064023   2066232   2068053  
  9920.000000   2069803   2071986   2074941   2078464   2081766  
  9910.000000   2083696   2083264   2080095   2074779   2068701  
  9900.000000   2063666   2061190   2061998   2065741   2071166  
  9890.000000   2076559   2080331   2081517   2080002   2076487  
  9880.000000   2072147   2068313   2066047   2066015   2068356  
  9870.000000   2072772   2078621   2085044   2091092   2095853  
  9860.000000   2098560   2098778   2096453   2092002   2086183  
  9850.000000   2079962   2074258   2069775   2066847   2065437  
  9840.000000   2065163   2065470   2065730   2065431   2064213  
  9830.000000   2061923   2058580   2054341   2049515   2044482  
  9820.000000   2039750   2035814   2033145   2032031   2032492  
  9810.000000   2034269   2036815   2039520   2041831   2043507  
  9800.000000   2044654   2045679   2047064   2049079   2051572  
  9790.000000   2053907   2055170   2054476   2051363   2045996  
  9780.000000   2039151   2031998   2025658   2020910   2017882  
  9770.000000   2016164   2014993   2013653   2011758   2009311  
  9760.000000   2006615   2003970   2001504   1999066   1996369  
  9750.000000   1993186   1989567   1985923   1982941   1981368  
  9740.000000   1981757   1984259   1988576   1994001   1999651  
  9730.000000   2004571   2007980   2009250   2008074   2004430  
  9720.000000   1998731   1991777   1984719   1978846   1975285  
  9710.000000   1974746   1977251   1982221   1988517   1994898  
  9700.000000   2000192   2003691   2005130   2004710   2002910  
  9690.000000   2000266   1997289   1994265   1991351   1988448  
  9680.000000   1985369   1981797   1977494   1972384   1966683  
  9670.000000   1960940   1955898   1952361   1950886   1951660  
  9660.000000   1954413   1958532   1963299   1968096   1972591  
  9650.000000   1976695   1980456   1983855   1986716   1988722  
  9640.000000   1989598   1989298   1988117   1986654   1985572  
  9630.000000   1985348   1986042   1987283   1988406   1988717  
  9620.000000   1987719   1985252   1981437   1976592   1971057  
  9610.000000   1965189   1959371   1954114   1950072   1947944  
  9600.000000   1948247   1951041   1955727   1961118   1965723  
  9590.000000   1968262   1968130   1965605   1961805   1958175  
  9580.000000   1956040   1956006   1957885   1960720   1963291  
  9570.000000   1964512   1963863   1961509   1958173   1954902  
  9560.000000   1952648   1952101   1953468   1956581   1960959  
  9550.000000   1965991   1971041   1975544   1979023   1981165  
  9540.000000   1981785   1980914   1978749   1975642   1972030  
  9530.000000   1968332   1964895   1961911   1959376   1957122  
  9520.000000   1954827   1952169   1948912   1945060   1940872  
  9510.000000   1936817   1933422   1931070   1929883   1929631  
  9500.000000   1929890   1930157   1930148   1929869   1929641  
  9490.000000   1929917   1931024   1933016   1935589   1938276  
  9480.000000   1940641   1942509   1944006   1945460   1947149  
  9470.000000   1949065   1950771   1951501   1950437   1947055  
  9460.000000   1941423   1934188   1926430   1919229   1913360  
  9450.000000   1909066   1906080   1903871   1901869   1899786  
  9440.000000   1897646   1895810   1894771   1894979   1896691  
  9430.000000   1899849   1904164   1909054   1913857   1917755  
  9420.000000   1920073   1920297   1918408   1914890   1910724  
  9410.000000   1907149   1905265   1905782   1908724   1913566  
  9400.000000   1919350   1925122   1930141   1934098   1936971  
  9390.000000   1938839   1939629   1939035   1936659   1932212  
  9380.000000   1925818   1918046   1909886   1902455   1896687  
  9370.000000   1893081   1891544   1891602   1892528   1893736  
  9360.000000   1894799   1895605   1896188   1896704   1897301  
  9350.000000   1898087   1899131   1900398   1901803   1903069  
  9340.000000   1903834   1903579   1901890   1898522   1893639  
  9330.000000   1887774   1881753   1876440   1872483   1870199  
  9320.000000   1869501   1870088   1871536   1873572   1876063  
  9310.000000   1879034   1882472   1886232   1889994   1893302  
  9300.000000   1895729   1896916   1896721   1895131   1892319  
  9290.000000   1888532   1884122   1879502   1875159   1871610  
  9280.000000   1869275   1868374   1868773   1870029   1871473  
  9270.000000   1872471   1872616   1871889   1870644   1869440  
  9260.000000   1868805   1869000   1869948   1871288   1872576  
  9250.000000   1873469   1873872   1873935   1873957   1874192  
  9240.000000   1874709   1875340   1875777   1875680   1874857  
  9230.000000   1873289   1871188   1868869   1866662   1864827  
  9220.000000   1863502   1862768   1862664   1863264   1864633  
  9210.000000   1866803   1869690   1873073   1876567   1879701  
  9200.000000   1881991   1883098   1882926   1881650   1879677  
  9190.000000   1877529   1875707   1874515   1873961   1873769  
  9180.000000   1873499   1872715   1871121   1868672   1865569  
  9170.000000   1862203   1858999   1856296   1854262   1852918  
  9160.000000   1852199   1852042   1852385   1853176   1854308  
  9150.000000   1855606   1856838   1857756   1858215   1858183  
  9140.000000   1857801   1857244   1856663   1856029   1855172  
  9130.000000   1853851   1851933   1849522   1847002   1844968  
  9120.000000   1843995   1844443   1846236   1848923   1851778  
  9110.000000   1854092   1855367   1855480   1854681   1853413  
  9100.000000   1852145   1851137   1850442   1849854   1849093  
  9090.000000   1847888   1846123   1843845   1841245   1838672  
  9080.000000   1836544   1835347   1835449   1837115   1840345  
  9070.000000   1844856   1850027   1855040   1859074   1861493  
  9060.000000   1862008   1860698   1857996   1854468   1850689  
  9050.000000   1847044   1843758   1840903   1838484   1836521  
  9040.000000   1835013   1834014   1833497   1833452   1833799  
  9030.000000   1834515   1835601   1837071   1838884   1840836  
  9020.000000   1842596   1843675   1843636   1842192   1839418  
  9010.000000   1835719   1831760   1828258   1825772   1824566  
  9000.000000   1824565   1825469   1826883   1828467   1829985  
  8990.000000   1831301   1832333   1832985   1833157   1832786  
  8980.000000   1831935   1830813   1829744   1829085   1829092  
  8970.000000   1829852   1831220   1832927   1834653   1836158  
  8960.000000   1837298   1838016   1838281   1838004   1837047  
  8950.000000   1835249   1832571   1829128   1825264   1821459  
  8940.000000   1818241   1816022   1814985   1815092   1816096  
  8930.000000   1817698   1819586   1821572   1823587   1825646  
  8920.000000   1827789   1829989   1832173   1834151   1835707  
  8910.000000   1836591   1836658   1835866   1834339   1832369  
  8900.000000   1830366   1828798   1828025   1828265   1829475  
  8890.000000   1831412   1833642   1835716   1837252   1838042  
  8880.000000   1838032   1837295   1835975   1834219   1832173  
  8870.000000   1829955   1827708   1825583   1823745   1822316  
  8860.000000   1821350   1820813   1820604   1820612   1820751  
  8850.000000   1820995   1821351   1821836   1822426   1823047  
  8840.000000   1823614   1824067   1824448   1824883   1825570  
  8830.000000   1826656   1828162   1829920   1831600   1832805  
  8820.000000   1833222   1832730   1831485   1829854   1828318  
  8810.000000   1827288   1826989   1827384   1828215   1829124  
  8800.000000   1829790   1830060   1829993   1829847   1829976  
  8790.000000   1830700   1832171   1834308   1836805   1839225  
  8780.000000   1841135   1842233   1842464   1842020   1841294  
  8770.000000   1840730   1840663   1841206   1842212   1843340  
  8760.000000   1844194   1844469   1844074   1843157   1842045  
  8750.000000   1841125   1840698   1840897   1841648   1842731  
  8740.000000   1843874   1844849   1845551   1846003   1846334  
  8730.000000   1846711   1847274   1848092   1849129   1850274  
  8720.000000   1851367   1852257   1852849   1853145   1853238  
  8710.000000   1853294   1853480   1853896   1854519   1855184  
  8700.000000   1855646   1855643   1855028   1853825   1852256  
  8690.000000   1850666   1849420   1848786   1848864   1849585  
  8680.000000   1850746   1852134   1853580   1855031   1856493  
  8670.000000   1858010   1859580   1861149   1862615   1863850  
  8660.000000   1864766   1865294   1865423   1865113   1864337  
  8650.000000   1863044   1861254   1859062   1856682   1854426  
  8640.000000   1852646   1851656   1851625   1852582   1854416  
  8630.000000   1856954   1859985   1863310   1866750   1870105  
  8620.000000   1873183   1875752   1877665   1878836   1879354  
  8610.000000   1879409   1879279   1879214   1879380   1879842  
  8600.000000   1880573   1881574   1882871   1884581   1886788  
  8590.000000   1889525   1892645   1895834   1898647   1900651  
  8580.000000   1901576   1901390   1900317   1898732   1897058  
  8570.000000   1895619   1894586   1893979   1893732   1893783  
  8560.000000   1894092   1894676   1895531   1896629   1897853  
  8550.000000   1899069   1900159   1901089   1901921   1902765  
  8540.000000   1903739   1904868   1906077   1907192   1908028  
  8530.000000   1908462   1908493   1908255   1907965   1907841  
  8520.000000   1908027   1908550   1909324   1910195   1910991  
  8510.000000   1911577   1911886   1911917   1911732   1911434  
  8500.000000   1911153   1911022   1911151   1911605   1912389  
  8490.000000   1913439   1914650   1915897   1917089   1918173  
  8480.000000   1919153   1920046   1920875   1921627   1922275  
  8470.000000   1922798   1923225   1923652   1924222   1925085  
  8460.000000   1926330   1927942   1929776   1931610   1933212  
  8450.000000   1934416   1935163   1935512   1935598   1935574  
  8440.000000   1935539   1935543   1935575   1935630   1935712  
  8430.000000   1935872   1936170   1936660   1937335   1938105  
  8420.000000   1938807   1939244   1939248   1938725   1937691  
  8410.000000   1936274   1934712   1933288   1932280   1931891  
  8400.000000   1932209   1933190   1934644   1936319   1937937  
  8390.000000   1939307   1940340   1941104   1941761   1942500  
  8380.000000   1943441   1944567   1945729   1946654   1947057  
  8370.000000   1946698   1945494   1943526   1941031   1938340  
  8360.000000   1935801   1933731   1932347   1931775   1931991  
  8350.000000   1932889   1934254   1935840   1937382   1938675  
  8340.000000   1939603   1940150   1940393   1940414   1940286  
  8330.000000   1939977   1939401   1938421   1936969   1935094  
  8320.000000   1932999   1931016   1929498   1928743   1928861  
  8310.000000   1929775   1931218   1932851   1934349   1935487  
  8300.000000   1936170   1936405   1936259   1935800   1935080  
  8290.000000   1934131   1933006   1931798   1930654   1929738  
  8280.000000   1929176   1929008   1929141   1929398   1929532  
  8270.000000   1929343   1928700   1927628   1926271   1924870  
  8260.000000   1923669   1922845   1922454   1922415   1922537  
  8250.000000   1922552   1922205   1921297   1919767   1917686  
  8240.000000   1915253   1912739   1910419   1908518   1907151  
  8230.000000   1906326   1905946   1905879   1905984   1906185  
  8220.000000   1906446   1906788   1907216   1907708   1908167  
  8210.000000   1908438   1908338   1907699   1906436   1904553  
  8200.000000   1902162   1899429   1896547   1893669   1890897  
  8190.000000   1888265   1885763   1883366   1881059   1878868  
  8180.000000   1876840   1875057   1873590   1872514   1871867  
  8170.000000   1871668   1871889   1872458   1873246   1874073  
  8160.000000   1874734   1875021   1874789   1873964   1872593  
  8150.000000   1870802   1868788   1866732   1864768   1862931  
  8140.000000   1861176   1859419   1857591   1855701   1853836  
  8130.000000   1852170   1850873   1850094   1849870   1850140  
  8120.000000   1850744   1851482   1852159   1852630   1852814  
  8110.000000   1852682   1852236   1851483   1850437   1849105  
  8100.000000   1847526   1845751   1843863   1841944   1840061  
  8090.000000   1838253   1836518   1834856   1833270   1831810  
  8080.000000   1830554   1829598   1829004   1828767   1828793  
  8070.000000   1828905   1828897   1828578   1827841   1826675  
  8060.000000   1825188   1823555   1821986   1820665   1819716  
  8050.000000   1819180   1819017   1819119   1819341   1819527  
  8040.000000   1819542   1819295   1818764   1817992   1817083  
  8030.000000   1816165   1815357   1814725   1814267   1813918  
  8020.000000   1813577   1813160   1812629   1812024   1811437  
  8010.000000   1810977   1810716   1810647   1810675   1810643  
  8000.000000   1810391   1809806   1808874   1807685   1806401  
  7990.000000   1805210   1804269   1803664   1803401   1803415  
  7980.000000   1803604   1803846   1804023   1804021   1803738  
  7970.000000   1803090   1802044   1800630   1798983   1797316  
  7960.000000   1795898   1794973   1794700   1795092   1796004  
  7950.000000   1797190   1798358   1799282   1799848   1800086  
  7940.000000   1800128   1800134   1800225   1800411   1800607  
  7930.000000   1800648   1800382   1799715   1798672   1797382  
  7920.000000   1796042   1794870   1794021   1793582   1793535  
  7910.000000   1793801   1794256   1794775   1795248   1795592  
  7900.000000   1795754   1795696   1795404   1794882   1794165  
  7890.000000   1793311   1792413   1791568   1790876   1790409  
  7880.000000   1790195   1790220   1790415   1790693   1790951  
  7870.000000   1791114   1791136   1791027   1790838   1790647  
  7860.000000   1790536   1790553   1790698   1790915   1791109  
  7850.000000   1791175   1791035   1790669   1790123   1789500  
  7840.000000   1788921   1788490   1788254   1788188   1788205  
  7830.000000   1788183   1788010   1787619   1787010   1786256  
  7820.000000   1785476   1784807   1784362   1784211   1784360  
  7810.000000   1784762   1785320   1785921   1786444   1786792  
  7800.000000   1786895   1786726   1786294   1785648   1784862  
  7790.000000   1784021   1783203   1782458   1781802   1781211  
  7780.000000   1780634   1780013   1779299   1778480   1777572  
  7770.000000   1776632   1775723   1774910   1774232   1773704  
  7760.000000   1773316   1773040   1772849   1772716   1772624  
  7750.000000   1772544   1772446   1772280   1771998   1771553  
  7740.000000   1770929   1770145   1769269   1768400   1767654  
  7730.000000   1767137   1766922   1767035   1767445   1768077  
  7720.000000   1768818   1769544   1770129   1770473   1770507  
  7710.000000   1770205   1769587   1768711   1767665   1766543  
  7700.000000   1765439   1764416   1763503   1762689   1761931  
  7690.000000   1761167   1760338   1759413   1758397   1757352  
  7680.000000   1756374   1755588   1755104   1754994   1755263  
  7670.000000   1755841   1756599   1757367   1757989   1758340  
  7660.000000   1758367   1758076   1757530   1756808   1755997  
  7650.000000   1755161   1754350   1753605   1752967   1752490  
  7640.000000   1752218   1752187   1752390   1752782   1753271  
  7630.000000   1753749   1754112   1754282   1754231   1753969  
  7620.000000   1753540   1753000   1752407   1751813   1751266  
  7610.000000   1750815   1750505   1750376   1750445   1750695  
  7600.000000   1751071   1751480   1751812   1751958   1751842  
  7590.000000   1751436   1750785   1749990   1749205   1748584  
  7580.000000   1748258   1748292   1748667   1749282   1749986  
  7570.000000   1750620   1751071   1751309   1751397   1751457  
  7560.000000   1751626   1751985   1752540   1753199   1753826  
  7550.000000   1754273   1754460   1754385   1754132   1753827  
  7540.000000   1753586   1753481   1753525   1753695   1753966  
  7530.000000   1754336   1754839   1755513   1756378   1757386  
  7520.000000   1758435   1759366   1760037   1760357   1760344  
  7510.000000   1760103   1759812   1759654   1759779   1760277  
  7500.000000   1761176   1762453   1764050   1765888   1767863  
  7490.000000   1769842   1771672   1773189   1774274   1774870  
  7480.000000   1775036   1774902   1774667   1774511   1774575  
  7470.000000   1774915   1775525   1776361   1777385   1778591  
  7460.000000   1780001   1781644   1783517   1785562   1787666  
  7450.000000   1789686   1791500   1793029   1794277   1795298  
  7440.000000   1796200   1797081   1798019   1799043   1800155  
  7430.000000   1801334   1802558   1803810   1805081   1806366  
  7420.000000   1807663   1808973   1810301   1811663   1813082  
  7410.000000   1814585   1816191   1817905   1819714   1821584  
  7400.000000   1823475   1825341   1827138   1828828   1830377  
  7390.000000   1831764   1832986   1834066   1835056   1836026  
  7380.000000   1837056   1838207   1839499   1840903   1842347  
  7370.000000   1843738   1844992   1846062   1846951   1847716  
  7360.000000   1848449   1849256   1850230   1851439   1852906  
  7350.000000   1854616   1856513   1858506   1860484   1862335  
  7340.000000   1863969   1865333   1866431   1867316   1868082  
  7330.000000   1868832   1869660   1870614   1871696   1872866  
  7320.000000   1874061   1875228   1876338   1877411   1878496  
  7310.000000   1879665   1880969   1882424   1883993   1885592  
  7300.000000   1887118   1888473   1889598   1890490   1891201  
  7290.000000   1891821   1892444   1893135   1893916   1894761  
  7280.000000   1895620   1896438   1897189   1897885   1898574  
  7270.000000   1899320   1900177   1901165   1902266   1903428  
  7260.000000   1904599   1905731   1906817   1907871   1908938  
  7250.000000   1910059   1911275   1912603   1914061   1915646  
  7240.000000   1917367   1919208   1921155   1923153   1925143  
  7230.000000   1927049   1928829   1930469   1932027   1933589  
  7220.000000   1935278   1937192   1939399   1941897   1944646  
  7210.000000   1947562   1950571   1953606   1956642   1959665  
  7200.000000   1962689   1965709   1968722   1971701   1974635  
  7190.000000   1977507   1980340   1983166   1986041   1989015  
  7180.000000   1992129   1995389   1998776   2002239   2005723  
  7170.000000   2009168   2012548   2015852   2019120   2022390  
  7160.000000   2025716   2029119   2032605   2036142   2039713  
  7150.000000   2043302   2046946   2050707   2054681   2058937  
  7140.000000   2063514   2068358   2073385   2078453   2083468  
  7130.000000   2088363   2093168   2097939   2102789   2107789  
  7120.000000   2113001   2118423   2124045   2129840   2135813  
  7110.000000   2141973   2148342   2154902   2161609   2168364  
  7100.000000   2175061   2181592   2187910   2194003   2199925  
  7090.000000   2205735   2211504   2217273   2223080   2228952  
  7080.000000   2234924   2241037   2247327   2253800   2260419  
  7070.000000   2267103   2273750   2280267   2286601   2292752  
  7060.000000   2298765   2304704   2310631   2316576   2322554  
  7050.000000   2328562   2334601   2340680   2346811   2352997  
  7040.000000   2359213   2365414   2371543   2377561   2383459  
  7030.000000   2389268   2395038   2400816   2406608   2412386  
  7020.000000   2418086   2423651   2429055   2434331   2439551  
  7010.000000   2444812   2450175   2455661   2461217   2466767  
  7000.000000   2472210   2477485   2482558   2487446   2492169  
  6990.000000   2496763   2501234   2505593   2509833   2513967  
  6980.000000   2518007   2521979   2525882   2529710   2533423  
  6970.000000   2536995   2540391   2543626   2546728   2549763  
  6960.000000   2552785   2555847   2558963   2562136   2565330  
  6950.000000   2568512   2571626   2574626   2577455   2580077  
  6940.000000   2582466   2584644   2586652   2588573   2590480  
  6930.000000   2592436   2594451   2596502   2598524   2600466  
  6920.000000   2602283   2603985   2605601   2607185   2608767  
  6910.000000   2610365   2611955   2613511   2615000   2616413  
  6900.000000   2617750   2619022   2620232   2621372   2622427  
  6890.000000   2623388   2624263   2625084   2625892   2626726  
  6880.000000   2627595   2628490   2629372   2630213   2630999  
  6870.000000   2631752   2632512   2633324   2634203   2635137  
  6860.000000   2636076   2636967   2637769   2638479   2639125  
  6850.000000   2639757   2640413   2641104   2641804   2642467  
  6840.000000   2643039   2643489   2643811   2644033   2644191  
  6830.000000   2644330   2644476   2644651   2644855   2645090  
  6820.000000   2645339   2645591   2645818   2646002   2646126  
  6810.000000   2646200   2646244   2646299   2646390   2646524  
  6800.000000   2646665   2646747   2646694   2646453   2646019  
  6790.000000   2645445   2644817   2644236   2643766   2643426  
  6780.000000   2643181   2642972   2642736   2642440   2642085  
  6770.000000   2641701   2641320   2640968   2640642   2640332  
  6760.000000   2640021   2639701   2639374   2639046   2638710  
  6750.000000   2638348   2637928   2637423   2636827   2636163  
  6740.000000   2635475   2634815   2634216   2633680   2633173  
  6730.000000   2632648   2632063   2631405   2630695   2629980  
  6720.000000   2629309   2628716   2628203   2627750   2627321  
  6710.000000   2626890   2626443   2625989   2625535   2625091  
  6700.000000   2624648   2624187   2623676   2623090   2622405  
  6690.000000   2621611   2620702   2619678   2618547   2617327  
  6680.000000   2616046   2614752   2613486   2612295   2611195  
  6670.000000   2610194   2609269   2608399   2607556   2606724  
  6660.000000   2605885   2605019   2604090   2603059   2601880  
  6650.000000   2600536   2599036   2597436   2595817   2594267  
  6640.000000   2592850   2591595   2590481   2589461   2588464  
  6630.000000   2587432   2586311   2585069   2583680   2582131  
  6620.000000   2580414   2578550   2576580   2574580   2572635  
  6610.000000   2570825   2569194   2567741   2566407   2565116  
  6600.000000   2563781   2562351   2560812   2559192   2557536  
  6590.000000   2555887   2554262   2552651   2551022   2549337  
  6580.000000   2547573   2545726   2543818   2541886   2539974  
  6570.000000   2538128   2536380   2534758   2533271   2531921  
  6560.000000   2530689   2529547   2528454   2527370   2526256  
  6550.000000   2525085   2523848   2522541   2521175   2519759  
  6540.000000   2518307   2516826   2515332   2513834   2512349  
  6530.000000   2510888   2509459   2508069   2506719   2505412  
  6520.000000   2504148   2502927   2501745   2500589   2499441  
  6510.000000   2498278   2497086   2495859   2494612   2493370  
  6500.000000   2492162   2491011   2489919   2488873   2487844  
  6490.000000   2486801   2485727   2484619   2483492   2482369  
  6480.000000   2481270   2480203   2479165   2478141   2477113  
  6470.000000   2476066   2474997   2473910   2472817   2471731  
  6460.000000   2470665   2469630   2468626   2467651   2466691  
  6450.000000   2465729   2464746   2463729   2462678   2461604  
  6440.000000   2460530   2459482   2458477   2457517   2456595  
  6430.000000   2455691   2454800   2453922   2453082   2452305  
  6420.000000   2451618   2451023   2450502   2450017   2449532  
  6410.000000   2449024   2448501   2447989   2447532   2447158  
  6400.000000   2446878   2446667   2446483   2446274   2446001  
  6390.000000   2445646   2445215   2444728   2444212   2443692  
  6380.000000   2443188   2442718   2442296   2441934   2441638  
  6370.000000   2441399   2441191   2440977   2440717   2440383  
  6360.000000   2439963   2439476   2438952   2438433   2437945  
  6350.000000   2437506   2437109   2436738   2436366   2435968  
  6340.000000   2435514   2434978   2434335   2433575   2432697  
  6330.000000   2431724   2430691   2429646   2428623   2427640  
  6320.000000   2426687   2425734   2424743   2423687   2422561  
  6310.000000   2421384   2420188   2419008   2417862   2416754  
  6300.000000   2415674   2414614   2413570   2412551   2411564  
  6290.000000   2410613   2409675   2408721   2407704   2406594  
  6280.000000   2405373   2404056   2402671   2401254   2399825  
  6270.000000   2398389   2396927   2395418   2393842   2392200  
  6260.000000   2390503   2388785   2387071   2385389   2383750  
  6250.000000   2382163   2380630   2379151   2377723   2376334  
  6240.000000   2374961   2373573   2372133   2370612   2368992  
  6230.000000   2367277   2365488   2363658   2361825   2360023  
  6220.000000   2358282   2356623   2355054   2353569   2352144  
  6210.000000   2350743   2349320   2347832   2346260   2344614  
  6200.000000   2342934   2341278   2339707   2338257   2336931  
  6190.000000   2335697   2334503   2333298   2332048   2330744  
  6180.000000   2329400   2328040   2326685   2325342   2324010  
  6170.000000   2322680   2321350   2320021   2318704   2317405  
  6160.000000   2316126   2314860   2313596   2312329   2311060  
  6150.000000   2309802   2308571   2307372   2306198   2305021  
  6140.000000   2303807   2302522   2301153   2299709   2298220  
  6130.000000   2296730   2295281   2293902   2292607   2291397  
  6120.000000   2290263   2289192   2288169   2287175   2286190  
  6110.000000   2285192   2284168   2283116   2282060   2281034  
  6100.000000   2280092   2279277   2278624   2278134   2277789  
  6090.000000   2277540   2277336   2277121   2276858   2276524  
  6080.000000   2276124   2275672   2275208   2274763   2274381  
  6070.000000   2274076   2273862   2273718   2273630   2273571  
  6060.000000   2273541   2273548   2273630   2273824   2274173  
  6050.000000   2274687   2275365   2276169   2277068   2278020  
  6040.000000   2279014   2280046   2281140   2282310   2283582  
  6030.000000   2284957   2286440   2288020   2289697   2291456  
  6020.000000   2293290   2295173   2297081   2298978   2300844  
  6010.000000   2302662   2304448   2306217   2308007   2309833  
  6000.000000   2311712   2313633   2315591   2317576   2319605  
  5990.000000   2321693   2323880   2326189   2328640   2331221  
  5980.000000   2333922   2336708   2339570   2342491   2345482  
  5970.000000   2348542   2351685   2354900   2358189   2361536  
  5960.000000   2364947   2368415   2371953   2375557   2379228  
  5950.000000   2382947   2386706   2390487   2394295   2398134  
  5940.000000   2402023   2405972   2409988   2414066   2418194  
  5930.000000   2422359   2426548   2430752   2434956   2439139  
  5920.000000   2443259   2447272   2451131   2454810   2458300  
  5910.000000   2461627   2464820   2467917   2470932   2473868  
  5900.000000   2476704   2479432   2482049   2484586   2487080  
  5890.000000   2489586   2492131   2494730   2497359   2499988  
  5880.000000   2502569   2505075   2507484   2509793   2512001  
  5870.000000   2514106   2516108   2518009   2519825   2521587  
  5860.000000   2523342   2525139   2527019   2529005   2531101  
  5850.000000   2533293   2535561   2537885   2540255   2542663  
  5840.000000   2545107   2547581   2550079   2552593   2555124  
  5830.000000   2557669   2560238   2562827   2565432   2568034  
  5820.000000   2570614   2573156   2575658   2578134   2580606  
  5810.000000   2583099   2585616   2588151   2590665   2593132  
  5800.000000   2595506   2597796   2599994   2602150   2604275  
  5790.000000   2606404   2608504   2610547   2612430   2614060  
  5780.000000   2615293   2616015   2616106   2615513   2614218  
  5770.000000   2612296   2609862   2607103   2604194   2601316  
  5760.000000   2598580   2596064   2593774   2591705   2589821  
  5750.000000   2588110   2586551   2585137   2583844   2582642  
  5740.000000   2581491   2580351   2579202   2578036   2576878  
  5730.000000   2575747   2574675   2573665   2572721   2571822  
  5720.000000   2570958   2570117   2569301   2568513   2567763  
  5710.000000   2567053   2566390   2565772   2565208   2564700  
  5700.000000   2564253   2563861   2563506   2563167   2562817  
  5690.000000   2562447   2562057   2561671   2561303   2560973  
  5680.000000   2560663   2560344   2559957   2559449   2558768  
  5670.000000   2557889   2556793   2555480   2553945   2552195  
  5660.000000   2550234   2548096   2545824   2543495   2541179  
  5650.000000   2538944   2536817   2534802   2532866   2530975  
  5640.000000   2529098   2527228   2525378   2523572   2521834  
  5630.000000   2520173   2518592   2517081   2515640   2514266  
  5620.000000   2512967   2511737   2510569   2509434   2508307  
  5610.000000   2507162   2505998   2504834   2503704   2502640  
  5600.000000   2501663   2500764   2499918   2499087   2498236  
  5590.000000   2497346   2496417   2495454   2494467   2493458  
  5580.000000   2492426   2491371   2490297   2489222   2488163  
  5570.000000   2487134   2486129   2485127   2484090   2482983  
  5560.000000   2481785   2480498   2479144   2477756   2476362  
  5550.000000   2474978   2473606   2472245   2470892   2469556  
  5540.000000   2468251   2466991   2465780   2464607   2463453  
  5530.000000   2462296   2461127   2459950   2458781   2457641  
  5520.000000   2456536   2455462   2454397   2453320   2452208  
  5510.000000   2451058   2449871   2448655   2447411   2446134  
  5500.000000   2444815   2443454   2442057   2440654   2439272  
  5490.000000   2437933   2436631   2435338   2434002   2432579  
  5480.000000   2431035   2429375   2427627   2425838   2424049  
  5470.000000   2422287   2420556   2418849   2417149   2415453  
  5460.000000   2413755   2412057   2410351   2408622   2406849  
  5450.000000   2405018   2403130   2401207   2399286   2397400  
  5440.000000   2395573   2393802   2392073   2390364   2388668  
  5430.000000   2386988   2385347   2383761   2382241   2380769  
  5420.000000   2379334   2377913   2376517   2375168   2373918  
  5410.000000   2372802   2371852   2371051   2370383   2369805  
  5400.000000   2369313   2368904   2368620   2368482   2368522  
  5390.000000   2368721   2369065   2369504   2370032   2370638  
  5380.000000   2371368   2372247   2373330   2374607   2376087  
  5370.000000   2377718   2379493   2381370   2383378   2385506  
  5360.000000   2387808   2390278   2392973   2395888   2399098  
  5350.000000   2402610   2406512   2410801   2415534   2420657  
  5340.000000   2426192   2432068   2438333   2444956   2452028  
  5330.000000   2459534   2467558   2476043   2485037   2494467  
  5320.000000   2504404   2514817   2525837   2537470   2549858  
  5310.000000   2562975   2576913   2591593   2607075   2623284  
  5300.000000   2640307   2658104   2676797   2696363   2716909  
  5290.000000   2738369   2760775   2783983   2807941   2832467  
  5280.000000   2857522   2883010   2909006   2935548   2962786  
  5270.000000   2990763   3019511   3048895   3078728   3108751  
  5260.000000   3138752   3168602   3198279   3227853   3257389  
  5250.000000   3286931   3316380   3345599   3374327   3402406  
  5240.000000   3429654   3456112   3481790   3506878   3531428  
  5230.000000   3555577   3579244   3602409   3624862   3646532  
  5220.000000   3667242   3687039   3705887   3723964   3741313  
  5210.000000   3758116   3774339   3790038   3805045   3819328  
  5200.000000   3832711   3845243   3856868   3867751   3877901  
  5190.000000   3887469   3896397   3904732   3912340   3919238  
  5180.000000   3925322   3930676   3935271   3939234   3942546  
  5170.000000   3945305   3947467   3949107   3950186   3950795  
  5160.000000   3950910   3950620   3949884   3948754   3947169  
  5150.000000   3945168   3942706   3939842   3936558   3932917  
  5140.000000   3928899   3924555   3919868   3914896   3909644  
  5130.000000   3904190   3898547   3892773   3886856   3880816  
  5120.000000   3874621   3868288   3861807   3855219   3848542  
  5110.000000   3841820   3835062   3828288   3821491   3814681  
  5100.000000   3807859   3801047   3794258   3787513   3780815  
  5090.000000   3774167   3767558   3760984   3754434   3747909  
  5080.000000   3741403   3734913   3728423   3721924   3715396  
  5070.000000   3708835   3702237   3695611   3688958   3682282  
  5060.000000   3675569   3668806   3661967   3655040   3648009  
  5050.000000   3640884   3633668   3626382   3619032   3611635  
  5040.000000   3604195   3596729   3589243   3581757   3574279  
  5030.000000   3566817   3559369   3551926   3544479   3537020  
  5020.000000   3529559   3522111   3514712   3507392   3500193  
  5010.000000   3493130   3486223   3479460   3472841   3466341  
  5000.000000   3459963   3453694   3447560   3441565   3435757  
  4990.000000   3430148   3424789   3419679   3414856   3410300  
  4980.000000   3406035   3402030   3398309   3394846   3391676  
  4970.000000   3388781   3386205   3383925   3381980   3380333  
  4960.000000   3379014   3377984   3377276   3376861   3376786  
  4950.000000   3377029   3377641   3378589   3379914   3381573  
  4940.000000   3383599   3385951   3388672   3391733   3395188  
  4930.000000   3399012   3403253   3407879   3412924   3418345  
  4920.000000   3424164   3430332   3436863   3443706   3450870  
  4910.000000   3458311   3466039   3474020   3482260   3490729  
  4900.000000   3499418   3508285   3517302   3526423   3535610  
  4890.000000   3544827   3554036   3563210   3572301   3581278  
  4880.000000   3590073   3598650   3606930   3614883   3622435  
  4870.000000   3629571   3636225   3642397   3648036   3653163  
  4860.000000   3657751   3661852   3665463   3668653   3671432  
  4850.000000   3673868   3675967   3677791   3679347   3680697  
  4840.000000   3681857   3682891   3683823   3684711   3685574  
  4830.000000   3686455   3687360   3688309   3689293   3690311  
  4820.000000   3691343   3692379   3693403   3694412   3695410  
  4810.000000   3696411   3697434   3698495   3699610   3700783  
  4800.000000   3702014   3703293   3704614   3705972   3707368  
  4790.000000   3708804   3710290   3711829   3713422   3715063  
  4780.000000   3716741   3718437   3720128   3721794   3723409  
  4770.000000   3724960   3726431   3727823   3729136   3730384  
  4760.000000   3731577   3732733   3733855   3734950   3736007  
  4750.000000   3737021   3737972   3738853   3739648   3740358  
  4740.000000   3740976   3741509   3741957   3742327   3742616  
  4730.000000   3742828   3742958   3743009   3742981   3742881  
  4720.000000   3742721   3742518   3742295   3742076   3741889  
  4710.000000   3741754   3741697   3741734   3741885   3742160  
  4700.000000   3742574   3743131   3743839   3744692   3745691  
  4690.000000   3746822   3748081   3749450   3750921   3752470  
  4680.000000   3754087   3755739   3757411   3759070   3760706  
  4670.000000   3762297   3763854   3765377   3766899   3768441  
  4660.000000   3770050   3771754   3773598   3775605   3777805  
  4650.000000   3780204   3782806   3785592   3788537   3791602  
  4640.000000   3794748   3797938   3801143   3804345   3807534  
  4630.000000   3810710   3813864   3816989   3820060   3823053  
  4620.000000   3825923   3828639   3831157   3833455   3835504  
  4610.000000   3837305   3838844   3840143   3841205   3842070  
  4600.000000   3842751   3843302   3843741   3844119   3844444  
  4590.000000   3844747   3845007   3845223   3845346   3845354  
  4580.000000   3845197   3844864   3844330   3843615   3842727  
  4570.000000   3841704   3840562   3839333   3838020   3836634  
  4560.000000   3835167   3833626   3832004   3830313   3828552  
  4550.000000   3826734   3824855   3822921   3820925   3818871  
  4540.000000   3816766   3814624   3812467   3810317   3808200  
  4530.000000   3806126   3804113   3802155   3800267   3798442  
  4520.000000   3796710   3795070   3793570   3792210   3791043  
  4510.000000   3790060   3789317   3788805   3788600   3788708  
  4500.000000   3789230   3790179   3791660   3793671   3796298  
  4490.000000   3799514   3803393   3807898   3813101   3818965  
  4480.000000   3825556   3832824   3840819   3849469   3858805  
  4470.000000   3868743   3879301   3890394   3902032   3914129  
  4460.000000   3926686   3939616   3952908   3966480   3980317  
  4450.000000   3994345   4008550   4022880   4037323   4051855  
  4440.000000   4066470   4081159   4095908   4110706   4125504  
  4430.000000   4140269   4154911   4169377   4183554   4197390  
  4420.000000   4210781   4223704   4236080   4247917   4259151  
  4410.000000   4269800   4279801   4289173   4297857   4305893  
  4400.000000   4313254   4320018   4326203   4331917   4337202  
  4390.000000   4342174   4346881   4351433   4355872   4360285  
  4380.000000   4364693   4369141   4373613   4378113   4382612  
  4370.000000   4387114   4391617   4396154   4400752   4405455  
  4360.000000   4410284   4415257   4420352   4425562   4430818  
  4350.000000   4436102   4441319   4446474   4451493   4456437  
  4340.000000   4461291   4466147   4470962   4475689   4480054  
  4330.000000   4483693   4486051   4486588   4484815   4480518  
  4320.000000   4473781   4465067   4455082   4444691   4434678  
  4310.000000   4425679   4418016   4411787   4406846   4402984  
  4300.000000   4399954   4397582   4395758   4394414   4393522  
  4290.000000   4393012   4392843   4392918   4393219   4393694  
  4280.000000   4394381   4395287   4396448   4397871   4399541  
  4270.000000   4401441   4403516   4405708   4407893   4409904  
  4260.000000   4411480   4412319   4412096   4410557   4407562  
  4250.000000   4403167   4397595   4391239   4384544   4377972  
  4240.000000   4371872   4366490   4361885   4358023   4354750  
  4230.000000   4351898   4349280   4346750   4344205   4341586  
  4220.000000   4338897   4336157   4333451   4330842   4328447  
  4210.000000   4326326   4324571   4323196   4322228   4321621  
  4200.000000   4321342   4321307   4321464   4321728   4322072  
  4190.000000   4322446   4322873   4323343   4323917   4324599  
  4180.000000   4325449   4326458   4327675   4329082   4330738  
  4170.000000   4332647   4334895   4337509   4340577   4344106  
  4160.000000   4348149   4352669   4357682   4363127   4369014  
  4150.000000   4375291   4381983   4389042   4396502   4404312  
  4140.000000   4412503   4421023   4429907   4439104   4448650  
  4130.000000   4458495   4468669   4479129   4489916   4501013  
  4120.000000   4512481   4524327   4536620   4549363   4562603  
  4110.000000   4576315   4590514   4605145   4620184   4635551  
  4100.000000   4651188   4666998   4682920   4698887   4714884  
  4090.000000   4730913   4747008   4763211   4779546   4796031  
  4080.000000   4812633   4829326   4846033   4862718   4879297  
  4070.000000   4895743   4911961   4927920   4943512   4958709  
  4060.000000   4973403   4987590   5001180   5014196   5026568  
  4050.000000   5038351   5049502   5060112   5070157   5079737  
  4040.000000   5088800   5097404   5105446   5112950   5119809  
  4030.000000   5126070   5131667   5136676   5141052   5144852  
  4020.000000   5147995   5150529   5152429   5153760   5154474  
  4010.000000   5154684   5154448   5153765   5152417   5150452  
  4000.000000   5148177  
##END= 
