##TITLE= Sample 007 By ssteindl date Montag, November 19 2018
##JCAMP-DX= 4.24
##DATA TYPE= INFRARED SPECTRUM
##ORIGIN= Exported PE Spectrum Data File
##OWNER= Sandra Steindl
##DATE= 18/11/19
##TIME= 15:52:12.00
##SPECTROMETER/DATA SYSTEM= PERKIN-ELMER Frontier FT-IR/NIR IR
##INSTRUMENT PARAMETERS=
  APODIZATION=stark
  DETECTOR=INGAAS
##RESOLUTION= 16.000000
##DELTAX= -2.000000
##XUNITS= 1/CM
##YUNITS= A
##XFACTOR= 1.00
##YFACTOR= 0.00000000023841857910
##FIRSTX= 10000.00
##LASTX= 4000.00
##NPOINTS= 3001
##FIRSTY= 0.099010
##MAXY= 0.435531
##MINY= 0.052768
##XYDATA= (X++(Y..Y))
 10000.000000   0415279446   0415258098   0415506816   0416384868   0417879698  
  9990.000000   0419653800   0421255864   0422233903   0422114427   0420570025  
  9980.000000   0417608019   0413615380   0409250945   0405257918   0402269819  
  9970.000000   0400603835   0400143679   0400407266   0400698564   0400385902  
  9960.000000   0399100205   0396876265   0394128096   0391479052   0389581870  
  9950.000000   0388840575   0389356224   0390820088   0392694366   0394299843  
  9940.000000   0395073380   0394694012   0393221219   0391097189   0389053329  
  9930.000000   0387930263   0388439112   0390952988   0395373099   0401097197  
  9920.000000   0407167121   0412471510   0416087061   0417491289   0416733872  
  9910.000000   0414379820   0411312974   0408481404   0406565791   0405887658  
  9900.000000   0406314874   0407498609   0408999340   0410547558   0412047809  
  9890.000000   0413565368   0415137117   0416638668   0417695293   0417746206  
  9880.000000   0416215324   0412745601   0407377532   0400632050   0393414173  
  9870.000000   0386836672   0381927440   0379421724   0379558107   0382072013  
  9860.000000   0386202108   0390869180   0394849231   0397038277   0396716034  
  9850.000000   0393712182   0388534744   0382199832   0376064933   0371373308  
  9840.000000   0368983473   0369029421   0370972590   0373761297   0376272758  
  9830.000000   0377692605   0377776134   0376883577   0375745307   0375162940  
  9820.000000   0375657737   0377307882   0379783163   0382514819   0385008175  
  9810.000000   0386973317   0388434845   0389577331   0390609849   0391599852  
  9800.000000   0392434629   0392899080   0392810679   0392146000   0391079780  
  9790.000000   0389923594   0388992726   0388516720   0388536481   0388997024  
  9780.000000   0389733709   0390642602   0391634174   0392690224   0393771723  
  9770.000000   0394788917   0395596365   0395994970   0395826164   0394974524  
  9760.000000   0393425967   0391219161   0388441574   0385227883   0381759830  
  9750.000000   0378352670   0375391101   0373372967   0372696341   0373608312  
  9740.000000   0375997233   0379420707   0383151852   0386363055   0388352118  
  9730.000000   0388651202   0387162647   0384037119   0379679982   0374539643  
  9720.000000   0369128766   0363904267   0359320352   0355777305   0353587241  
  9710.000000   0352929044   0353753895   0355832074   0358745728   0362062888  
  9700.000000   0365391228   0368499070   0371279333   0373695718   0375709644  
  9690.000000   0377200384   0378038952   0378109285   0377462203   0376294111  
  9680.000000   0374935772   0373697293   0372735889   0371992702   0371206087  
  9670.000000   0370078217   0368404732   0366225399   0363802363   0361534724  
  9660.000000   0359782081   0358717691   0358275880   0358196475   0358163724  
  9650.000000   0357959214   0357537477   0357047954   0356709570   0356735621  
  9640.000000   0357220788   0358165458   0359510965   0361192117   0363155224  
  9630.000000   0365283194   0367346066   0368938003   0369555016   0368729833  
  9620.000000   0366243204   0362270838   0357411478   0352547013   0348575194  
  9610.000000   0346130582   0345382936   0346020821   0347386341   0348726978  
  9600.000000   0349449018   0349279092   0348294785   0346813458   0345225459  
  9590.000000   0343847483   0342852821   0342295267   0342180731   0342529313  
  9580.000000   0343396830   0344826247   0346781432   0349095766   0351472125  
  9570.000000   0353539870   0354956406   0355467702   0354999678   0353599900  
  9560.000000   0351468400   0348838772   0345991450   0343185950   0340665809  
  9550.000000   0338659852   0337345306   0336875604   0337298400   0338606655  
  9540.000000   0340661096   0343280456   0346193492   0349130433   0351799209  
  9530.000000   0353941144   0355349982   0355889501   0355547903   0354402847  
  9520.000000   0352650376   0350509820   0348203723   0345869933   0343561924  
  9510.000000   0341254098   0338899630   0336495730   0334116624   0331933399  
  9500.000000   0330150359   0328965454   0328466761   0328626363   0329279540  
  9490.000000   0330207832   0331215700   0332199167   0333187518   0334274027  
  9480.000000   0335573044   0337094459   0338738207   0340262712   0341384435  
  9470.000000   0341840855   0341510283   0340450022   0338906314   0337250399  
  9460.000000   0335865045   0335050897   0334921611   0335414072   0336292436  
  9450.000000   0337265449   0338032905   0338391196   0338229605   0337566137  
  9440.000000   0336506256   0335222099   0333912240   0332748229   0331854938  
  9430.000000   0331255804   0330885470   0330575230   0330119111   0329318804  
  9420.000000   0328087997   0326497177   0324796493   0323345186   0322485598  
  9410.000000   0322428389   0323151031   0324428939   0325902387   0327234687  
  9400.000000   0328235810   0328927133   0329524929   0330293671   0331414265  
  9390.000000   0332816369   0334200055   0335097932   0335097943   0333988639  
  9380.000000   0331870799   0329133753   0326335236   0324067892   0322776074  
  9370.000000   0322693371   0323770843   0325767479   0328287699   0330911120  
  9360.000000   0333202020   0334798217   0335414611   0334943586   0333483490  
  9350.000000   0331361852   0329065165   0327078810   0325754986   0325155768  
  9340.000000   0325067921   0325039106   0324562148   0323240525   0320945012  
  9330.000000   0317875782   0314484475   0311332909   0308897914   0307476865  
  9320.000000   0307137765   0307776067   0309163323   0311033862   0313119637  
  9310.000000   0315180837   0317012674   0318448503   0319396846   0319832419  
  9300.000000   0319831368   0319491806   0318926878   0318154712   0317141280  
  9290.000000   0315795379   0314088331   0312113229   0310109599   0308439583  
  9280.000000   0307431709   0307297368   0307989545   0309260487   0310729223  
  9270.000000   0312048983   0313023120   0313643128   0314046067   0314371699  
  9260.000000   0314665879   0314817199   0314634218   0313941656   0312725896  
  9250.000000   0311177247   0309665654   0308600326   0308261444   0308698377  
  9240.000000   0309690367   0310872546   0311847879   0312358303   0312330854  
  9230.000000   0311887199   0311251446   0310639082   0310174065   0309865950  
  9220.000000   0309650437   0309430990   0309125556   0308666256   0308023606  
  9210.000000   0307179055   0306161085   0305033556   0303920890   0302973222  
  9200.000000   0302324335   0302039391   0302070783   0302280656   0302490206  
  9190.000000   0302593195   0302618381   0302764602   0303308440   0304479487  
  9180.000000   0306315638   0308603587   0310921591   0312743617   0313632818  
  9170.000000   0313373084   0312068193   0310056818   0307788710   0305666289  
  9160.000000   0303944384   0302716579   0301927191   0301482321   0301285520  
  9150.000000   0301308116   0301536038   0301956473   0302499456   0303057930  
  9140.000000   0303505116   0303735066   0303680529   0303304954   0302603417  
  9130.000000   0301583181   0300288408   0298805485   0297294681   0295988361  
  9120.000000   0295139831   0294934702   0295382035   0296293740   0297311583  
  9110.000000   0298020374   0298077088   0297345158   0295948458   0294212153  
  9100.000000   0292534586   0291239995   0290487648   0290230082   0290272982  
  9090.000000   0290368197   0290336318   0290106484   0289719791   0289270642  
  9080.000000   0288845662   0288485076   0288166150   0287845106   0287495306  
  9070.000000   0287139323   0286856320   0286728548   0286826513   0287157279  
  9060.000000   0287683368   0288303588   0288883005   0289273642   0289355671  
  9050.000000   0289051951   0288362653   0287386663   0286335602   0285493026  
  9040.000000   0285131017   0285445490   0286461397   0288021506   0289786935  
  9030.000000   0291367308   0292438660   0292859106   0292690755   0292155496  
  9020.000000   0291525462   0290997776   0290610921   0290234826   0289658998  
  9010.000000   0288700013   0287322108   0285655904   0283967977   0282552525  
  9000.000000   0281617262   0281213003   0281211372   0281384718   0281501075  
  8990.000000   0281428113   0281179917   0280898021   0280787344   0281026611  
  8980.000000   0281695847   0282747099   0284022449   0285305286   0286398235  
  8970.000000   0287160519   0287550869   0287602971   0287407125   0287064034  
  8960.000000   0286648157   0286199673   0285719721   0285199170   0284634763  
  8950.000000   0284052706   0283504700   0283059235   0282763382   0282626777  
  8940.000000   0282594532   0282566705   0282422414   0282069594   0281484595  
  8930.000000   0280727437   0279927231   0279237146   0278783827   0278627866  
  8920.000000   0278754479   0279084462   0279516369   0279949315   0280322123  
  8910.000000   0280596391   0280764055   0280808633   0280717671   0280478263  
  8900.000000   0280105995   0279654853   0279214381   0278899888   0278815519  
  8890.000000   0279035162   0279575721   0280408660   0281463345   0282643118  
  8880.000000   0283823988   0284867017   0285623481   0285955537   0285765263  
  8870.000000   0285036522   0283868280   0282469454   0281118098   0280082977  
  8860.000000   0279545101   0279536972   0279932280   0280492440   0280946249  
  8850.000000   0281083025   0280810642   0280177627   0279338656   0278489725  
  8840.000000   0277808785   0277409440   0277343627   0277597570   0278122122  
  8830.000000   0278838678   0279658886   0280486852   0281227876   0281809845  
  8820.000000   0282202554   0282435334   0282592222   0282775234   0283071000  
  8810.000000   0283494902   0283994113   0284446550   0284722770   0284729570  
  8800.000000   0284456974   0283981786   0283440091   0282985343   0282737326  
  8790.000000   0282759012   0283043144   0283541629   0284178997   0284888196  
  8780.000000   0285601670   0286269673   0286843904   0287301780   0287638889  
  8770.000000   0287888903   0288099064   0288322022   0288573659   0288819024  
  8760.000000   0288967528   0288903334   0288537068   0287840828   0286874799  
  8750.000000   0285759596   0284638171   0283611648   0282706634   0281871738  
  8740.000000   0281023920   0280106539   0279147456   0278264286   0277641464  
  8730.000000   0277456076   0277814434   0278694010   0279948231   0281349068  
  8720.000000   0282672196   0283757917   0284560715   0285133776   0285607124  
  8710.000000   0286118512   0286777082   0287621634   0288625316   0289698192  
  8700.000000   0290720492   0291563511   0292126015   0292350343   0292240180  
  8690.000000   0291863111   0291335855   0290802483   0290388375   0290172572  
  8680.000000   0290160223   0290302511   0290515005   0290734120   0290927047  
  8670.000000   0291125215   0291383716   0291767633   0292300624   0292953749  
  8660.000000   0293654241   0294303063   0294818696   0295138913   0295238508  
  8650.000000   0295105795   0294747244   0294175053   0293435113   0292617246  
  8640.000000   0291871326   0291376444   0291286084   0291677727   0292495090  
  8630.000000   0293568752   0294642710   0295490722   0295988550   0296177402  
  8620.000000   0296235041   0296395565   0296844950   0297615095   0298572678  
  8610.000000   0299439951   0299928833   0299827864   0299107025   0297910439  
  8600.000000   0296508206   0295202282   0294226700   0293711019   0293668583  
  8590.000000   0294050775   0294786880   0295818035   0297084606   0298506441  
  8580.000000   0299946166   0301222469   0302142186   0302576408   0302527697  
  8570.000000   0302134935   0301654900   0301347829   0301406839   0301859322  
  8560.000000   0302571483   0303293788   0303760529   0303801313   0303393479  
  8550.000000   0302687610   0301933766   0301412418   0301325012   0301751323  
  8540.000000   0302629262   0303791698   0305024255   0306116957   0306912344  
  8530.000000   0307318854   0307319200   0306962680   0306357465   0305649879  
  8520.000000   0305009727   0304586831   0304493991   0304756912   0305318974  
  8510.000000   0306041594   0306751908   0307291012   0307563354   0307569227  
  8500.000000   0307407847   0307243801   0307261930   0307606635   0308344139  
  8490.000000   0309439112   0310764432   0312144014   0313402910   0314425500  
  8480.000000   0315179648   0315726689   0316183582   0316683019   0317305090  
  8470.000000   0318048652   0318813414   0319441162   0319769775   0319698190  
  8460.000000   0319227968   0318468935   0317603347   0316824945   0316265522  
  8450.000000   0315956709   0315821855   0315723586   0315524375   0315153467  
  8440.000000   0314633741   0314081956   0313655753   0313504474   0313707607  
  8430.000000   0314260246   0315079114   0316034714   0316996355   0317853442  
  8420.000000   0318539951   0319020726   0319290762   0319357145   0319246381  
  8410.000000   0319004004   0318703625   0318432216   0318269580   0318265024  
  8400.000000   0318411697   0318658832   0318911863   0319090066   0319137456  
  8390.000000   0319064812   0318923836   0318795838   0318742641   0318777535  
  8380.000000   0318853242   0318872566   0318732447   0318350555   0317706190  
  8370.000000   0316840793   0315853712   0314870570   0314004594   0313340363  
  8360.000000   0312913589   0312730851   0312769718   0313001307   0313388874  
  8350.000000   0313892392   0314461493   0315028756   0315514503   0315830433  
  8340.000000   0315910711   0315719804   0315278609   0314650717   0313935965  
  8330.000000   0313245769   0312674530   0312288158   0312102487   0312100486  
  8320.000000   0312238117   0312469094   0312749987   0313036376   0313274839  
  8310.000000   0313392815   0313309875   0312949105   0312274265   0311310274  
  8300.000000   0310167279   0309026091   0308097193   0307567543   0307530002  
  8290.000000   0307970242   0308753239   0309685873   0310559654   0311223985  
  8280.000000   0311606629   0311718269   0311611652   0311342792   0310935555  
  8270.000000   0310376081   0309636366   0308706097   0307628167   0306495527  
  8260.000000   0305429684   0304536260   0303860402   0303374611   0302979054  
  8250.000000   0302551084   0301985920   0301246689   0300374709   0299474306  
  8240.000000   0298670675   0298067130   0297713261   0297599868   0297669001  
  8230.000000   0297842788   0298044983   0298220068   0298332476   0298365353  
  8220.000000   0298307269   0298149668   0297884824   0297506678   0297021397  
  8210.000000   0296433836   0295758956   0294999085   0294158464   0293234600  
  8200.000000   0292231795   0291169351   0290081150   0289026602   0288073845  
  8190.000000   0287303973   0286784972   0286568548   0286663731   0287034285  
  8180.000000   0287589677   0288199736   0288717400   0289007575   0288983703  
  8170.000000   0288624649   0287984855   0287172525   0286317149   0285529216  
  8160.000000   0284871387   0284349932   0283927583   0283547200   0283157599  
  8150.000000   0282729321   0282250142   0281718132   0281116458   0280420540  
  8140.000000   0279598597   0278647229   0277606669   0276571552   0275671103  
  8130.000000   0275027855   0274716090   0274724457   0274954977   0275243045  
  8120.000000   0275409079   0275308039   0274873430   0274129103   0273177016  
  8110.000000   0272161192   0271226966   0270487120   0270003330   0269781432  
  8100.000000   0269781155   0269925344   0270118201   0270255608   0270243660  
  8090.000000   0270013621   0269536408   0268831539   0267962772   0267025424  
  8080.000000   0266124851   0265352874   0264771312   0264403425   0264234205  
  8070.000000   0264222812   0264306556   0264418651   0264486457   0264446728  
  8060.000000   0264249506   0263869428   0263317762   0262635368   0261895246  
  8050.000000   0261169485   0260520036   0259968674   0259501174   0259074491  
  8040.000000   0258640192   0258174220   0257685802   0257226262   0256862739  
  8030.000000   0256659739   0256647028   0256807706   0257079290   0257366704  
  8020.000000   0257573375   0257616953   0257455939   0257085850   0256544340  
  8010.000000   0255894083   0255212607   0254576155   0254045410   0253657603  
  8000.000000   0253419562   0253311097   0253291297   0253309849   0253319126  
  7990.000000   0253281862   0253176071   0252990337   0252723834   0252377584  
  7980.000000   0251963773   0251501127   0251028727   0250597252   0250266860  
  7970.000000   0250089248   0250089977   0250261177   0250555453   0250906951  
  7960.000000   0251244623   0251519246   0251709766   0251822913   0251880878  
  7950.000000   0251899105   0251880491   0251803462   0251642062   0251369572  
  7940.000000   0250983751   0250503033   0249970899   0249438800   0248956850  
  7930.000000   0248563888   0248283805   0248130820   0248108139   0248214549  
  7920.000000   0248435533   0248747634   0249111410   0249485196   0249829079  
  7910.000000   0250123039   0250366890   0250580080   0250785823   0250994551  
  7900.000000   0251194695   0251347427   0251404586   0251318772   0251068257  
  7890.000000   0250657495   0250119744   0249500932   0248846833   0248195033  
  7880.000000   0247571360   0247002669   0246517912   0246159773   0245967515  
  7870.000000   0245972892   0246173750   0246535376   0246987518   0247446763  
  7860.000000   0247837226   0248108814   0248247884   0248265680   0248189775  
  7850.000000   0248040118   0247829399   0247556987   0247228537   0246860063  
  7840.000000   0246486096   0246150954   0245888534   0245714111   0245604305  
  7830.000000   0245518821   0245405249   0245237384   0245020462   0244799423  
  7820.000000   0244633761   0244571012   0244616279   0244720562   0244792786  
  7810.000000   0244727420   0244449888   0243940583   0243253290   0242491964  
  7800.000000   0241778891   0241211562   0240829727   0240613733   0240496389  
  7790.000000   0240405172   0240289736   0240148329   0240016121   0239948475  
  7780.000000   0239980033   0240106766   0240275295   0240400524   0240400624  
  7770.000000   0240219726   0239858637   0239357694   0238789411   0238217806  
  7760.000000   0237682460   0237186699   0236709736   0236230237   0235748356  
  7750.000000   0235298553   0234940961   0234741779   0234740536   0234934718  
  7740.000000   0235267353   0235649943   0235982380   0236189941   0236239906  
  7730.000000   0236148143   0235968110   0235764499   0235594165   0235480410  
  7720.000000   0235414908   0235354152   0235241302   0235016800   0234637939  
  7710.000000   0234091268   0233395691   0232609788   0231815116   0231112846  
  7700.000000   0230593306   0230324049   0230323617   0230558377   0230942330  
  7690.000000   0231356789   0231677258   0231803119   0231684137   0231326983  
  7680.000000   0230794018   0230175639   0229571163   0229054417   0228668499  
  7670.000000   0228413861   0228265932   0228182367   0228122291   0228055038  
  7660.000000   0227963625   0227848333   0227716726   0227586475   0227474086  
  7650.000000   0227398420   0227373440   0227408685   0227505127   0227652743  
  7640.000000   0227830241   0228005437   0228140946   0228198966   0228150083  
  7630.000000   0227977097   0227679913   0227273219   0226784133   0226247569  
  7620.000000   0225700070   0225178842   0224714099   0224332268   0224047316  
  7610.000000   0223864909   0223775157   0223756557   0223776318   0223795243  
  7600.000000   0223777319   0223691894   0223524838   0223273443   0222953309  
  7590.000000   0222588066   0222213008   0221863961   0221579630   0221391350  
  7580.000000   0221323514   0221384343   0221564542   0221833294   0222142287  
  7570.000000   0222432197   0222648631   0222753020   0222740467   0222634201  
  7560.000000   0222487841   0222358757   0222299624   0222333801   0222456581  
  7550.000000   0222633681   0222820855   0222979363   0223095837   0223184200  
  7540.000000   0223283301   0223436865   0223679132   0224015587   0224422375  
  7530.000000   0224848470   0225237628   0225544285   0225754928   0225890646  
  7520.000000   0226002559   0226156534   0226408544   0226790353   0227292107  
  7510.000000   0227871625   0228463569   0229003106   0229442665   0229762201  
  7500.000000   0229969802   0230089499   0230148238   0230160301   0230126629  
  7490.000000   0230034975   0229880243   0229668845   0229435272   0229229607  
  7480.000000   0229110669   0229122944   0229282157   0229572800   0229953203  
  7470.000000   0230378426   0230816122   0231262395   0231741631   0232291632  
  7460.000000   0232946893   0233712194   0234560654   0235427111   0236235222  
  7450.000000   0236908234   0237400666   0237697742   0237827533   0237844460  
  7440.000000   0237824797   0237843469   0237963782   0238225491   0238639644  
  7430.000000   0239188710   0239826425   0240493599   0241130707   0241699761  
  7420.000000   0242193410   0242639434   0243088975   0243594339   0244187190  
  7410.000000   0244859929   0245570381   0246249910   0246837612   0247298631  
  7400.000000   0247647928   0247937048   0248238206   0248611125   0249083111  
  7390.000000   0249638785   0250230933   0250804166   0251322659   0251787480  
  7380.000000   0252235433   0252724246   0253304027   0254000333   0254799786  
  7370.000000   0255660552   0256525656   0257344445   0258087294   0258746055  
  7360.000000   0259331914   0259859319   0260342271   0260784757   0261187271  
  7350.000000   0261548198   0261872243   0262171008   0262461969   0262765737  
  7340.000000   0263100452   0263485859   0263938052   0264474623   0265103364  
  7330.000000   0265823880   0266615802   0267441519   0268248161   0268982991  
  7320.000000   0269610259   0270119242   0270529837   0270879820   0271216223  
  7310.000000   0271571958   0271958907   0272362613   0272755669   0273112351  
  7300.000000   0273422529   0273701975   0273983906   0274312980   0274720826  
  7290.000000   0275223529   0275809157   0276449830   0277106444   0277743841  
  7280.000000   0278337735   0278873619   0279346337   0279751140   0280087394  
  7270.000000   0280351955   0280549015   0280687219   0280789608   0280884660  
  7260.000000   0281007017   0281185982   0281444719   0281794347   0282236737  
  7250.000000   0282764920   0283369199   0284035361   0284750174   0285494351  
  7240.000000   0286251958   0287001844   0287733960   0288438011   0289121865  
  7230.000000   0289792568   0290472009   0291171411   0291906941   0292677742  
  7220.000000   0293486580   0294325471   0295195960   0296097017   0297038302  
  7210.000000   0298026410   0299072992   0300182357   0301361470   0302610048  
  7200.000000   0303932454   0305325913   0306790187   0308311508   0309873162  
  7190.000000   0311442165   0312989160   0314481768   0315909084   0317272502  
  7180.000000   0318598050   0319916008   0321259259   0322643393   0324071090  
  7170.000000   0325526158   0326993433   0328458337   0329926416   0331408905  
  7160.000000   0332926844   0334486316   0336082968   0337690368   0339283297  
  7150.000000   0340838510   0342364474   0343890186   0345475819   0347177145  
  7140.000000   0349038493   0351061489   0353215759   0355439416   0357675148  
  7130.000000   0359878493   0362047181   0364201778   0366390374   0368646317  
  7120.000000   0370989074   0373395081   0375823264   0378212764   0380524313  
  7110.000000   0382739648   0384885344   0387009803   0389179267   0391446901  
  7100.000000   0393845692   0396374421   0399007863   0401701422   0404413641  
  7090.000000   0407110367   0409778474   0412416234   0415032079   0417630950  
  7080.000000   0420213021   0422768585   0425288559   0427765805   0430210367  
  7070.000000   0432642808   0435096300   0437597925   0440160153   0442769744  
  7060.000000   0445390650   0447974233   0450477980   0452882265   0455201616  
  7050.000000   0457481089   0459781024   0462155538   0464631230   0467199986  
  7040.000000   0469822017   0472445547   0475024853   0477538517   0479988707  
  7030.000000   0482398095   0484788880   0487176626   0489556920   0491916564  
  7020.000000   0494236977   0496510476   0498739162   0500934886   0503104842  
  7010.000000   0505247379   0507344157   0509372539   0511310128   0513155743  
  7000.000000   0514925389   0516658837   0518395119   0520171625   0521999885  
  6990.000000   0523880057   0525790522   0527715019   0529632854   0531537122  
  6980.000000   0533414759   0535254287   0537030442   0538718173   0540291533  
  6970.000000   0541740759   0543069370   0544299197   0545455332   0546564337  
  6960.000000   0547639678   0548692760   0549726882   0550758302   0551802523  
  6950.000000   0552887592   0554025969   0555223314   0556456510   0557694876  
  6940.000000   0558897148   0560037494   0561103010   0562101396   0563045065  
  6930.000000   0563944169   0564794830   0565583293   0566292241   0566916647  
  6920.000000   0567468504   0567981981   0568497426   0569054153   0569669251  
  6910.000000   0570342952   0571054205   0571782523   0572508695   0573229533  
  6900.000000   0573945338   0574660781   0575368854   0576055990   0576700750  
  6890.000000   0577288671   0577817639   0578301677   0578764456   0579226981  
  6880.000000   0579697507   0580167082   0580611492   0581005601   0581329997  
  6870.000000   0581588552   0581801721   0582009354   0582250857   0582562444  
  6860.000000   0582962338   0583453374   0584016413   0584617328   0585206937  
  6850.000000   0585732319   0586144026   0586411324   0586530441   0586532476  
  6840.000000   0586476012   0586434808   0586473616   0586630233   0586902819  
  6830.000000   0587253880   0587624395   0587956337   0588209895   0588374861  
  6820.000000   0588465142   0588511267   0588543109   0588584738   0588648721  
  6810.000000   0588744125   0588879091   0589065400   0589312255   0589621492  
  6800.000000   0589978685   0590355152   0590710215   0591005828   0591213833  
  6790.000000   0591326094   0591351302   0591311113   0591230303   0591132131  
  6780.000000   0591034180   0590952082   0590896829   0590878993   0590899191  
  6770.000000   0590950993   0591013184   0591060870   0591067704   0591020867  
  6760.000000   0590921754   0590788469   0590645052   0590511718   0590395612  
  6750.000000   0590289088   0590176161   0590042708   0589885005   0589714087  
  6740.000000   0589549289   0589411822   0589312191   0589249612   0589210545  
  6730.000000   0589179733   0589144446   0589101485   0589052938   0589002130  
  6720.000000   0588946655   0588876842   0588779223   0588643095   0588467139  
  6710.000000   0588260771   0588039844   0587819901   0587607517   0587401224  
  6700.000000   0587191122   0586972136   0586744613   0586523541   0586326467  
  6690.000000   0586171842   0586062167   0585986770   0585916762   0585820600  
  6680.000000   0585667418   0585441575   0585139325   0584771390   0584352547  
  6670.000000   0583900334   0583427310   0582944971   0582458678   0581973643  
  6660.000000   0581487391   0580996261   0580489144   0579959104   0579400691  
  6650.000000   0578822327   0578238271   0577671135   0577136296   0576639211  
  6640.000000   0576167661   0575698325   0575203935   0574665968   0574079881  
  6630.000000   0573457716   0572818883   0572183619   0571562786   0570958669  
  6620.000000   0570367110   0569786098   0569218423   0568672947   0568155099  
  6610.000000   0567662735   0567177266   0566672491   0566119672   0565506380  
  6600.000000   0564839819   0564150633   0563477300   0562852473   0562285479  
  6590.000000   0561758779   0561232935   0560662848   0560014348   0559276206  
  6580.000000   0558461488   0557600042   0556725787   0555866603   0555038949  
  6570.000000   0554250591   0553504808   0552805733   0552157656   0551562550  
  6560.000000   0551014593   0550499474   0549996424   0549486134   0548957412  
  6550.000000   0548410868   0547857264   0547308882   0546773869   0546248741  
  6540.000000   0545723022   0545182524   0544619890   0544036910   0543445160  
  6530.000000   0542858559   0542286628   0541728932   0541176321   0540616106  
  6520.000000   0540040244   0539449920   0538856224   0538274502   0537717332  
  6510.000000   0537188993   0536684066   0536192431   0535704563   0535218424  
  6500.000000   0534739119   0534277045   0533839908   0533429017   0533035010  
  6490.000000   0532642494   0532233235   0531793903   0531318474   0530808682  
  6480.000000   0530271772   0529715372   0529145901   0528565760   0527974949  
  6470.000000   0527371737   0526754569   0526123516   0525481408   0524835441  
  6460.000000   0524197508   0523584091   0523013196   0522499871   0522051097  
  6450.000000   0521660970   0521312077   0520977292   0520630519   0520251415  
  6440.000000   0519835230   0519389220   0518933483   0518488279   0518072814  
  6430.000000   0517694541   0517355038   0517046271   0516760104   0516485892  
  6420.000000   0516216561   0515944705   0515666858   0515381384   0515093588  
  6410.000000   0514813333   0514556249   0514336083   0514161623   0514028949  
  6400.000000   0513924093   0513824345   0513709718   0513567816   0513401023  
  6390.000000   0513221725   0513047967   0512892104   0512757276   0512634062  
  6380.000000   0512508091   0512365622   0512202615   0512025852   0511850129  
  6370.000000   0511691768   0511559573   0511454245   0511366145   0511284942  
  6360.000000   0511201061   0511113324   0511024001   0510937799   0510853348  
  6350.000000   0510763405   0510652696   0510505415   0510307340   0510053155  
  6340.000000   0509744787   0509392832   0509010707   0508614704   0508217956  
  6330.000000   0507833526   0507467767   0507125264   0506801283   0506488639  
  6320.000000   0506173484   0505846090   0505499186   0505136772   0504766538  
  6310.000000   0504401461   0504047172   0503702669   0503354556   0502986493  
  6300.000000   0502582936   0502140214   0501664432   0501172259   0500677600  
  6290.000000   0500189010   0499699687   0499196325   0498660471   0498084301  
  6280.000000   0497469567   0496833574   0496195447   0495573322   0494970647  
  6270.000000   0494380915   0493786564   0493172564   0492528508   0491856027  
  6260.000000   0491161763   0490455611   0489741763   0489020717   0488289024  
  6250.000000   0487547596   0486802480   0486067052   0485353907   0484670669  
  6240.000000   0484012585   0483365845   0482711429   0482035909   0481336696  
  6230.000000   0480623948   0479915096   0479225243   0478560368   0477912497  
  6220.000000   0477265602   0476601310   0475910635   0475195876   0474472653  
  6210.000000   0473760599   0473078147   0472434052   0471828253   0471253445  
  6200.000000   0470702079   0470168914   0469653894   0469157993   0468682469  
  6190.000000   0468223906   0467777091   0467334523   0466891823   0466446296  
  6180.000000   0465998980   0465549529   0465097558   0464639812   0464174697  
  6170.000000   0463703131   0463230866   0462767134   0462320138   0461894134  
  6160.000000   0461484886   0461083057   0460675678   0460254650   0459817400  
  6150.000000   0459370004   0458920570   0458475647   0458034243   0457587756  
  6140.000000   0457123369   0456629092   0456099792   0455537816   0454952633  
  6130.000000   0454355088   0453755167   0453158901   0452571656   0451999413  
  6120.000000   0451452507   0450942631   0450481102   0450071320   0449708993  
  6110.000000   0449379316   0449066321   0448754392   0448439372   0448123343  
  6100.000000   0447818530   0447533639   0447276441   0447043335   0446829813  
  6090.000000   0446626969   0446434578   0446254646   0446097990   0445970860  
  6080.000000   0445879207   0445817065   0445777526   0445746955   0445719758  
  6070.000000   0445690414   0445664386   0445644480   0445640295   0445654744  
  6060.000000   0445696947   0445771071   0445889551   0446058878   0446289334  
  6050.000000   0446577981   0446921021   0447301339   0447708016   0448127112  
  6040.000000   0448560643   0449011572   0449495551   0450019704   0450593636  
  6030.000000   0451212211   0451873776   0452568907   0453299564   0454064671  
  6020.000000   0454872431   0455721237   0456611040   0457528247   0458464040  
  6010.000000   0459404185   0460349180   0461299260   0462268257   0463261409  
  6000.000000   0464287906   0465341985   0466422524   0467520788   0468641409  
  5990.000000   0469788012   0470976509   0472215412   0473515273   0474872380  
  5980.000000   0476283785   0477737985   0479232954   0480764466   0482338617  
  5970.000000   0483953242   0485608252   0487288833   0488982601   0490669884  
  5960.000000   0492344533   0494002599   0495656325   0497316313   0498999369  
  5950.000000   0500711703   0502458353   0504235277   0506040550   0507870884  
  5940.000000   0509726718   0511608326   0513514500   0515441976   0517382965  
  5930.000000   0519331040   0521277947   0523220581   0525153525   0527072702  
  5920.000000   0528966782   0530821944   0532618181   0534338269   0535966303  
  5910.000000   0537496271   0538926226   0540263896   0541517265   0542702303  
  5900.000000   0543833468   0544934689   0546026541   0547136143   0548279029  
  5890.000000   0549467630   0550695138   0551949335   0553205873   0554445455  
  5880.000000   0555650412   0556814815   0557937546   0559022300   0560071999  
  5870.000000   0561087447   0562070540   0563024538   0563960026   0564890377  
  5860.000000   0565832212   0566795834   0567785340   0568795092   0569817601  
  5850.000000   0570846367   0571884169   0572940954   0574033648   0575175520  
  5840.000000   0576373583   0577621602   0578907061   0580212281   0581525833  
  5830.000000   0582841164   0584161123   0585488019   0586823657   0588160625  
  5820.000000   0589488959   0590795274   0592073039   0593321626   0594548038  
  5810.000000   0595762504   0596970549   0598177042   0599374828   0600566483  
  5800.000000   0601745533   0602927961   0604116266   0605331488   0606565547  
  5790.000000   0607817623   0609050126   0610231937   0611302435   0612213879  
  5780.000000   0612900142   0613313664   0613400891   0613137688   0612512108  
  5770.000000   0611556452   0610324285   0608908551   0607401667   0605903695  
  5760.000000   0604478665   0603173801   0601991875   0600928709   0599958759  
  5750.000000   0599070708   0598249907   0597495032   0596799473   0596155591  
  5740.000000   0595550402   0594967089   0594395993   0593828267   0593269438  
  5730.000000   0592721539   0592195117   0591689671   0591208570   0590746765  
  5720.000000   0590306222   0589886242   0589492106   0589123626   0588780434  
  5710.000000   0588454577   0588139715   0587829613   0587526620   0587237924  
  5700.000000   0586974955   0586745928   0586550799   0586381534   0586221320  
  5690.000000   0586057075   0585877090   0585684579   0585483160   0585284632  
  5680.000000   0585087930   0584889288   0584667862   0584403172   0584066987  
  5670.000000   0583640024   0583101774   0582441617   0581648085   0580720556  
  5660.000000   0579663045   0578497581   0577255603   0575983682   0574725069  
  5650.000000   0573518742   0572381858   0571316756   0570307277   0569336052  
  5640.000000   0568387235   0567457576   0566551735   0565678956   0564846340  
  5630.000000   0564052613   0563292865   0562556713   0561840950   0561143423  
  5620.000000   0560471247   0559826467   0559211807   0558618871   0558040242  
  5610.000000   0557465229   0556893386   0556328054   0555781041   0555259963  
  5600.000000   0554769295   0554302602   0553851041   0553404510   0552962072  
  5590.000000   0552529753   0552121040   0551746144   0551408296   0551097375  
  5580.000000   0550795452   0550481524   0550141854   0549773636   0549385675  
  5570.000000   0548992514   0548607299   0548236789   0547879632   0547530470  
  5560.000000   0547183127   0546835455   0546487229   0546139001   0545786399  
  5550.000000   0545420722   0545029388   0544603190   0544139975   0543648564  
  5540.000000   0543144841   0542646426   0542164686   0541701718   0541250064  
  5530.000000   0540799705   0540342100   0539877552   0539411642   0538955138  
  5520.000000   0538514995   0538094238   0537688636   0537292305   0536898696  
  5510.000000   0536504670   0536107146   0535702290   0535280906   0534831415  
  5500.000000   0534341407   0533807208   0533235113   0532645792   0532063480  
  5490.000000   0531510716   0530994219   0530506241   0530023624   0529521569  
  5480.000000   0528978802   0528388994   0527756177   0527094392   0526415504  
  5470.000000   0525728170   0525033566   0524332197   0523626018   0522922529  
  5460.000000   0522230808   0521556995   0520898288   0520242221   0519570706  
  5450.000000   0518868270   0518130636   0517368577   0516606106   0515869987  
  5440.000000   0515181934   0514548637   0513966820   0513423379   0512909325  
  5430.000000   0512417100   0511947617   0511496571   0511058955   0510617808  
  5420.000000   0510161396   0509679036   0509183910   0508699675   0508269764  
  5410.000000   0507925534   0507688696   0507546200   0507473654   0507430408  
  5400.000000   0507395469   0507358282   0507341562   0507371322   0507484922  
  5390.000000   0507694235   0508003388   0508388086   0508832848   0509315583  
  5380.000000   0509843004   0510418580   0511067337   0511792184   0512604174  
  5370.000000   0513484403   0514430300   0515420254   0516465168   0517560780  
  5360.000000   0518737279   0519999718   0521383154   0522890060   0524554512  
  5350.000000   0526375460   0528384695   0530572077   0532958452   0535516496  
  5340.000000   0538257175   0541150044   0544219663   0547453037   0550893532  
  5330.000000   0554534329   0558414485   0562510407   0566844396   0571382626  
  5320.000000   0576155079   0581145254   0586408733   0591944773   0597816170  
  5310.000000   0604010207   0610568706   0617454879   0624694627   0632249394  
  5300.000000   0640153648   0648386131   0656998363   0665981818   0675388795  
  5290.000000   0685200034   0695440786   0706058265   0717036217   0728294755  
  5280.000000   0739806764   0751512745   0763424423   0775534967   0787895451  
  5270.000000   0800517868   0813425121   0826578416   0839924207   0853375222  
  5260.000000   0866855588   0880312089   0893724238   0907103691   0920458284  
  5250.000000   0933793761   0947064419   0960218678   0973156133   0985821383  
  5240.000000   0998143542   1010137452   1021799469   1033198700   1044347677  
  5230.000000   1055299489   1066021418   1076512854   1086694058   1096545137  
  5220.000000   1105997125   1115071647   1123752770   1132113582   1140169078  
  5210.000000   1147994132   1155573907   1162931851   1169998117   1176761392  
  5200.000000   1183149253   1189182623   1194838787   1200183791   1205218971  
  5190.000000   1210002264   1214506543   1218751294   1222684168   1226319662  
  5180.000000   1229623632   1232638471   1235355696   1237826274   1240035523  
  5170.000000   1242015512   1243736761   1245223995   1246454679   1247464854  
  5160.000000   1248243465   1248827795   1249201216   1249389600   1249370821  
  5150.000000   1249170397   1248775691   1248219121   1247492777   1246621155  
  5140.000000   1245586113   1244399468   1243042216   1241533114   1239871007  
  5130.000000   1238089115   1236196051   1234220598   1232161506   1230033698  
  5120.000000   1227830971   1225570782   1223259629   1220925277   1218579500  
  5110.000000   1216241069   1213906322   1211573985   1209228752   1206866354  
  5100.000000   1204480914   1202080588   1199671390   1197264735   1194863496  
  5090.000000   1192471606   1190086496   1187711297   1185346610   1182999273  
  5080.000000   1180669488   1178357983   1176054417   1173749564   1171428196  
  5070.000000   1169083656   1166708663   1164305449   1161871484   1159407431  
  5060.000000   1156904298   1154356924   1151755764   1149103413   1146403440  
  5050.000000   1143672133   1140920622   1138163144   1135399846   1132629632  
  5040.000000   1129840328   1127025371   1124176820   1121297280   1118390365  
  5030.000000   1115465410   1112528678   1109586440   1106642035   1103699167  
  5020.000000   1100763078   1097840021   1094939316   1092067645   1089233478  
  5010.000000   1086439103   1083689845   1080984528   1078328501   1075719813  
  5000.000000   1073165104   1070660771   1068213764   1065819365   1063487426  
  4990.000000   1061216105   1059020454   1056900623   1054871830   1052929359  
  4980.000000   1051083250   1049323411   1047659994   1046086636   1044621836  
  4970.000000   1043265814   1042040261   1040940342   1039977781   1039133972  
  4960.000000   1038411149   1037786879   1037269546   1036847695   1036543177  
  4950.000000   1036352744   1036300029   1036375249   1036592627   1036933060  
  4940.000000   1037407819   1038000574   1038730966   1039591063   1040605480  
  4930.000000   1041765407   1043088987   1044559440   1046188154   1047957275  
  4920.000000   1049881524   1051950852   1054186053   1056581040   1059152452  
  4910.000000   1061886635   1064785986   1067824998   1070993185   1074260463  
  4900.000000   1077613103   1081027322   1084494122   1088000780   1091542144  
  4890.000000   1095111104   1098697339   1102289266   1105863637   1109400906  
  4880.000000   1112867205   1116241255   1119486866   1122587674   1125510001  
  4870.000000   1128244264   1130761765   1133062710   1135129152   1136976165  
  4860.000000   1138599556   1140026181   1141257625   1142320701   1143212936  
  4850.000000   1143955892   1144545434   1145004665   1145336200   1145568936  
  4840.000000   1145711698   1145792902   1145820605   1145817245   1145789758  
  4830.000000   1145757444   1145729420   1145721638   1145739853   1145788217  
  4820.000000   1145861818   1145952644   1146053240   1146159089   1146276682  
  4810.000000   1146416323   1146598308   1146836998   1147148172   1147532870  
  4800.000000   1147991549   1148512453   1149090103   1149713704   1150382748  
  4790.000000   1151092130   1151844143   1152633558   1153460025   1154316396  
  4780.000000   1155201926   1156111443   1157045691   1157999723   1158970644  
  4770.000000   1159948754   1160925797   1161891343   1162840314   1163770819  
  4760.000000   1164686171   1165591476   1166490632   1167385468   1168272592  
  4750.000000   1169148721   1170008224   1170851143   1171677283   1172492019  
  4740.000000   1173296533   1174092521   1174873730   1175633186   1176359139  
  4730.000000   1177043122   1177677983   1178262466   1178799414   1179295305  
  4720.000000   1179760059   1180203553   1180638923   1181076078   1181527615  
  4710.000000   1181999709   1182500943   1183032441   1183599790   1184204505  
  4700.000000   1184856856   1185566245   1186350215   1187222244   1188197688  
  4690.000000   1189280933   1190473195   1191762447   1193136241   1194571546  
  4680.000000   1196049968   1197544529   1199036554   1200499216   1201917296  
  4670.000000   1203271040   1204559019   1205780994   1206957041   1208107382  
  4660.000000   1209264539   1210453995   1211701795   1213022552   1214425944  
  4650.000000   1215913845   1217484255   1219133108   1220852360   1222633676  
  4640.000000   1224462285   1226324250   1228199241   1230071643   1231921730  
  4630.000000   1233737758   1235503696   1237211494   1238845776   1240398004  
  4620.000000   1241849768   1243191478   1244404485   1245483719   1246416146  
  4610.000000   1247206844   1247852804   1248372234   1248772960   1249084353  
  4600.000000   1249320663   1249514195   1249675103   1249825944   1249961768  
  4590.000000   1250087015   1250179431   1250229148   1250207401   1250104074  
  4580.000000   1249898976   1249593776   1249184010   1248684006   1248099607  
  4570.000000   1247448679   1246736468   1245975199   1245163402   1244306577  
  4560.000000   1243400060   1242449333   1241453678   1240423570   1239363647  
  4550.000000   1238286452   1237196388   1236101651   1235002511   1233902558  
  4540.000000   1232801791   1231704905   1230616632   1229543813   1228492484  
  4530.000000   1227463976   1226458054   1225465412   1224480863   1223491243  
  4520.000000   1222497466   1221493275   1220493171   1219499635   1218537984  
  4510.000000   1217614235   1216760175   1215983297   1215321719   1214784327  
  4500.000000   1214413084   1214212962   1214222526   1214437142   1214890518  
  4490.000000   1215572926   1216521442   1217729614   1219240931   1221048545  
  4480.000000   1223191751   1225651646   1228453976   1231566684   1235006896  
  4470.000000   1238739656   1242781701   1247100137   1251709706   1256575523  
  4460.000000   1261705144   1267060309   1272642500   1278414026   1284372360  
  4450.000000   1290480622   1296729459   1303080963   1309519435   1316011442  
  4440.000000   1322542678   1329092278   1335650490   1342206355   1348746049  
  4430.000000   1355258193   1361717812   1368111986   1374410894   1380608670  
  4420.000000   1386678869   1392623253   1398413506   1404046343   1409480759  
  4410.000000   1414701444   1419659649   1424341728   1428712517   1432780419  
  4400.000000   1436538403   1440020440   1443241322   1446247714   1449063366  
  4390.000000   1451738736   1454302698   1456807880   1459284329   1461777827  
  4380.000000   1464306342   1466896045   1469546657   1472268633   1475056696  
  4370.000000   1477921539   1480864454   1483896657   1487014750   1490214379  
  4360.000000   1493471234   1496763567   1500050004   1503310673   1506500255  
  4350.000000   1509614294   1512607578   1515492033   1518230688   1520858443  
  4340.000000   1523359608   1525780225   1528090204   1530268922   1532177563  
  4330.000000   1533644866   1534399424   1534189010   1532782128   1530090783  
  4320.000000   1526169388   1521263937   1515734775   1510021885   1504522277  
  4310.000000   1499557296   1495295018   1491787769   1488969858   1486735365  
  4300.000000   1484963017   1483559520   1482469393   1481654836   1481108633  
  4290.000000   1480798601   1480718765   1480825046   1481115518   1481561314  
  4280.000000   1482176313   1482953681   1483904085   1485022650   1486300112  
  4270.000000   1487724376   1489266978   1490895025   1492538574   1494102765  
  4260.000000   1495442948   1496394091   1496777547   1496452725   1495337222  
  4250.000000   1493448038   1490887849   1487848046   1484548651   1481226098  
  4240.000000   1478061796   1475194346   1472672190   1470501635   1468627730  
  4230.000000   1466989568   1465510025   1464128404   1462795135   1461475564  
  4220.000000   1460160196   1458843464   1457554534   1456314010   1455177414  
  4210.000000   1454174848   1453357502   1452736167   1452329834   1452116083  
  4200.000000   1452081266   1452182323   1452396511   1452683161   1453030962  
  4190.000000   1453412826   1453834308   1454281663   1454773758   1455306118  
  4180.000000   1455906066   1456574762   1457343160   1458214223   1459218640  
  4170.000000   1460358539   1461662061   1463127219   1464775812   1466596584  
  4160.000000   1468601786   1470769783   1473106978   1475589454   1478228768  
  4150.000000   1481009216   1483953018   1487052092   1490332758   1493785033  
  4140.000000   1497430004   1501249404   1505256921   1509427852   1513772027  
  4130.000000   1518262896   1522909697   1527688357   1532611587   1537663569  
  4120.000000   1542865396   1548213948   1553740133   1559450961   1565379053  
  4110.000000   1571528647   1577918005   1584531617   1591359275   1598359162  
  4100.000000   1605496861   1612719727   1619992314   1627278330   1634564289  
  4090.000000   1641843322   1649121208   1656407004   1663706020   1671026092  
  4080.000000   1678359965   1685709306   1693054163   1700389550   1707680227  
  4070.000000   1714909247   1722024518   1729002803   1735790665   1742378937  
  4060.000000   1748730886   1754858840   1760737487   1766387097   1771781036  
  4050.000000   1776944013   1781854652   1786551850   1791022653   1795307655  
  4040.000000   1799378145   1803248276   1806858852   1810203942   1813222557  
  4030.000000   1815926280   1818283305   1820330736   1822058765   1823504904  
  4020.000000   1824647950   1825525561   1826143953   1826547918   1826729840  
  4010.000000   1826748212   1826629975   1826366468   1825846544   1825072148  
  4000.000000   1824165743  
##END= 
