##TITLE= Sample 002 By ssteindl date Montag, November 19 2018
##JCAMP-DX= 4.24
##DATA TYPE= INFRARED SPECTRUM
##ORIGIN= Exported PE Spectrum Data File
##OWNER= Sandra Steindl
##DATE= 18/11/19
##TIME= 17:16:34.00
##SPECTROMETER/DATA SYSTEM= PERKIN-ELMER Frontier FT-IR/NIR IR
##INSTRUMENT PARAMETERS=
  APODIZATION=stark
  DETECTOR=INGAAS
##RESOLUTION= 16.000000
##DELTAX= -2.000000
##XUNITS= 1/CM
##YUNITS= A
##XFACTOR= 1.00
##YFACTOR= 0.00000011920928955078
##FIRSTX= 10000.00
##LASTX= 4000.00
##NPOINTS= 3001
##FIRSTY= 0.203469
##MAXY= 0.601313
##MINY= 0.179387
##XYDATA= (X++(Y..Y))
 10000.000000   1706820   1707920   1708236   1706837   1703857  
  9990.000000   1700247   1696864   1694141   1692282   1691177  
  9980.000000   1690381   1689247   1687414   1684836   1681811  
  9970.000000   1678805   1676301   1674653   1673980   1674315  
  9960.000000   1675683   1678267   1682364   1688256   1695957  
  9950.000000   1705017   1714434   1722840   1728821   1731359  
  9940.000000   1730158   1725753   1719371   1712522   1706575  
  9930.000000   1702354   1699979   1698956   1698394   1697409  
  9920.000000   1695302   1691842   1687159   1681793   1676442  
  9910.000000   1671922   1668918   1667899   1668918   1671589  
  9900.000000   1675102   1678426   1680583   1680923   1679352  
  9890.000000   1676297   1672604   1669103   1666361   1664339  
  9880.000000   1662505   1660025   1656204   1650835   1644369  
  9870.000000   1637857   1632606   1629782   1630025   1633244  
  9860.000000   1638669   1645016   1650863   1654941   1656471  
  9850.000000   1655290   1651915   1647398   1643119   1640455  
  9840.000000   1640459   1643535   1649308   1656638   1663954  
  9830.000000   1669628   1672483   1672069   1668790   1663703  
  9820.000000   1658155   1653364   1650094   1648593   1648679  
  9810.000000   1650019   1652294   1655371   1659172   1663643  
  9800.000000   1668481   1673194   1677059   1679376   1679688  
  9790.000000   1677917   1674504   1670151   1665709   1661807  
  9780.000000   1658743   1656435   1654485   1652456   1649994  
  9770.000000   1647127   1644205   1641926   1641024   1642048  
  9760.000000   1645074   1649591   1654604   1658827   1661127  
  9750.000000   1660747   1657636   1652362   1646042   1639950  
  9740.000000   1635221   1632541   1632066   1633480   1636159  
  9730.000000   1639422   1642643   1645426   1647544   1649010  
  9720.000000   1649942   1650594   1651227   1652085   1653266  
  9710.000000   1654673   1655976   1656683   1656309   1654537  
  9700.000000   1651383   1647170   1642427   1637651   1633111  
  9690.000000   1628746   1624225   1619196   1613511   1607489  
  9680.000000   1601860   1597655   1595782   1596749   1600386  
  9670.000000   1605876   1611983   1617354   1620947   1622146  
  9660.000000   1620931   1617662   1612998   1607648   1602308  
  9650.000000   1597581   1593974   1591888   1591523   1592856  
  9640.000000   1595528   1598925   1602250   1604729   1605814  
  9630.000000   1605260   1603227   1600072   1596308   1592328  
  9620.000000   1588428   1584765   1581501   1578900   1577347  
  9610.000000   1577332   1579232   1583201   1588955   1595802  
  9600.000000   1602718   1608581   1612494   1613962   1613084  
  9590.000000   1610416   1606809   1603120   1599962   1597645  
  9580.000000   1596153   1595363   1595116   1595383   1596158  
  9570.000000   1597437   1599004   1600428   1601062   1600228  
  9560.000000   1597472   1592723   1586463   1579557   1573094  
  9550.000000   1568015   1564879   1563743   1564210   1565685  
  9540.000000   1567555   1569445   1571208   1572913   1574686  
  9530.000000   1576587   1578565   1580405   1581876   1582692  
  9520.000000   1582698   1581765   1579903   1577179   1573804  
  9510.000000   1570125   1566630   1563902   1562466   1562684  
  9500.000000   1564563   1567793   1571725   1575646   1578902  
  9490.000000   1581164   1582439   1583042   1583414   1583895  
  9480.000000   1584617   1585404   1585899   1585641   1584279  
  9470.000000   1581640   1577821   1573149   1568119   1563310  
  9460.000000   1559286   1556523   1555301   1555663   1557357  
  9450.000000   1559913   1562701   1565144   1566836   1567717  
  9440.000000   1568056   1568389   1569267   1571042   1573657  
  9430.000000   1576646   1579260   1580704   1580426   1578259  
  9420.000000   1574505   1569762   1564709   1559830   1555268  
  9410.000000   1550861   1546331   1541528   1536613   1532087  
  9400.000000   1528653   1526986   1527441   1529896   1533733  
  9390.000000   1538015   1541830   1544535   1546003   1546503  
  9380.000000   1546619   1546914   1547815   1549430   1551634  
  9370.000000   1554120   1556595   1558846   1560772   1562355  
  9360.000000   1563572   1564439   1564967   1565284   1565552  
  9350.000000   1566006   1566769   1567847   1569006   1569893  
  9340.000000   1570111   1569418   1567830   1565625   1563211  
  9330.000000   1560891   1558707   1556384   1553495   1549677  
  9320.000000   1544905   1539596   1534577   1530838   1529159  
  9310.000000   1529860   1532616   1536649   1540971   1544758  
  9300.000000   1547587   1549492   1550860   1552124   1553534  
  9290.000000   1554979   1556085   1556339   1555394   1553168  
  9280.000000   1549972   1546356   1542955   1540275   1538520  
  9270.000000   1537659   1537403   1537452   1537515   1537525  
  9260.000000   1537586   1537951   1538867   1540443   1542607  
  9250.000000   1544994   1547064   1548107   1547545   1545041  
  9240.000000   1540721   1535130   1529174   1523933   1520422  
  9230.000000   1519356   1520927   1524816   1530246   1536249  
  9220.000000   1541824   1546170   1548795   1549636   1549037  
  9210.000000   1547599   1545994   1544760   1544200   1544288  
  9200.000000   1544715   1545010   1544724   1543614   1541682  
  9190.000000   1539196   1536507   1533952   1531676   1529634  
  9180.000000   1527653   1525559   1523331   1521124   1519227  
  9170.000000   1517926   1517350   1517430   1517910   1518487  
  9160.000000   1518935   1519229   1519527   1520049   1520921  
  9150.000000   1522051   1523175   1523901   1523937   1523146  
  9140.000000   1521683   1519831   1517927   1516144   1514482  
  9130.000000   1512826   1511075   1509312   1507798   1507003  
  9120.000000   1507379   1509234   1512519   1516875   1521699  
  9110.000000   1526326   1530164   1532775   1533941   1533599  
  9100.000000   1531864   1528951   1525238   1521205   1517420  
  9090.000000   1514383   1512402   1511505   1511423   1511725  
  9080.000000   1511938   1511799   1511298   1510706   1510389  
  9070.000000   1510667   1511681   1513336   1515370   1517461  
  9060.000000   1519371   1520971   1522244   1523197   1523829  
  9050.000000   1524082   1523914   1523325   1522432   1521420  
  9040.000000   1520465   1519648   1518900   1518081   1517050  
  9030.000000   1515843   1514672   1513938   1514042   1515210  
  9020.000000   1517337   1519959   1522407   1523974   1524193  
  9010.000000   1522944   1520532   1517502   1514473   1511962  
  9000.000000   1510309   1509663   1510004   1511252   1513277  
  8990.000000   1515932   1518962   1522063   1524878   1527094  
  8980.000000   1528490   1529002   1528745   1527914   1526731  
  8970.000000   1525333   1523789   1522095   1520228   1518227  
  8960.000000   1516203   1514355   1512870   1511908   1511522  
  8950.000000   1511663   1512159   1512764   1513204   1513218  
  8940.000000   1512641   1511428   1509725   1507831   1506146  
  8930.000000   1505052   1504806   1505450   1506793   1508473  
  8920.000000   1510089   1511331   1512075   1512362   1512351  
  8910.000000   1512170   1511882   1511409   1510665   1509583  
  8900.000000   1508280   1506995   1506059   1505753   1506208  
  8890.000000   1507370   1509018   1510933   1512981   1515209  
  8880.000000   1517763   1520802   1524345   1528185   1531894  
  8870.000000   1534937   1536866   1537450   1536768   1535147  
  8860.000000   1533061   1530952   1529111   1527643   1526496  
  8850.000000   1525568   1524752   1524020   1523374   1522873  
  8840.000000   1522537   1522394   1522449   1522732   1523295  
  8830.000000   1524169   1525354   1526725   1528079   1529127  
  8820.000000   1529625   1529427   1528584   1527324   1526017  
  8810.000000   1525052   1524740   1525232   1526493   1528336  
  8800.000000   1530476   1532621   1534525   1536039   1537113  
  8790.000000   1537792   1538192   1538461   1538756   1539181  
  8780.000000   1539791   1540541   1541340   1542056   1542585  
  8770.000000   1542882   1542988   1543031   1543181   1543616  
  8760.000000   1544454   1545737   1547411   1549356   1551414  
  8750.000000   1553430   1555283   1556898   1558253   1559363  
  8740.000000   1560271   1561021   1561659   1562217   1562730  
  8730.000000   1563231   1563753   1564335   1564996   1565747  
  8720.000000   1566569   1567438   1568323   1569209   1570102  
  8710.000000   1571016   1571963   1572928   1573857   1574669  
  8700.000000   1575275   1575637   1575796   1575900   1576164  
  8690.000000   1576819   1578030   1579825   1582070   1584476  
  8680.000000   1586683   1588323   1589149   1589063   1588179  
  8670.000000   1586749   1585135   1583710   1582815   1582693  
  8660.000000   1583462   1585102   1587472   1590348   1593463  
  8650.000000   1596571   1599470   1602056   1604314   1606309  
  8640.000000   1608142   1609898   1611640   1613364   1615037  
  8630.000000   1616591   1617960   1619092   1619955   1620561  
  8620.000000   1620945   1621181   1621357   1621574   1621920  
  8610.000000   1622448   1623161   1624004   1624890   1625729  
  8600.000000   1626460   1627080   1627649   1628275   1629085  
  8590.000000   1630196   1631692   1633610   1635939   1638615  
  8580.000000   1641521   1644480   1647277   1649679   1651501  
  8570.000000   1652650   1653157   1653189   1653007   1652904  
  8560.000000   1653108   1653741   1654780   1656105   1657529  
  8550.000000   1658884   1660044   1660948   1661573   1661919  
  8540.000000   1662007   1661869   1661579   1661241   1661006  
  8530.000000   1661012   1661362   1662075   1663108   1664375  
  8520.000000   1665798   1667357   1669082   1671037   1673253  
  8510.000000   1675680   1678174   1680530   1682562   1684169  
  8500.000000   1685390   1686375   1687329   1688400   1689619  
  8490.000000   1690868   1691938   1692608   1692748   1692383  
  8480.000000   1691699   1690988   1690547   1690606   1691273  
  8470.000000   1692530   1694251   1696254   1698348   1700364  
  8460.000000   1702180   1703726   1705000   1706067   1707045  
  8450.000000   1708078   1709293   1710750   1712415   1714164  
  8440.000000   1715808   1717180   1718163   1718766   1719085  
  8430.000000   1719292   1719545   1719947   1720502   1721110  
  8420.000000   1721601   1721786   1721523   1720749   1719499  
  8410.000000   1717918   1716223   1714687   1713554   1713015  
  8400.000000   1713145   1713908   1715145   1716628   1718112  
  8390.000000   1719392   1720348   1720935   1721179   1721126  
  8380.000000   1720836   1720342   1719693   1718940   1718180  
  8370.000000   1717534   1717122   1717037   1717293   1717851  
  8360.000000   1718603   1719444   1720278   1721065   1721784  
  8350.000000   1722429   1722959   1723303   1723370   1723092  
  8340.000000   1722473   1721597   1720613   1719686   1718928  
  8330.000000   1718351   1717852   1717269   1716438   1715286  
  8320.000000   1713863   1712344   1710976   1709995   1709533  
  8310.000000   1709573   1709950   1710412   1710701   1710641  
  8300.000000   1710180   1709415   1708549   1707823   1707431  
  8290.000000   1707457   1707859   1708477   1709095   1709479  
  8280.000000   1709449   1708912   1707877   1706444   1704762  
  8270.000000   1703007   1701337   1699901   1698812   1698149  
  8260.000000   1697927   1698099   1698536   1699053   1699415  
  8250.000000   1699400   1698854   1697730   1696117   1694191  
  8240.000000   1692189   1690320   1688724   1687453   1686469  
  8230.000000   1685707   1685103   1684651   1684375   1684328  
  8220.000000   1684514   1684883   1685289   1685536   1685416  
  8210.000000   1684764   1683523   1681746   1679594   1677280  
  8200.000000   1675011   1672946   1671152   1669622   1668278  
  8190.000000   1667025   1665776   1664486   1663141   1661760  
  8180.000000   1660359   1658951   1657528   1656086   1654623  
  8170.000000   1653171   1651793   1650564   1649551   1648767  
  8160.000000   1648158   1647590   1646899   1645909   1644515  
  8150.000000   1642686   1640503   1638115   1635713   1633482  
  8140.000000   1631569   1630083   1629083   1628609   1628655  
  8130.000000   1629177   1630061   1631127   1632141   1632848  
  8120.000000   1633039   1632587   1631499   1629893   1627981  
  8110.000000   1625992   1624131   1622540   1621284   1620384  
  8100.000000   1619811   1619525   1619446   1619468   1619430  
  8090.000000   1619145   1618431   1617168   1615358   1613124  
  8080.000000   1610711   1608392   1606410   1604894   1603836  
  8070.000000   1603113   1602547   1601988   1601362   1600697  
  8060.000000   1600090   1599652   1599446   1599445   1599536  
  8050.000000   1599549   1599332   1598789   1597931   1596854  
  8040.000000   1595722   1594702   1593920   1593431   1593208  
  8030.000000   1593163   1593172   1593109   1592876   1592405  
  8020.000000   1591676   1590705   1589543   1588265   1586963  
  8010.000000   1585731   1584652   1583789   1583171   1582800  
  8000.000000   1582646   1582669   1582818   1583043   1583291  
  7990.000000   1583505   1583626   1583588   1583345   1582867  
  7980.000000   1582170   1581305   1580360   1579424   1578568  
  7970.000000   1577826   1577184   1576603   1576034   1575457  
  7960.000000   1574878   1574340   1573892   1573564   1573355  
  7950.000000   1573215   1573079   1572869   1572542   1572076  
  7940.000000   1571493   1570822   1570105   1569375   1568677  
  7930.000000   1568069   1567638   1567484   1567695   1568310  
  7920.000000   1569279   1570462   1571652   1572626   1573220  
  7910.000000   1573365   1573123   1572644   1572121   1571712  
  7900.000000   1571504   1571487   1571586   1571697   1571738  
  7890.000000   1571679   1571536   1571368   1571229   1571172  
  7880.000000   1571217   1571377   1571655   1572052   1572564  
  7870.000000   1573167   1573807   1574404   1574872   1575143  
  7860.000000   1575198   1575080   1574877   1574701   1574638  
  7850.000000   1574730   1574949   1575226   1575468   1575603  
  7840.000000   1575593   1575443   1575183   1574840   1574418  
  7830.000000   1573893   1573220   1572370   1571351   1570237  
  7820.000000   1569156   1568277   1567762   1567725   1568188  
  7810.000000   1569070   1570190   1571309   1572182   1572624  
  7800.000000   1572554   1572019   1571183   1570277   1569530  
  7790.000000   1569104   1569041   1569263   1569597   1569836  
  7780.000000   1569815   1569451   1568765   1567863   1566880  
  7770.000000   1565937   1565092   1564349   1563673   1563036  
  7760.000000   1562450   1561977   1561706   1561711   1562001  
  7750.000000   1562498   1563043   1563443   1563537   1563248  
  7740.000000   1562619   1561778   1560900   1560130   1559533  
  7730.000000   1559077   1558659   1558165   1557530   1556773  
  7720.000000   1556001   1555364   1554995   1554948   1555175  
  7710.000000   1555535   1555847   1555948   1555752   1555266  
  7700.000000   1554591   1553875   1553270   1552888   1552781  
  7690.000000   1552931   1553276   1553721   1554166   1554521  
  7680.000000   1554718   1554725   1554541   1554212   1553809  
  7670.000000   1553421   1553132   1552989   1552992   1553087  
  7660.000000   1553179   1553165   1552964   1552548   1551949  
  7650.000000   1551250   1550554   1549956   1549512   1549231  
  7640.000000   1549084   1549017   1548990   1548975   1548983  
  7630.000000   1549036   1549161   1549366   1549628   1549901  
  7620.000000   1550133   1550291   1550388   1550476   1550651  
  7610.000000   1551001   1551580   1552366   1553259   1554105  
  7600.000000   1554740   1555045   1554993   1554661   1554209  
  7590.000000   1553834   1553703   1553902   1554403   1555081  
  7580.000000   1555755   1556254   1556465   1556370   1556041  
  7570.000000   1555609   1555224   1554997   1554979   1555148  
  7560.000000   1555436   1555748   1556015   1556202   1556332  
  7550.000000   1556469   1556698   1557093   1557694   1558486  
  7540.000000   1559410   1560370   1561276   1562048   1562659  
  7530.000000   1563118   1563476   1563794   1564137   1564540  
  7520.000000   1565026   1565591   1566228   1566923   1567669  
  7510.000000   1568459   1569288   1570147   1571039   1571968  
  7500.000000   1572955   1574021   1575183   1576434   1577744  
  7490.000000   1579052   1580301   1581441   1582467   1583414  
  7480.000000   1584354   1585361   1586490   1587751   1589116  
  7470.000000   1590533   1591954   1593359   1594763   1596202  
  7460.000000   1597708   1599281   1600883   1602439   1603873  
  7450.000000   1605127   1606197   1607120   1607978   1608860  
  7440.000000   1609846   1610990   1612318   1613834   1615532  
  7430.000000   1617393   1619387   1621457   1623532   1625524  
  7420.000000   1627356   1628976   1630385   1631629   1632804  
  7410.000000   1634022   1635396   1637008   1638902   1641071  
  7400.000000   1643458   1645967   1648476   1650864   1653028  
  7390.000000   1654914   1656533   1657957   1659294   1660653  
  7380.000000   1662115   1663702   1665375   1667065   1668701  
  7370.000000   1670255   1671743   1673224   1674760   1676386  
  7360.000000   1678084   1679783   1681388   1682816   1684032  
  7350.000000   1685061   1685987   1686920   1687965   1689191  
  7340.000000   1690622   1692241   1694006   1695861   1697748  
  7330.000000   1699604   1701373   1703009   1704497   1705856  
  7320.000000   1707149   1708455   1709857   1711401   1713082  
  7310.000000   1714846   1716613   1718312   1719907   1721416  
  7300.000000   1722890   1724392   1725954   1727566   1729168  
  7290.000000   1730681   1732031   1733175   1734120   1734904  
  7280.000000   1735587   1736233   1736896   1737619   1738437  
  7270.000000   1739375   1740446   1741646   1742950   1744304  
  7260.000000   1745653   1746945   1748164   1749320   1750469  
  7250.000000   1751673   1752999   1754482   1756135   1757934  
  7240.000000   1759850   1761844   1763899   1765990   1768112  
  7230.000000   1770237   1772353   1774430   1776464   1778451  
  7220.000000   1780421   1782406   1784458   1786616   1788926  
  7210.000000   1791410   1794088   1796953   1799988   1803150  
  7200.000000   1806398   1809679   1812968   1816251   1819554  
  7190.000000   1822903   1826337   1829866   1833478   1837125  
  7180.000000   1840756   1844317   1847789   1851170   1854489  
  7170.000000   1857766   1861023   1864253   1867455   1870618  
  7160.000000   1873766   1876939   1880206   1883633   1887289  
  7150.000000   1891215   1895442   1899967   1904773   1909800  
  7140.000000   1914975   1920174   1925282   1930169   1934783  
  7130.000000   1939115   1943272   1947398   1951697   1956329  
  7120.000000   1961403   1966916   1972789   1978878   1985044  
  7110.000000   1991178   1997242   2003238   2009213   2015200  
  7100.000000   2021230   2027298   2033396   2039496   2045585  
  7090.000000   2051638   2057641   2063572   2069422   2075191  
  7080.000000   2080908   2086624   2092402   2098294   2104321  
  7070.000000   2110460   2116656   2122830   2128919   2134886  
  7060.000000   2140737   2146501   2152226   2157957   2163730  
  7050.000000   2169573   2175510   2181563   2187748   2194070  
  7040.000000   2200502   2206997   2213480   2219877   2226122  
  7030.000000   2232173   2238017   2243660   2249114   2254395  
  7020.000000   2259517   2264504   2269383   2274206   2279013  
  7010.000000   2283855   2288745   2293686   2298650   2303611  
  7000.000000   2308531   2313388   2318148   2322783   2327246  
  6990.000000   2331505   2335535   2339365   2343053   2346705  
  6980.000000   2350416   2354258   2358227   2362268   2366266  
  6970.000000   2370121   2373753   2377153   2380350   2383406  
  6960.000000   2386357   2389217   2391951   2394523   2396906  
  6950.000000   2399128   2401247   2403358   2405528   2407799  
  6940.000000   2410146   2412520   2414847   2417085   2419211  
  6930.000000   2421247   2423218   2425155   2427061   2428928  
  6920.000000   2430733   2432465   2434114   2435687   2437186  
  6910.000000   2438614   2439965   2441244   2442460   2443652  
  6900.000000   2444859   2446126   2447464   2448855   2450240  
  6890.000000   2451549   2452717   2453714   2454544   2455257  
  6880.000000   2455914   2456585   2457317   2458146   2459086  
  6870.000000   2460142   2461300   2462533   2463793   2465015  
  6860.000000   2466128   2467066   2467793   2468310   2468654  
  6850.000000   2468887   2469079   2469290   2469562   2469923  
  6840.000000   2470382   2470956   2471642   2472443   2473336  
  6830.000000   2474288   2475240   2476133   2476906   2477514  
  6820.000000   2477925   2478127   2478121   2477926   2477580  
  6810.000000   2477139   2476675   2476269   2475980   2475846  
  6800.000000   2475856   2475970   2476122   2476261   2476346  
  6790.000000   2476372   2476348   2476288   2476191   2476039  
  6780.000000   2475811   2475495   2475113   2474713   2474364  
  6770.000000   2474126   2474023   2474034   2474100   2474149  
  6760.000000   2474122   2473999   2473800   2473568   2473352  
  6750.000000   2473182   2473063   2472981   2472916   2472855  
  6740.000000   2472798   2472752   2472723   2472706   2472688  
  6730.000000   2472657   2472607   2472550   2472506   2472493  
  6720.000000   2472512   2472541   2472536   2472452   2472254  
  6710.000000   2471940   2471536   2471084   2470622   2470172  
  6700.000000   2469731   2469278   2468786   2468245   2467662  
  6690.000000   2467066   2466493   2465984   2465562   2465243  
  6680.000000   2465016   2464865   2464749   2464618   2464412  
  6670.000000   2464071   2463548   2462825   2461915   2460865  
  6660.000000   2459732   2458577   2457440   2456342   2455283  
  6650.000000   2454262   2453275   2452331   2451423   2450542  
  6640.000000   2449644   2448676   2447579   2446323   2444914  
  6630.000000   2443407   2441879   2440410   2439046   2437790  
  6620.000000   2436600   2435414   2434177   2432865   2431485  
  6610.000000   2430072   2428662   2427281   2425926   2424583  
  6600.000000   2423235   2421879   2420528   2419208   2417940  
  6590.000000   2416725   2415539   2414342   2413086   2411738  
  6580.000000   2410286   2408745   2407146   2405529   2403929  
  6570.000000   2402374   2400876   2399439   2398053   2396701  
  6560.000000   2395357   2393997   2392596   2391147   2389656  
  6550.000000   2388146   2386646   2385184   2383773   2382415  
  6540.000000   2381102   2379823   2378573   2377353   2376162  
  6530.000000   2374991   2373819   2372614   2371348   2370003  
  6520.000000   2368593   2367154   2365737   2364385   2363124  
  6510.000000   2361946   2360822   2359713   2358591   2357447  
  6500.000000   2356292   2355148   2354034   2352955   2351901  
  6490.000000   2350853   2349793   2348711   2347612   2346503  
  6480.000000   2345392   2344280   2343163   2342034   2340889  
  6470.000000   2339730   2338564   2337398   2336234   2335070  
  6460.000000   2333901   2332729   2331567   2330430   2329338  
  6450.000000   2328294   2327288   2326291   2325272   2324207  
  6440.000000   2323099   2321970   2320863   2319819   2318864  
  6430.000000   2317999   2317209   2316462   2315738   2315022  
  6420.000000   2314321   2313640   2312995   2312386   2311816  
  6410.000000   2311281   2310788   2310346   2309968   2309656  
  6400.000000   2309402   2309181   2308968   2308742   2308501  
  6390.000000   2308259   2308041   2307868   2307747   2307666  
  6380.000000   2307601   2307525   2307423   2307298   2307161  
  6370.000000   2307029   2306904   2306775   2306618   2306413  
  6360.000000   2306146   2305825   2305462   2305078   2304678  
  6350.000000   2304256   2303794   2303282   2302716   2302114  
  6340.000000   2301496   2300886   2300281   2299662   2298993  
  6330.000000   2298246   2297408   2296497   2295551   2294619  
  6320.000000   2293734   2292907   2292117   2291332   2290517  
  6310.000000   2289661   2288766   2287852   2286936   2286026  
  6300.000000   2285104   2284150   2283136   2282051   2280896  
  6290.000000   2279691   2278454   2277205   2275943   2274666  
  6280.000000   2273361   2272024   2270652   2269256   2267843  
  6270.000000   2266426   2265013   2263611   2262226   2260868  
  6260.000000   2259537   2258232   2256936   2255626   2254273  
  6250.000000   2252857   2251372   2249830   2248260   2246693  
  6240.000000   2245158   2243672   2242238   2240851   2239504  
  6230.000000   2238189   2236897   2235614   2234322   2232998  
  6220.000000   2231622   2230188   2228703   2227191   2225687  
  6210.000000   2224215   2222793   2221416   2220067   2218728  
  6200.000000   2217390   2216054   2214736   2213452   2212214  
  6190.000000   2211022   2209869   2208750   2207667   2206633  
  6180.000000   2205667   2204781   2203972   2203214   2202467  
  6170.000000   2201687   2200842   2199926   2198955   2197963  
  6160.000000   2196986   2196051   2195164   2194315   2193479  
  6150.000000   2192628   2191736   2190781   2189749   2188636  
  6140.000000   2187446   2186197   2184922   2183662   2182459  
  6130.000000   2181344   2180329   2179399   2178524   2177659  
  6120.000000   2176768   2175827   2174834   2173803   2172763  
  6110.000000   2171741   2170768   2169862   2169040   2168303  
  6100.000000   2167651   2167069   2166540   2166039   2165551  
  6090.000000   2165062   2164575   2164098   2163654   2163250  
  6080.000000   2162901   2162601   2162350   2162138   2161971  
  6070.000000   2161853   2161801   2161819   2161919   2162091  
  6060.000000   2162336   2162641   2163011   2163445   2163961  
  6050.000000   2164559   2165255   2166042   2166929   2167909  
  6040.000000   2168996   2170186   2171493   2172903   2174413  
  6030.000000   2175993   2177634   2179316   2181047   2182830  
  6020.000000   2184690   2186626   2188647   2190728   2192861  
  6010.000000   2195017   2197195   2199388   2201612   2203865  
  6000.000000   2206163   2208495   2210874   2213303   2215818  
  5990.000000   2218441   2221217   2224154   2227260   2230500  
  5980.000000   2233846   2237255   2240722   2244250   2247882  
  5970.000000   2251648   2255586   2259687   2263940   2268288  
  5960.000000   2272694   2277106   2281508   2285884   2290246  
  5950.000000   2294596   2298957   2303338   2307771   2312283  
  5940.000000   2316912   2321689   2326628   2331728   2336958  
  5930.000000   2342272   2347610   2352917   2358135   2363219  
  5920.000000   2368124   2372818   2377274   2381482   2385450  
  5910.000000   2389208   2392795   2396257   2399627   2402935  
  5900.000000   2406188   2409404   2412591   2415783   2418999  
  5890.000000   2422279   2425621   2429024   2432443   2435836  
  5880.000000   2439143   2442324   2445340   2448174   2450813  
  5870.000000   2453251   2455488   2457540   2459435   2461221  
  5860.000000   2462954   2464695   2466483   2468348   2470292  
  5850.000000   2472317   2474415   2476593   2478854   2481201  
  5840.000000   2483622   2486087   2488554   2490976   2493323  
  5830.000000   2495584   2497775   2499921   2502054   2504187  
  5820.000000   2506323   2508449   2510558   2512647   2514728  
  5810.000000   2516822   2518942   2521099   2523278   2525478  
  5800.000000   2527676   2529891   2532122   2534408   2536739  
  5790.000000   2539116   2541466   2543718   2545742   2547428  
  5780.000000   2548647   2549315   2549355   2548750   2547506  
  5770.000000   2545695   2543413   2540810   2538028   2535228  
  5760.000000   2532517   2529987   2527663   2525564   2523663  
  5750.000000   2521949   2520389   2518966   2517647   2516405  
  5740.000000   2515209   2514036   2512882   2511751   2510665  
  5730.000000   2509635   2508671   2507756   2506870   2505981  
  5720.000000   2505077   2504150   2503216   2502286   2501372  
  5710.000000   2500470   2499570   2498658   2497731   2496798  
  5700.000000   2495882   2495004   2494174   2493391   2492629  
  5690.000000   2491872   2491099   2490318   2489540   2488796  
  5680.000000   2488089   2487416   2486734   2485993   2485120  
  5670.000000   2484059   2482753   2481172   2479289   2477102  
  5660.000000   2474622   2471894   2468981   2465981   2462994  
  5650.000000   2460116   2457405   2454886   2452535   2450308  
  5640.000000   2448150   2446019   2443890   2441764   2439656  
  5630.000000   2437584   2435574   2433638   2431799   2430060  
  5620.000000   2428430   2426894   2425434   2424015   2422610  
  5610.000000   2421199   2419791   2418406   2417085   2415856  
  5600.000000   2414735   2413703   2412727   2411761   2410771  
  5590.000000   2409744   2408688   2407624   2406574   2405551  
  5580.000000   2404551   2403565   2402584   2401605   2400631  
  5570.000000   2399670   2398714   2397746   2396737   2395655  
  5560.000000   2394482   2393220   2391893   2390538   2389189  
  5550.000000   2387868   2386581   2385316   2384060   2382804  
  5540.000000   2381547   2380300   2379074   2377877   2376711  
  5530.000000   2375576   2374471   2373401   2372372   2371390  
  5520.000000   2370452   2369542   2368634   2367705   2366730  
  5510.000000   2365704   2364625   2363503   2362341   2361139  
  5500.000000   2359888   2358583   2357221   2355817   2354386  
  5490.000000   2352946   2351497   2350030   2348517   2346936  
  5480.000000   2345272   2343533   2341741   2339936   2338147  
  5470.000000   2336397   2334687   2333012   2331354   2329702  
  5460.000000   2328044   2326373   2324676   2322943   2321163  
  5450.000000   2319337   2317480   2315620   2313795   2312033  
  5440.000000   2310350   2308739   2307184   2305664   2304174  
  5430.000000   2302713   2301298   2299931   2298613   2297320  
  5420.000000   2296039   2294755   2293490   2292276   2291175  
  5410.000000   2290223   2289447   2288822   2288319   2287883  
  5400.000000   2287501   2287162   2286904   2286749   2286738  
  5390.000000   2286866   2287134   2287508   2287992   2288581  
  5380.000000   2289316   2290216   2291317   2292601   2294063  
  5370.000000   2295647   2297344   2299121   2301015   2303026  
  5360.000000   2305220   2307594   2310205   2313039   2316153  
  5350.000000   2319544   2323289   2327385   2331903   2336812  
  5340.000000   2342157   2347884   2354046   2360604   2367630  
  5330.000000   2375086   2383034   2391408   2400256   2409511  
  5320.000000   2419252   2429461   2440271   2451689   2463851  
  5310.000000   2476729   2490407   2504807   2519981   2535852  
  5300.000000   2552493   2569865   2588075   2607103   2627050  
  5290.000000   2647860   2669566   2692029   2715193   2738876  
  5280.000000   2763026   2787538   2812477   2837874   2863880  
  5270.000000   2890546   2917915   2945879   2974275   3002869  
  5260.000000   3031462   3059931   3088244   3116458   3144621  
  5250.000000   3172770   3200813   3228631   3255990   3282752  
  5240.000000   3308757   3334042   3358611   3382634   3406153  
  5230.000000   3429294   3451985   3474217   3495802   3516678  
  5220.000000   3536677   3555833   3574097   3591621   3608434  
  5210.000000   3624700   3640389   3655563   3670079   3683928  
  5200.000000   3696966   3709255   3720759   3731637   3741893  
  5190.000000   3751656   3760853   3769510   3777490   3784804  
  5180.000000   3791357   3797231   3802398   3806963   3810885  
  5170.000000   3814232   3816932   3819045   3820532   3821492  
  5160.000000   3821922   3821923   3821468   3820609   3819285  
  5150.000000   3817536   3815326   3812732   3809753   3806476  
  5140.000000   3802891   3799050   3794925   3790556   3785933  
  5130.000000   3781118   3776120   3771000   3765750   3760396  
  5120.000000   3754906   3749291   3743531   3737653   3731663  
  5110.000000   3725594   3719453   3713264   3707030   3700779  
  5100.000000   3694528   3688313   3682154   3676069   3670053  
  5090.000000   3664095   3658170   3652269   3646384   3640527  
  5080.000000   3634704   3628928   3623188   3617472   3611749  
  5070.000000   3606001   3600205   3594359   3588456   3582501  
  5060.000000   3576484   3570401   3564235   3557988   3551654  
  5050.000000   3545249   3538780   3532263   3525693   3519068  
  5040.000000   3512373   3505606   3498766   3491871   3484939  
  5030.000000   3477996   3471059   3464141   3457247   3450378  
  5020.000000   3443540   3436740   3429995   3423318   3416732  
  5010.000000   3410243   3403871   3397617   3391500   3385520  
  5000.000000   3379700   3374036   3368547   3363220   3358074  
  4990.000000   3353094   3348307   3343705   3339327   3335165  
  4980.000000   3331256   3327582   3324170   3320995   3318082  
  4970.000000   3315406   3312998   3310834   3308948   3307312  
  4960.000000   3305961   3304870   3304084   3303587   3303437  
  4950.000000   3303620   3304190   3305122   3306454   3308147  
  4940.000000   3310236   3312678   3315513   3318699   3322274  
  4930.000000   3326191   3330481   3335095   3340064   3345354  
  4920.000000   3351007   3357002   3363385   3370134   3377281  
  4910.000000   3384790   3392676   3400895   3409444   3418275  
  4900.000000   3427367   3436669   3446144   3455746   3465429  
  4890.000000   3475156   3484871   3494533   3504065   3513412  
  4880.000000   3522481   3531226   3539562   3547474   3554895  
  4870.000000   3561828   3568206   3574032   3579233   3583822  
  4860.000000   3587749   3591067   3593766   3595936   3597590  
  4850.000000   3598819   3599627   3600084   3600185   3599991  
  4840.000000   3599504   3598795   3597887   3596860   3595751  
  4830.000000   3594636   3593551   3592548   3591646   3590862  
  4820.000000   3590191   3589623   3589142   3588733   3588395  
  4810.000000   3588127   3587947   3587863   3587896   3588047  
  4800.000000   3588324   3588717   3589230   3589852   3590588  
  4790.000000   3591426   3592368   3593392   3594486   3595620  
  4780.000000   3596778   3597936   3599090   3600231   3601365  
  4770.000000   3602493   3603620   3604745   3605870   3606995  
  4760.000000   3608118   3609244   3610373   3611510   3612650  
  4750.000000   3613791   3614920   3616025   3617084   3618084  
  4740.000000   3619007   3619848   3620607   3621295   3621926  
  4730.000000   3622517   3623079   3623615   3624123   3624589  
  4720.000000   3625008   3625375   3625707   3626019   3626354  
  4710.000000   3626736   3627208   3627786   3628500   3629358  
  4700.000000   3630390   3631613   3633066   3634772   3636766  
  4690.000000   3639052   3641640   3644503   3647619   3650939  
  4680.000000   3654422   3658004   3661640   3665257   3668814  
  4670.000000   3672249   3675544   3678671   3681652   3684507  
  4660.000000   3687296   3690071   3692911   3695879   3699045  
  4650.000000   3702455   3706142   3710110   3714337   3718779  
  4640.000000   3723371   3728049   3732745   3737416   3742025  
  4630.000000   3746560   3751008   3755368   3759619   3763749  
  4620.000000   3767718   3771499   3775042   3778327   3781308  
  4610.000000   3783983   3786322   3788350   3790063   3791509  
  4600.000000   3792701   3793702   3794523   3795213   3795764  
  4590.000000   3796197   3796477   3796602   3796519   3796220  
  4580.000000   3795659   3794842   3793755   3792436   3790907  
  4570.000000   3789231   3787449   3785620   3783763   3781904  
  4560.000000   3780032   3778145   3776218   3774253   3772241  
  4550.000000   3770199   3768136   3766070   3764004   3761939  
  4540.000000   3759865   3757769   3755642   3753476   3751280  
  4530.000000   3749056   3746827   3744599   3742398   3740228  
  4520.000000   3738123   3736089   3734174   3732386   3730784  
  4510.000000   3729373   3728212   3727296   3726685   3726367  
  4500.000000   3726407   3726792   3727603   3728830   3730570  
  4490.000000   3732823   3735696   3739189   3743408   3748336  
  4480.000000   3754052   3760508   3767752   3775709   3784409  
  4470.000000   3793768   3803809   3814445   3825691   3837456  
  4460.000000   3849742   3862451   3875575   3889022   3902783  
  4450.000000   3916783   3931021   3945455   3960099   3974938  
  4440.000000   3989985   4005228   4020646   4036201   4051822  
  4430.000000   4067447   4082978   4098361   4113501   4128365  
  4420.000000   4142868   4156986   4170624   4183753   4196266  
  4410.000000   4208133   4219262   4229652   4239253   4248119  
  4400.000000   4256258   4263782   4270744   4277284   4283468  
  4390.000000   4289427   4295211   4300922   4306582   4312258  
  4380.000000   4317949   4323696   4329484   4335341   4341256  
  4370.000000   4347259   4353344   4359530   4365797   4372134  
  4360.000000   4378485   4384819   4391058   4397189   4403136  
  4350.000000   4408927   4414493   4419892   4425058   4430060  
  4340.000000   4434834   4439419   4443686   4447532   4450637  
  4330.000000   4452654   4453079   4451483   4447492   4441019  
  4320.000000   4432230   4421642   4409962   4398030   4386594  
  4310.000000   4376256   4367327   4359901   4353852   4348969  
  4300.000000   4345016   4341801   4339209   4337157   4335639  
  4290.000000   4334603   4334065   4333969   4334341   4335144  
  4280.000000   4336408   4338106   4340223   4342699   4345458  
  4270.000000   4348414   4351456   4354470   4357288   4359711  
  4260.000000   4361465   4362263   4361817   4359936   4356549  
  4250.000000   4351784   4345908   4339340   4332507   4325840  
  4240.000000   4319629   4314075   4309200   4304963   4301223  
  4230.000000   4297848   4294686   4291621   4288565   4285447  
  4220.000000   4282256   4278983   4275702   4272476   4269444  
  4210.000000   4266696   4264358   4262470   4261073   4260122  
  4200.000000   4259580   4259358   4259404   4259641   4260050  
  4190.000000   4260585   4261259   4262035   4262934   4263914  
  4180.000000   4264995   4266137   4267374   4268691   4270159  
  4170.000000   4271802   4273719   4275949   4278586   4281640  
  4160.000000   4285162   4289119   4293532   4298354   4303610  
  4150.000000   4309270   4315376   4321902   4328883   4336268  
  4140.000000   4344070   4352212   4360699   4369458   4378512  
  4130.000000   4387811   4397400   4407252   4417433   4427935  
  4120.000000   4438836   4450146   4461947   4474252   4487126  
  4110.000000   4500566   4514601   4529186   4544296   4559842  
  4100.000000   4575750   4591904   4608217   4624591   4640975  
  4090.000000   4657324   4673627   4689886   4706100   4722285  
  4080.000000   4738425   4754537   4770583   4786568   4802421  
  4070.000000   4818117   4833538   4848632   4863265   4877403  
  4060.000000   4890941   4903896   4916199   4927895   4938930  
  4050.000000   4949367   4959165   4968414   4977089   4985283  
  4040.000000   4992944   5000124   5006731   5012795   5018234  
  4030.000000   5023119   5027414   5031216   5034503   5037335  
  4020.000000   5039638   5041457   5042776   5043665   5044092  
  4010.000000   5044174   5043974   5043466   5042402   5040776  
  4000.000000   5038860  
##END= 
