##TITLE= Sample 019 By ssteindl date Montag, November 19 2018
##JCAMP-DX= 4.24
##DATA TYPE= INFRARED SPECTRUM
##ORIGIN= Exported PE Spectrum Data File
##OWNER= Sandra Steindl
##DATE= 18/11/19
##TIME= 17:45:48.00
##SPECTROMETER/DATA SYSTEM= PERKIN-ELMER Frontier FT-IR/NIR IR
##INSTRUMENT PARAMETERS=
  APODIZATION=stark
  DETECTOR=INGAAS
##RESOLUTION= 16.000000
##DELTAX= -2.000000
##XUNITS= 1/CM
##YUNITS= A
##XFACTOR= 1.00
##YFACTOR= 0.00000011920928955078
##FIRSTX= 10000.00
##LASTX= 4000.00
##NPOINTS= 3001
##FIRSTY= 0.230866
##MAXY= 0.663569
##MINY= 0.198999
##XYDATA= (X++(Y..Y))
 10000.000000   1936645   1934310   1931498   1927780   1923537  
  9990.000000   1919607   1916538   1914525   1913572   1913533  
  9980.000000   1913852   1913793   1912799   1910698   1907774  
  9970.000000   1904539   1901602   1899148   1896922   1894107  
  9960.000000   1889867   1883613   1875520   1866513   1858064  
  9950.000000   1851753   1848686   1849345   1853404   1860186  
  9940.000000   1868792   1878502   1888674   1898682   1907768  
  9930.000000   1914942   1919263   1919928   1916749   1909999  
  9920.000000   1900566   1889455   1877743   1866255   1855666  
  9910.000000   1846604   1839693   1835679   1835054   1838012  
  9900.000000   1844028   1852093   1860833   1869056   1876070  
  9890.000000   1881805   1886682   1891131   1895304   1898762  
  9880.000000   1900753   1900491   1897724   1892898   1887146  
  9870.000000   1881841   1878060   1876191   1875761   1875780  
  9860.000000   1875122   1873108   1869661   1865355   1861072  
  9850.000000   1857703   1855841   1855715   1857195   1859949  
  9840.000000   1863489   1867273   1870692   1873168   1874254  
  9830.000000   1873813   1872130   1869868   1867865   1866724  
  9820.000000   1866552   1866745   1866298   1864129   1859683  
  9810.000000   1853150   1845506   1838157   1832408   1829080  
  9800.000000   1828213   1829316   1831590   1834455   1837668  
  9790.000000   1841386   1845860   1851135   1856879   1862313  
  9780.000000   1866538   1868665   1868238   1865128   1859688  
  9770.000000   1852453   1844178   1835711   1827988   1822034  
  9760.000000   1818709   1818646   1821866   1827882   1835608  
  9750.000000   1843798   1851245   1857162   1861245   1863580  
  9740.000000   1864478   1864136   1862638   1859857   1855726  
  9730.000000   1850335   1844058   1837516   1831395   1826326  
  9720.000000   1822682   1820626   1820035   1820650   1822031  
  9710.000000   1823629   1824809   1824933   1823583   1820665  
  9700.000000   1816615   1812252   1808618   1806573   1806521  
  9690.000000   1808258   1811096   1814195   1816902   1819010  
  9680.000000   1820715   1822430   1824452   1826735   1828858  
  9670.000000   1830167   1830109   1828438   1825384   1821498  
  9660.000000   1817452   1813775   1810699   1808232   1806229  
  9650.000000   1804644   1803498   1802938   1803030   1803720  
  9640.000000   1804778   1805871   1806724   1807146   1807136  
  9630.000000   1806667   1805707   1804029   1801412   1797734  
  9620.000000   1793222   1788530   1784601   1782467   1782827  
  9610.000000   1785897   1791254   1798066   1805287   1811971  
  9600.000000   1817420   1821185   1823059   1822903   1820753  
  9590.000000   1816730   1811259   1804967   1798684   1793217  
  9580.000000   1789141   1786732   1785884   1786404   1788005  
  9570.000000   1790630   1794216   1798749   1803937   1809227  
  9560.000000   1813834   1816922   1817950   1816722   1813560  
  9550.000000   1808966   1803529   1797595   1791327   1784786  
  9540.000000   1778151   1771911   1766757   1763525   1762757  
  9530.000000   1764620   1768664   1774074   1779815   1784986  
  9520.000000   1788996   1791559   1792697   1792441   1790924  
  9510.000000   1788161   1784339   1779687   1774658   1769718  
  9500.000000   1765302   1761694   1758996   1757300   1756702  
  9490.000000   1757502   1759999   1764453   1770742   1778330  
  9480.000000   1786233   1793276   1798401   1800961   1800899  
  9470.000000   1798670   1795086   1790958   1786909   1783222  
  9460.000000   1779892   1776757   1773584   1770220   1766525  
  9450.000000   1762495   1758180   1753813   1749750   1746461  
  9440.000000   1744377   1743690   1744249   1745473   1746570  
  9430.000000   1746753   1745600   1743187   1740125   1737322  
  9420.000000   1735699   1735825   1737768   1741064   1744939  
  9410.000000   1748559   1751286   1752801   1753096   1752405  
  9400.000000   1751079   1749521   1748094   1747099   1746701  
  9390.000000   1746885   1747442   1747992   1748102   1747425  
  9380.000000   1745823   1743422   1740544   1737586   1734874  
  9370.000000   1732560   1730659   1729115   1727930   1727217  
  9360.000000   1727140   1727836   1729265   1731211   1733329  
  9350.000000   1735297   1736973   1738395   1739750   1741148  
  9340.000000   1742544   1743616   1743936   1743115   1741091  
  9330.000000   1738225   1735231   1732941   1731948   1732454  
  9320.000000   1734180   1736604   1739121   1741350   1743142  
  9310.000000   1744576   1745721   1746528   1746775   1746173  
  9300.000000   1744569   1742040   1738956   1735769   1732844  
  9290.000000   1730254   1727790   1725104   1721944   1718400  
  9280.000000   1714940   1712308   1711197   1711952   1714384  
  9270.000000   1717854   1721507   1724572   1726583   1727478  
  9260.000000   1727540   1727197   1726823   1726621   1726656  
  9250.000000   1726909   1727362   1727951   1728538   1728847  
  9240.000000   1728492   1727106   1724445   1720601   1715978  
  9230.000000   1711311   1707391   1704845   1703909   1704413  
  9220.000000   1705892   1707729   1709318   1710158   1709935  
  9210.000000   1708511   1705924   1702357   1698186   1693986  
  9200.000000   1690487   1688368   1688052   1689541   1692413  
  9190.000000   1695900   1699103   1701242   1701883   1701023  
  9180.000000   1699026   1696426   1693769   1691476   1689835  
  9170.000000   1688982   1688943   1689663   1691008   1692767  
  9160.000000   1694596   1696128   1697007   1697055   1696277  
  9150.000000   1694862   1693136   1691415   1689988   1688959  
  9140.000000   1688299   1687819   1687243   1686284   1684695  
  9130.000000   1682423   1679662   1676887   1674762   1674001  
  9120.000000   1675137   1678243   1682796   1687750   1691861  
  9110.000000   1694034   1693740   1691204   1687403   1683671  
  9100.000000   1681219   1680714   1682117   1684751   1687631  
  9090.000000   1689874   1691054   1691270   1690980   1690743  
  9080.000000   1690927   1691607   1692556   1693441   1694015  
  9070.000000   1694253   1694348   1694574   1695127   1696037  
  9060.000000   1697152   1698233   1699027   1699386   1699258  
  9050.000000   1698671   1697656   1696249   1694517   1692605  
  9040.000000   1690746   1689231   1688307   1688054   1688307  
  9030.000000   1688679   1688709   1688041   1686579   1684553  
  9020.000000   1682443   1680798   1680015   1680212   1681190  
  9010.000000   1682555   1683879   1684866   1685449   1685741  
  9000.000000   1685975   1686317   1686815   1687322   1687579  
  8990.000000   1687295   1686293   1684568   1682336   1680003  
  8980.000000   1678093   1677119   1677424   1679109   1681961  
  8970.000000   1685486   1689005   1691827   1693458   1693718  
  8960.000000   1692783   1691116   1689312   1687915   1687268  
  8950.000000   1687462   1688370   1689751   1691330   1692893  
  8940.000000   1694254   1695296   1695874   1695896   1695291  
  8930.000000   1694112   1692527   1690806   1689244   1688036  
  8920.000000   1687220   1686633   1686001   1685021   1683490  
  8910.000000   1681376   1678843   1676164   1673656   1671574  
  8900.000000   1670109   1669349   1669321   1669989   1671288  
  8890.000000   1673087   1675203   1677411   1679525   1681427  
  8880.000000   1683141   1684771   1686497   1688422   1690551  
  8870.000000   1692713   1694649   1696097   1696908   1697144  
  8860.000000   1697058   1697059   1697540   1698776   1700782  
  8850.000000   1703347   1706052   1708422   1710011   1710550  
  8840.000000   1709986   1708495   1706418   1704169   1702138  
  8830.000000   1700586   1699604   1699075   1698760   1698365  
  8820.000000   1697687   1696678   1695484   1694410   1693808  
  8810.000000   1693970   1695010   1696844   1699243   1701918  
  8800.000000   1704644   1707292   1709868   1712409   1714929  
  8790.000000   1717333   1719443   1721028   1721932   1722129  
  8780.000000   1721799   1721259   1720891   1720996   1721697  
  8770.000000   1722926   1724439   1725951   1727217   1728147  
  8760.000000   1728814   1729424   1730214   1731365   1732925  
  8750.000000   1734799   1736779   1738621   1740118   1741179  
  8740.000000   1741843   1742273   1742695   1743324   1744295  
  8730.000000   1745609   1747134   1748614   1749748   1750260  
  8720.000000   1749983   1748938   1747335   1745571   1744110  
  8710.000000   1743408   1743767   1745286   1747812   1750976  
  8700.000000   1754276   1757191   1759301   1760367   1760371  
  8690.000000   1759489   1758077   1756547   1755341   1754771  
  8680.000000   1755022   1756054   1757664   1759505   1761186  
  8670.000000   1762407   1763048   1763254   1763389   1763947  
  8660.000000   1765386   1767954   1771589   1775901   1780297  
  8650.000000   1784131   1786942   1788541   1789098   1789007  
  8640.000000   1788772   1788773   1789204   1790022   1791063  
  8630.000000   1792149   1793189   1794267   1795567   1797361  
  8620.000000   1799812   1803006   1806852   1811165   1815668  
  8610.000000   1820049   1824013   1827238   1829450   1830404  
  8600.000000   1830012   1828349   1825714   1822589   1819562  
  8590.000000   1817218   1815973   1816051   1817418   1819887  
  8580.000000   1823124   1826780   1830489   1833935   1836837  
  8570.000000   1838976   1840241   1840645   1840395   1839816  
  8560.000000   1839326   1839278   1839884   1841133   1842826  
  8550.000000   1844662   1846342   1847690   1848664   1849363  
  8540.000000   1849929   1850494   1851120   1851799   1852499  
  8530.000000   1853198   1853936   1854760   1855726   1856810  
  8520.000000   1857937   1858969   1859788   1860341   1860696  
  8510.000000   1861023   1861550   1862488   1863983   1866077  
  8500.000000   1868708   1871743   1874997   1878275   1881366  
  8490.000000   1884087   1886299   1887947   1889086   1889874  
  8480.000000   1890543   1891306   1892284   1893442   1894603  
  8470.000000   1895505   1895923   1895768   1895151   1894359  
  8460.000000   1893748   1893636   1894172   1895322   1896876  
  8450.000000   1898583   1900234   1901765   1903244   1904830  
  8440.000000   1906671   1908831   1911231   1913669   1915884  
  8430.000000   1917629   1918762   1919258   1919221   1918839  
  8420.000000   1918335   1917920   1917735   1917857   1918269  
  8410.000000   1918901   1919623   1920314   1920870   1921258  
  8400.000000   1921489   1921632   1921760   1921941   1922188  
  8390.000000   1922481   1922772   1923023   1923231   1923423  
  8380.000000   1923639   1923902   1924189   1924416   1924453  
  8370.000000   1924171   1923493   1922449   1921166   1919864  
  8360.000000   1918782   1918149   1918097   1918649   1919700  
  8350.000000   1921044   1922437   1923618   1924377   1924559  
  8340.000000   1924116   1923093   1921640   1919970   1918341  
  8330.000000   1917022   1916252   1916203   1916923   1918348  
  8320.000000   1920275   1922432   1924489   1926157   1927225  
  8310.000000   1927618   1927396   1926708   1925740   1924641  
  8300.000000   1923485   1922268   1920947   1919500   1917973  
  8290.000000   1916499   1915243   1914363   1913896   1913763  
  8280.000000   1913738   1913569   1913046   1912107   1910854  
  8270.000000   1909513   1908342   1907525   1907093   1906917  
  8260.000000   1906774   1906440   1905793   1904836   1903686  
  8250.000000   1902493   1901354   1900274   1899163   1897923  
  8240.000000   1896510   1895006   1893596   1892526   1891980  
  8230.000000   1892011   1892467   1893058   1893421   1893259  
  8220.000000   1892424   1890947   1889012   1886858   1884697  
  8210.000000   1882635   1880663   1878701   1876669   1874556  
  8200.000000   1872444   1870493   1868870   1867701   1866991  
  8190.000000   1866639   1866442   1866184   1865694   1864901  
  8180.000000   1863852   1862665   1861482   1860406   1859457  
  8170.000000   1858574   1857643   1856555   1855254   1853767  
  8160.000000   1852180   1850604   1849106   1847685   1846256  
  8150.000000   1844690   1842873   1840757   1838409   1835984  
  8140.000000   1833682   1831673   1830036   1828745   1827684  
  8130.000000   1826715   1825731   1824702   1823675   1822740  
  8120.000000   1821975   1821399   1820958   1820541   1820028  
  8110.000000   1819335   1818452   1817427   1816348   1815292  
  8100.000000   1814305   1813379   1812472   1811524   1810497  
  8090.000000   1809367   1808142   1806836   1805461   1804037  
  8080.000000   1802592   1801184   1799900   1798847   1798122  
  8070.000000   1797770   1797770   1798012   1798331   1798535  
  8060.000000   1798454   1797984   1797106   1795888   1794469  
  8050.000000   1793023   1791730   1790726   1790084   1789782  
  8040.000000   1789712   1789690   1789505   1788971   1787983  
  8030.000000   1786555   1784820   1783012   1781383   1780153  
  8020.000000   1779439   1779234   1779421   1779804   1780174  
  8010.000000   1780342   1780179   1779618   1778658   1777351  
  8000.000000   1775799   1774141   1772550   1771197   1770231  
  7990.000000   1769735   1769704   1770043   1770586   1771144  
  7980.000000   1771551   1771703   1771572   1771189   1770613  
  7970.000000   1769907   1769119   1768285   1767456   1766694  
  7960.000000   1766087   1765709   1765594   1765701   1765905  
  7950.000000   1766029   1765893   1765382   1764493   1763342  
  7940.000000   1762137   1761100   1760403   1760105   1760147  
  7930.000000   1760373   1760601   1760683   1760554   1760246  
  7920.000000   1759863   1759535   1759369   1759417   1759661  
  7910.000000   1760035   1760451   1760828   1761113   1761281  
  7900.000000   1761332   1761267   1761093   1760800   1760384  
  7890.000000   1759841   1759185   1758439   1757648   1756868  
  7880.000000   1756154   1755576   1755187   1755045   1755183  
  7870.000000   1755613   1756303   1757181   1758133   1759024  
  7860.000000   1759720   1760111   1760135   1759785   1759113  
  7850.000000   1758205   1757176   1756138   1755193   1754416  
  7840.000000   1753845   1753484   1753300   1753236   1753219  
  7830.000000   1753190   1753111   1752989   1752868   1752817  
  7820.000000   1752905   1753170   1753605   1754150   1754714  
  7810.000000   1755199   1755528   1755664   1755607   1755393  
  7800.000000   1755064   1754666   1754231   1753792   1753380  
  7790.000000   1753025   1752745   1752531   1752330   1752056  
  7780.000000   1751610   1750925   1749996   1748909   1747812  
  7770.000000   1746876   1746229   1745912   1745855   1745911  
  7760.000000   1745910   1745730   1745336   1744787   1744196  
  7750.000000   1743678   1743285   1742992   1742710   1742340  
  7740.000000   1741820   1741161   1740444   1739774   1739227  
  7730.000000   1738813   1738457   1738042   1737458   1736657  
  7720.000000   1735682   1734652   1733720   1733001   1732536  
  7710.000000   1732268   1732069   1731792   1731330   1730654  
  7700.000000   1729830   1728993   1728307   1727907   1727857  
  7690.000000   1728124   1728588   1729072   1729394   1729416  
  7680.000000   1729096   1728484   1727719   1726973   1726395  
  7670.000000   1726065   1725969   1726015   1726074   1726039  
  7660.000000   1725867   1725603   1725348   1725226   1725313  
  7650.000000   1725611   1726037   1726459   1726749   1726821  
  7640.000000   1726673   1726361   1725980   1725608   1725285  
  7630.000000   1724992   1724682   1724303   1723838   1723312  
  7620.000000   1722791   1722357   1722085   1722022   1722179  
  7610.000000   1722546   1723091   1723775   1724554   1725377  
  7600.000000   1726196   1726960   1727640   1728217   1728700  
  7590.000000   1729097   1729420   1729652   1729766   1729721  
  7580.000000   1729503   1729135   1728697   1728306   1728086  
  7570.000000   1728133   1728470   1729048   1729758   1730471  
  7560.000000   1731090   1731569   1731934   1732244   1732577  
  7550.000000   1732984   1733484   1734060   1734685   1735339  
  7540.000000   1736034   1736795   1737658   1738633   1739698  
  7530.000000   1740787   1741821   1742720   1743455   1744035  
  7520.000000   1744528   1745018   1745594   1746308   1747179  
  7510.000000   1748190   1749313   1750525   1751825   1753230  
  7500.000000   1754764   1756434   1758216   1760053   1761873  
  7490.000000   1763601   1765202   1766659   1768010   1769286  
  7480.000000   1770529   1771739   1772902   1773985   1774980  
  7470.000000   1775914   1776871   1777969   1779333   1781053  
  7460.000000   1783157   1785596   1788259   1790995   1793669  
  7450.000000   1796178   1798483   1800584   1802528   1804361  
  7440.000000   1806144   1807911   1809698   1811522   1813408  
  7430.000000   1815375   1817444   1819623   1821912   1824292  
  7420.000000   1826730   1829179   1831586   1833899   1836089  
  7410.000000   1838147   1840107   1842024   1843974   1846017  
  7400.000000   1848180   1850448   1852763   1855063   1857297  
  7390.000000   1859467   1861622   1863851   1866233   1868802  
  7380.000000   1871516   1874260   1876878   1879227   1881224  
  7370.000000   1882872   1884257   1885514   1886788   1888194  
  7360.000000   1889795   1891609   1893618   1895789   1898078  
  7350.000000   1900440   1902810   1905123   1907312   1909340  
  7340.000000   1911210   1912972   1914706   1916495   1918386  
  7330.000000   1920381   1922432   1924475   1926451   1928341  
  7320.000000   1930165   1931976   1933817   1935706   1937613  
  7310.000000   1939474   1941218   1942798   1944209   1945498  
  7300.000000   1946738   1948010   1949372   1950855   1952449  
  7290.000000   1954133   1955865   1957612   1959332   1960996  
  7280.000000   1962572   1964041   1965395   1966640   1967794  
  7270.000000   1968875   1969896   1970852   1971738   1972547  
  7260.000000   1973300   1974035   1974820   1975720   1976791  
  7250.000000   1978046   1979472   1981021   1982652   1984326  
  7240.000000   1986050   1987835   1989721   1991722   1993859  
  7230.000000   1996115   1998496   2000988   2003607   2006349  
  7220.000000   2009214   2012161   2015153   2018129   2021065  
  7210.000000   2023955   2026848   2029801   2032885   2036123  
  7200.000000   2039514   2043005   2046546   2050087   2053625  
  7190.000000   2057174   2060782   2064475   2068270   2072139  
  7180.000000   2076047   2079949   2083826   2087671   2091509  
  7170.000000   2095355   2099231   2103130   2107059   2111003  
  7160.000000   2114983   2119005   2123096   2127259   2131504  
  7150.000000   2135818   2140216   2144716   2149382   2154268  
  7140.000000   2159438   2164895   2170608   2176474   2182393  
  7130.000000   2188254   2194015   2199666   2205274   2210904  
  7120.000000   2216643   2222523   2228566   2234746   2241050  
  7110.000000   2247451   2253962   2260583   2267332   2274187  
  7100.000000   2281131   2288109   2295088   2302036   2308967  
  7090.000000   2315911   2322933   2330090   2337441   2345006  
  7080.000000   2352777   2360700   2368697   2376664   2384509  
  7070.000000   2392150   2399553   2406716   2413680   2420496  
  7060.000000   2427224   2433899   2440544   2447165   2453771  
  7050.000000   2460381   2467028   2473755   2480599   2487588  
  7040.000000   2494719   2501979   2509334   2516747   2524167  
  7030.000000   2531546   2538822   2545940   2552849   2559533  
  7020.000000   2566009   2572336   2578585   2584823   2591071  
  7010.000000   2597308   2603461   2609459   2615240   2620803  
  7000.000000   2626177   2631430   2636603   2641718   2646734  
  6990.000000   2651617   2656327   2660898   2665394   2669933  
  6980.000000   2674592   2679407   2684310   2689178   2693848  
  6970.000000   2698201   2702168   2705775   2709090   2712213  
  6960.000000   2715213   2718140   2721003   2723823   2726614  
  6950.000000   2729421   2732270   2735179   2738112   2741020  
  6940.000000   2743827   2746498   2749020   2751434   2753780  
  6930.000000   2756095   2758371   2760577   2762663   2764614  
  6920.000000   2766444   2768220   2770005   2771848   2773733  
  6910.000000   2775600   2777353   2778925   2780291   2781494  
  6900.000000   2782610   2783725   2784878   2786067   2787241  
  6890.000000   2788348   2789361   2790303   2791226   2792196  
  6880.000000   2793247   2794377   2795541   2796691   2797791  
  6870.000000   2798845   2799884   2800949   2802060   2803204  
  6860.000000   2804334   2805395   2806344   2807171   2807892  
  6850.000000   2808541   2809145   2809717   2810252   2810748  
  6840.000000   2811213   2811677   2812169   2812716   2813311  
  6830.000000   2813924   2814500   2815002   2815413   2815757  
  6820.000000   2816076   2816416   2816791   2817191   2817572  
  6810.000000   2817898   2818146   2818330   2818476   2818615  
  6800.000000   2818746   2818840   2818841   2818701   2818402  
  6790.000000   2817973   2817476   2816993   2816585   2816282  
  6780.000000   2816070   2815921   2815798   2815680   2815561  
  6770.000000   2815442   2815318   2815174   2814985   2814730  
  6760.000000   2814408   2814036   2813641   2813253   2812881  
  6750.000000   2812522   2812163   2811805   2811463   2811174  
  6740.000000   2810967   2810846   2810772   2810666   2810437  
  6730.000000   2810018   2809397   2808632   2807834   2807126  
  6720.000000   2806599   2806288   2806157   2806132   2806119  
  6710.000000   2806051   2805888   2805623   2805258   2804801  
  6700.000000   2804251   2803612   2802894   2802126   2801340  
  6690.000000   2800565   2799805   2799045   2798244   2797369  
  6680.000000   2796403   2795366   2794301   2793269   2792309  
  6670.000000   2791445   2790661   2789929   2789210   2788474  
  6660.000000   2787694   2786850   2785912   2784853   2783645  
  6650.000000   2782286   2780799   2779243   2777686   2776188  
  6640.000000   2774775   2773440   2772135   2770819   2769455  
  6630.000000   2768050   2766631   2765244   2763918   2762660  
  6620.000000   2761441   2760217   2758935   2757558   2756063  
  6610.000000   2754446   2752710   2750867   2748934   2746945  
  6600.000000   2744946   2742993   2741131   2739379   2737719  
  6590.000000   2736098   2734449   2732725   2730911   2729044  
  6580.000000   2727190   2725422   2723787   2722290   2720893  
  6570.000000   2719534   2718158   2716726   2715231   2713682  
  6560.000000   2712095   2710476   2708824   2707134   2705417  
  6550.000000   2703699   2702028   2700453   2699009   2697710  
  6540.000000   2696538   2695462   2694439   2693437   2692428  
  6530.000000   2691392   2690309   2689159   2687930   2686619  
  6520.000000   2685247   2683850   2682469   2681140   2679873  
  6510.000000   2678654   2677453   2676238   2674993   2673724  
  6500.000000   2672454   2671212   2670015   2668865   2667747  
  6490.000000   2666648   2665558   2664485   2663442   2662437  
  6480.000000   2661463   2660491   2659482   2658398   2657219  
  6470.000000   2655950   2654616   2653249   2651874   2650503  
  6460.000000   2649141   2647792   2646477   2645227   2644079  
  6450.000000   2643055   2642152   2641332   2640536   2639704  
  6440.000000   2638796   2637807   2636762   2635704   2634676  
  6430.000000   2633697   2632773   2631886   2631024   2630174  
  6420.000000   2629340   2628523   2627727   2626946   2626177  
  6410.000000   2625420   2624692   2624025   2623458   2623016  
  6400.000000   2622701   2622483   2622312   2622131   2621902  
  6390.000000   2621609   2621269   2620912   2620567   2620252  
  6380.000000   2619967   2619703   2619447   2619192   2618938  
  6370.000000   2618682   2618412   2618109   2617744   2617300  
  6360.000000   2616771   2616179   2615557   2614943   2614357  
  6350.000000   2613801   2613252   2612690   2612090   2611454  
  6340.000000   2610790   2610118   2609443   2608763   2608052  
  6330.000000   2607289   2606455   2605550   2604587   2603590  
  6320.000000   2602574   2601547   2600497   2599415   2598291  
  6310.000000   2597135   2595962   2594799   2593658   2592545  
  6300.000000   2591441   2590331   2589191   2588013   2586794  
  6290.000000   2585536   2584236   2582886   2581471   2579983  
  6280.000000   2578420   2576803   2575156   2573512   2571887  
  6270.000000   2570287   2568693   2567080   2565417   2563687  
  6260.000000   2561877   2559994   2558044   2556051   2554039  
  6250.000000   2552044   2550103   2548252   2546506   2544856  
  6240.000000   2543258   2541648   2539955   2538127   2536146  
  6230.000000   2534034   2531848   2529654   2527513   2525456  
  6220.000000   2523492   2521603   2519764   2517950   2516147  
  6210.000000   2514352   2512565   2510795   2509050   2507342  
  6200.000000   2505689   2504104   2502594   2501150   2499750  
  6190.000000   2498354   2496926   2495436   2493881   2492273  
  6180.000000   2490642   2489014   2487408   2485827   2484268  
  6170.000000   2482726   2481206   2479724   2478296   2476931  
  6160.000000   2475619   2474331   2473029   2471681   2470273  
  6150.000000   2468813   2467327   2465841   2464374   2462921  
  6140.000000   2461471   2460007   2458528   2457049   2455602  
  6130.000000   2454215   2452902   2451648   2450421   2449174  
  6120.000000   2447876   2446521   2445137   2443770   2442478  
  6110.000000   2441299   2440252   2439318   2438470   2437664  
  6100.000000   2436871   2436070   2435265   2434467   2433702  
  6090.000000   2432988   2432353   2431801   2431341   2430961  
  6080.000000   2430649   2430380   2430140   2429912   2429701  
  6070.000000   2429509   2429359   2429259   2429234   2429285  
  6060.000000   2429430   2429670   2430023   2430488   2431077  
  6050.000000   2431770   2432559   2433405   2434295   2435206  
  6040.000000   2436155   2437156   2438259   2439493   2440899  
  6030.000000   2442480   2444242   2446160   2448219   2450381  
  6020.000000   2452629   2454921   2457236   2459539   2461820  
  6010.000000   2464066   2466301   2468546   2470847   2473230  
  6000.000000   2475727   2478331   2481044   2483843   2486723  
  5990.000000   2489671   2492701   2495814   2499029   2502345  
  5980.000000   2505773   2509305   2512947   2516686   2520527  
  5970.000000   2524448   2528441   2532477   2536543   2540614  
  5960.000000   2544693   2548775   2552876   2556997   2561150  
  5950.000000   2565331   2569551   2573814   2578140   2582549  
  5940.000000   2587063   2591693   2596433   2601266   2606163  
  5930.000000   2611093   2616031   2620955   2625844   2630674  
  5920.000000   2635409   2640012   2644444   2648687   2652738  
  5910.000000   2656622   2660372   2664024   2667595   2671098  
  5900.000000   2674517   2677854   2681100   2684278   2687404  
  5890.000000   2690514   2693619   2696732   2699843   2702946  
  5880.000000   2706026   2709077   2712082   2715023   2717867  
  5870.000000   2720578   2723123   2725493   2727707   2729816  
  5860.000000   2731885   2733980   2736142   2738385   2740699  
  5850.000000   2743065   2745469   2747912   2750408   2752975  
  5840.000000   2755619   2758328   2761076   2763834   2766582  
  5830.000000   2769316   2772046   2774786   2777537   2780279  
  5820.000000   2782978   2785596   2788106   2790506   2792814  
  5810.000000   2795067   2797288   2799502   2801694   2803871  
  5800.000000   2806011   2808146   2810284   2812474   2814706  
  5790.000000   2816981   2819212   2821322   2823169   2824646  
  5780.000000   2825623   2826025   2825781   2824878   2823319  
  5770.000000   2821176   2818544   2815575   2812417   2809239  
  5760.000000   2806152   2803254   2800571   2798128   2795906  
  5750.000000   2793909   2792125   2790549   2789156   2787908  
  5740.000000   2786750   2785622   2784487   2783319   2782139  
  5730.000000   2780968   2779849   2778802   2777843   2776959  
  5720.000000   2776137   2775356   2774608   2773882   2773178  
  5710.000000   2772492   2771825   2771178   2770558   2769978  
  5700.000000   2769446   2768969   2768535   2768124   2767704  
  5690.000000   2767257   2766769   2766255   2765728   2765213  
  5680.000000   2764700   2764172   2763573   2762847   2761931  
  5670.000000   2760790   2759398   2757758   2755879   2753786  
  5660.000000   2751504   2749075   2746546   2743981   2741436  
  5650.000000   2738962   2736579   2734288   2732066   2729888  
  5640.000000   2727737   2725616   2723544   2721545   2719638  
  5630.000000   2717825   2716097   2714433   2712822   2711256  
  5620.000000   2709743   2708286   2706892   2705545   2704228  
  5610.000000   2702914   2701593   2700260   2698931   2697624  
  5600.000000   2696356   2695135   2693960   2692824   2691725  
  5590.000000   2690665   2689649   2688676   2687736   2686803  
  5580.000000   2685842   2684823   2683726   2682552   2681320  
  5570.000000   2680055   2678779   2677502   2676221   2674931  
  5560.000000   2673626   2672312   2671000   2669706   2668435  
  5550.000000   2667183   2665936   2664678   2663395   2662086  
  5540.000000   2660759   2659426   2658092   2656760   2655424  
  5530.000000   2654086   2652751   2651440   2650174   2648972  
  5520.000000   2647838   2646758   2645706   2644654   2643576  
  5510.000000   2642463   2641309   2640117   2638883   2637601  
  5500.000000   2636261   2634864   2633422   2631961   2630507  
  5490.000000   2629078   2627662   2626232   2624742   2623158  
  5480.000000   2621459   2619664   2617804   2615927   2614062  
  5470.000000   2612223   2610397   2608565   2606704   2604811  
  5460.000000   2602885   2600932   2598950   2596925   2594838  
  5450.000000   2592676   2590442   2588163   2585887   2583662  
  5440.000000   2581527   2579497   2577571   2575736   2573983  
  5430.000000   2572304   2570702   2569168   2567686   2566221  
  5420.000000   2564749   2563250   2561746   2560277   2558916  
  5410.000000   2557712   2556703   2555868   2555177   2554566  
  5400.000000   2554012   2553491   2553034   2552658   2552403  
  5390.000000   2552268   2552267   2552379   2552625   2553012  
  5380.000000   2553593   2554391   2555443   2556724   2558225  
  5370.000000   2559885   2561692   2563606   2565657   2567829  
  5360.000000   2570170   2572654   2575328   2578172   2581263  
  5350.000000   2584619   2588353   2592489   2597114   2602192  
  5340.000000   2607756   2613732   2620159   2626993   2634318  
  5330.000000   2642106   2650436   2659249   2668592   2678388  
  5320.000000   2688709   2699519   2710953   2723008   2735831  
  5310.000000   2749392   2763791   2778952   2794950   2811710  
  5300.000000   2829329   2847769   2867153   2887460   2908802  
  5290.000000   2931121   2954461   2978685   3003742   3029442  
  5280.000000   3055726   3082471   3109726   3137505   3165946  
  5270.000000   3195086   3224960   3255438   3286336   3317395  
  5260.000000   3348395   3379204   3409794   3440240   3470609  
  5250.000000   3500959   3531198   3561203   3590712   3619573  
  5240.000000   3647595   3674814   3701219   3726990   3752154  
  5230.000000   3776837   3800943   3824462   3847189   3869082  
  5220.000000   3889981   3909952   3928957   3947173   3964617  
  5210.000000   3981456   3997636   4013213   4028027   4042071  
  5200.000000   4055185   4067437   4078772   4089351   4099171  
  5190.000000   4108380   4116920   4124860   4132089   4138654  
  5180.000000   4144467   4149612   4154034   4157822   4160909  
  5170.000000   4163354   4165085   4166177   4166604   4166486  
  5160.000000   4165833   4164759   4163246   4161357   4159034  
  5150.000000   4156324   4153185   4149683   4145805   4141623  
  5140.000000   4137121   4132357   4127315   4122051   4116567  
  5130.000000   4110921   4105105   4099146   4093005   4086680  
  5120.000000   4080138   4073407   4066510   4059521   4052491  
  5110.000000   4045482   4038505   4031566   4024636   4017706  
  5100.000000   4010766   4003837   3996940   3990104   3983336  
  5090.000000   3976637   3969987   3963371   3956775   3950200  
  5080.000000   3943647   3937125   3930626   3924142   3917652  
  5070.000000   3911149   3904621   3898074   3891511   3884939  
  5060.000000   3878345   3871714   3865013   3858220   3851313  
  5050.000000   3844291   3837154   3829922   3822606   3815223  
  5040.000000   3807783   3800304   3792802   3785303   3777826  
  5030.000000   3770393   3763015   3755692   3748426   3741211  
  5020.000000   3734055   3726966   3719964   3713058   3706265  
  5010.000000   3699574   3692990   3686495   3680107   3673824  
  5000.000000   3667693   3661731   3655993   3650485   3645242  
  4990.000000   3640241   3635498   3630980   3626708   3622659  
  4980.000000   3618868   3615322   3612064   3609080   3606416  
  4970.000000   3604055   3602048   3600376   3599085   3598146  
  4960.000000   3597595   3597391   3597567   3598079   3598966  
  4950.000000   3600191   3601796   3603744   3606078   3608759  
  4940.000000   3611836   3615280   3619151   3623426   3628163  
  4930.000000   3633327   3638950   3644976   3651420   3658220  
  4920.000000   3665397   3672907   3680788   3689009   3697609  
  4910.000000   3706558   3715876   3725523   3735497   3745745  
  4900.000000   3756243   3766935   3777784   3788743   3799780  
  4890.000000   3810864   3821960   3833041   3844046   3854928  
  4880.000000   3865591   3875976   3885978   3895556   3904628  
  4870.000000   3913186   3921172   3928606   3935444   3941722  
  4860.000000   3947406   3952546   3957120   3961187   3964737  
  4850.000000   3967839   3970492   3972773   3974697   3976344  
  4840.000000   3977733   3978938   3979975   3980903   3981741  
  4830.000000   3982545   3983338   3984172   3985062   3986031  
  4820.000000   3987071   3988169   3989301   3990450   3991607  
  4810.000000   3992780   3993987   3995251   3996591   3998011  
  4800.000000   3999511   4001075   4002687   4004333   4006007  
  4790.000000   4007704   4009424   4011166   4012925   4014693  
  4780.000000   4016460   4018216   4019953   4021661   4023329  
  4770.000000   4024949   4026508   4027999   4029416   4030765  
  4760.000000   4032046   4033273   4034445   4035568   4036631  
  4750.000000   4037630   4038547   4039378   4040109   4040743  
  4740.000000   4041275   4041716   4042071   4042359   4042591  
  4730.000000   4042785   4042947   4043078   4043169   4043201  
  4720.000000   4043157   4043024   4042809   4042528   4042223  
  4710.000000   4041935   4041716   4041601   4041628   4041808  
  4700.000000   4042160   4042686   4043399   4044299   4045398  
  4690.000000   4046691   4048181   4049850   4051685   4053656  
  4680.000000   4055736   4057878   4060044   4062172   4064222  
  4670.000000   4066140   4067911   4069519   4070996   4072371  
  4660.000000   4073714   4075078   4076538   4078148   4079966  
  4650.000000   4082029   4084367   4086987   4089879   4093013  
  4640.000000   4096337   4099795   4103327   4106884   4110429  
  4630.000000   4113945   4117415   4120830   4124165   4127391  
  4620.000000   4130456   4133315   4135908   4138207   4140171  
  4610.000000   4141804   4143098   4144089   4144788   4145252  
  4600.000000   4145504   4145611   4145594   4145512   4145368  
  4590.000000   4145190   4144945   4144624   4144162   4143530  
  4580.000000   4142667   4141556   4140172   4138534   4136660  
  4570.000000   4134602   4132398   4130105   4127751   4125373  
  4560.000000   4122978   4120580   4118172   4115761   4113341  
  4550.000000   4110921   4108499   4106080   4103665   4101251  
  4540.000000   4098841   4096433   4094043   4091678   4089369  
  4530.000000   4087128   4084986   4082946   4081032   4079227  
  4520.000000   4077554   4075989   4074568   4073276   4072175  
  4510.000000   4071266   4070635   4070296   4070355   4070822  
  4500.000000   4071806   4073304   4075415   4078120   4081511  
  4490.000000   4085561   4090360   4095878   4102199   4109277  
  4480.000000   4117181   4125848   4135331   4145560   4156581  
  4470.000000   4168315   4180790   4193905   4207650   4221900  
  4460.000000   4236621   4251694   4267097   4282747   4298646  
  4450.000000   4314744   4331044   4347507   4364123   4380857  
  4440.000000   4397687   4414591   4431532   4448492   4465409  
  4430.000000   4482253   4498934   4515414   4531588   4547424  
  4420.000000   4562817   4577748   4592108   4605881   4618952  
  4410.000000   4631299   4642810   4653478   4663224   4672093  
  4400.000000   4680074   4687284   4693778   4699721   4705194  
  4390.000000   4710355   4715266   4720045   4724721   4729372  
  4380.000000   4734006   4738681   4743405   4748233   4753183  
  4370.000000   4758303   4763607   4769113   4774804   4780656  
  4360.000000   4786619   4792650   4798690   4804722   4810691  
  4350.000000   4816611   4822418   4828144   4833723   4839209  
  4340.000000   4844560   4849837   4854960   4859858   4864246  
  4330.000000   4867774   4869915   4870180   4868131   4863604  
  4320.000000   4856715   4847946   4837995   4827714   4817864  
  4310.000000   4809057   4801600   4795576   4790828   4787130  
  4300.000000   4784218   4781896   4780037   4778568   4777471  
  4290.000000   4776705   4776273   4776130   4776303   4776783  
  4280.000000   4777617   4778815   4780381   4782283   4784450  
  4270.000000   4786808   4789246   4791667   4793921   4795836  
  4260.000000   4797167   4797645   4796983   4794971   4791503  
  4250.000000   4786656   4780659   4773901   4766806   4759821  
  4240.000000   4753269   4747383   4742213   4737729   4733787  
  4230.000000   4730241   4726926   4723718   4720527   4717293  
  4220.000000   4714011   4710677   4707355   4704087   4700983  
  4210.000000   4698104   4695555   4693368   4691590   4690192  
  4200.000000   4689158   4688411   4687910   4687572   4687371  
  4190.000000   4687248   4687211   4687233   4687355   4687571  
  4180.000000   4687944   4688470   4689212   4690164   4691386  
  4170.000000   4692874   4694698   4696868   4699471   4702520  
  4160.000000   4706093   4710174   4714807   4719933   4725563  
  4150.000000   4731618   4738112   4744980   4752268   4759942  
  4140.000000   4768077   4776653   4785743   4795307   4805385  
  4130.000000   4815905   4826878   4838222   4849957   4862038  
  4120.000000   4874524   4887415   4900797   4914683   4929143  
  4110.000000   4944162   4959764   4975889   4992506   5009516  
  4100.000000   5026850   5044399   5062097   5079866   5097680  
  4090.000000   5115520   5133391   5151307   5169269   5187286  
  4080.000000   5205333   5223408   5241460   5259476   5277373  
  4070.000000   5295113   5312574   5329707   5346385   5362596  
  4060.000000   5378254   5393400   5407969   5422010   5435440  
  4050.000000   5448296   5460491   5472090   5483031   5493403  
  4040.000000   5503136   5512286   5520738   5528519   5535517  
  4030.000000   5541794   5547293   5552113   5556217   5559673  
  4020.000000   5562390   5564419   5565728   5566403   5566422  
  4010.000000   5565942   5565052   5563782   5561922   5559503  
  4000.000000   5556794  
##END= 
