##TITLE= Sample 016 By ssteindl date Montag, November 19 2018
##JCAMP-DX= 4.24
##DATA TYPE= INFRARED SPECTRUM
##ORIGIN= Exported PE Spectrum Data File
##OWNER= Sandra Steindl
##DATE= 18/11/19
##TIME= 17:42:13.00
##SPECTROMETER/DATA SYSTEM= PERKIN-ELMER Frontier FT-IR/NIR IR
##INSTRUMENT PARAMETERS=
  APODIZATION=stark
  DETECTOR=INGAAS
##RESOLUTION= 16.000000
##DELTAX= -2.000000
##XUNITS= 1/CM
##YUNITS= A
##XFACTOR= 1.00
##YFACTOR= 0.00000011920928955078
##FIRSTX= 10000.00
##LASTX= 4000.00
##NPOINTS= 3001
##FIRSTY= 0.211918
##MAXY= 0.611808
##MINY= 0.185279
##XYDATA= (X++(Y..Y))
 10000.000000   1777695   1775808   1773485   1770438   1767154  
  9990.000000   1764475   1762878   1762532   1763635   1766247  
  9980.000000   1769858   1773314   1775264   1774533   1770626  
  9970.000000   1763911   1755666   1747558   1741064   1736960  
  9960.000000   1735192   1735080   1735786   1736719   1737745  
  9950.000000   1739076   1740970   1743425   1746051   1748199  
  9940.000000   1749303   1749163   1748147   1746990   1746534  
  9930.000000   1747295   1749304   1752134   1755122   1757694  
  9920.000000   1759504   1760500   1760796   1760519   1759751  
  9910.000000   1758518   1756890   1755029   1753158   1751457  
  9900.000000   1749938   1748433   1746698   1744662   1742549  
  9890.000000   1740963   1740584   1741908   1744845   1748692  
  9880.000000   1752335   1754675   1755149   1753894   1751698  
  9870.000000   1749510   1747971   1747030   1746031   1744087  
  9860.000000   1740669   1736014   1731142   1727510   1726304  
  9850.000000   1727960   1731874   1736721   1741018   1743736  
  9840.000000   1744683   1744356   1743582   1742929   1742428  
  9830.000000   1741607   1739853   1736918   1733172   1729611  
  9820.000000   1727403   1727429   1729820   1733932   1738563  
  9810.000000   1742429   1744586   1744614   1742599   1738865  
  9800.000000   1733789   1727684   1720911   1714020   1707846  
  9790.000000   1703399   1701554   1702697   1706440   1711699  
  9780.000000   1716969   1720869   1722561   1721975   1719756  
  9770.000000   1716876   1714299   1712584   1711820   1711688  
  9760.000000   1711711   1711516   1710984   1710286   1709750  
  9750.000000   1709727   1710377   1711653   1713213   1714530  
  9740.000000   1715009   1714107   1711609   1707631   1702785  
  9730.000000   1697914   1693928   1691427   1690504   1690735  
  9720.000000   1691356   1691676   1691373   1690756   1690600  
  9710.000000   1691902   1695356   1701040   1708265   1715746  
  9700.000000   1722042   1725963   1726941   1725054   1720899  
  9690.000000   1715301   1709102   1703031   1697700   1693616  
  9680.000000   1691129   1690357   1691013   1692449   1693695  
  9670.000000   1693862   1692399   1689434   1685713   1682360  
  9660.000000   1680418   1680401   1682140   1684798   1687293  
  9650.000000   1688654   1688427   1686722   1684107   1681266  
  9640.000000   1678732   1676724   1675210   1674078   1673310  
  9630.000000   1673034   1673415   1674526   1676185   1678044  
  9620.000000   1679678   1680845   1681554   1682061   1682694  
  9610.000000   1683603   1684644   1685337   1685088   1683422  
  9600.000000   1680251   1675960   1671293   1667106   1664034  
  9590.000000   1662336   1661840   1662132   1662740   1663320  
  9580.000000   1663703   1663837   1663708   1663240   1662337  
  9570.000000   1660905   1659011   1656863   1654853   1653373  
  9560.000000   1652713   1652939   1653856   1655137   1656414  
  9550.000000   1657501   1658416   1659400   1660757   1662685  
  9540.000000   1665139   1667750   1669919   1670927   1670204  
  9530.000000   1667468   1662924   1657206   1651274   1646151  
  9520.000000   1642621   1641048   1641250   1642659   1644510  
  9510.000000   1646165   1647270   1647855   1648178   1648586  
  9500.000000   1649259   1650145   1650988   1651463   1651408  
  9490.000000   1650851   1650062   1649300   1648688   1648048  
  9480.000000   1646976   1645031   1641973   1637966   1633585  
  9470.000000   1629697   1627146   1626504   1627834   1630729  
  9460.000000   1634443   1638176   1641293   1643448   1644601  
  9450.000000   1644881   1644501   1643631   1642405   1640915  
  9440.000000   1639289   1637676   1636269   1635215   1634596  
  9430.000000   1634381   1634454   1634658   1634824   1634811  
  9420.000000   1634505   1633850   1632869   1631702   1630600  
  9410.000000   1629907   1629941   1630928   1632861   1635519  
  9400.000000   1638467   1641211   1643306   1644478   1644675  
  9390.000000   1643985   1642602   1640636   1638170   1635173  
  9380.000000   1631660   1627693   1623452   1619245   1615433  
  9370.000000   1612472   1610766   1610711   1612522   1616236  
  9360.000000   1621592   1628031   1634747   1640740   1645092  
  9350.000000   1647075   1646450   1643432   1638726   1633261  
  9340.000000   1628033   1623862   1621293   1620570   1621623  
  9330.000000   1624193   1627812   1631962   1636030   1639489  
  9320.000000   1641897   1643064   1643045   1642159   1640857  
  9310.000000   1639575   1638593   1637978   1637624   1637356  
  9300.000000   1636995   1636441   1635607   1634406   1632683  
  9290.000000   1630238   1626921   1622725   1617904   1612924  
  9280.000000   1608360   1604693   1602134   1600611   1599823  
  9270.000000   1599473   1599403   1599732   1600748   1602724  
  9260.000000   1605672   1609204   1612612   1615050   1615870  
  9250.000000   1614787   1612045   1608245   1604188   1600531  
  9240.000000   1597651   1595579   1594146   1593118   1592325  
  9230.000000   1591701   1591237   1590951   1590775   1590632  
  9220.000000   1590433   1590248   1590294   1590893   1592319  
  9210.000000   1594622   1597586   1600731   1603464   1605196  
  9200.000000   1605522   1604306   1601723   1598167   1594159  
  9190.000000   1590231   1586861   1584406   1583026   1582692  
  9180.000000   1583153   1584039   1584904   1585409   1585387  
  9170.000000   1584941   1584363   1583991   1584063   1584565  
  9160.000000   1585279   1585801   1585771   1584965   1583449  
  9150.000000   1581508   1579548   1577945   1576923   1576535  
  9140.000000   1576684   1577227   1578048   1579089   1580308  
  9130.000000   1581643   1582950   1584027   1584655   1584694  
  9120.000000   1584157   1583225   1582220   1581450   1581119  
  9110.000000   1581233   1581610   1581950   1581922   1581310  
  9100.000000   1580092   1578469   1576822   1575568   1575043  
  9090.000000   1575358   1576353   1577617   1578611   1578871  
  9080.000000   1578189   1576738   1575028   1573798   1573734  
  9070.000000   1575251   1578283   1582308   1586491   1589952  
  9060.000000   1592012   1592388   1591216   1588948   1586138  
  9050.000000   1583267   1580625   1578296   1576235   1574348  
  9040.000000   1572580   1570907   1569311   1567763   1566195  
  9030.000000   1564571   1562889   1561257   1559858   1558907  
  9020.000000   1558583   1558941   1559931   1561386   1563106  
  9010.000000   1564874   1566506   1567835   1568717   1569034  
  9000.000000   1568758   1567971   1566919   1565955   1565458  
  8990.000000   1565674   1566600   1567957   1569270   1570044  
  8980.000000   1569941   1568930   1567290   1565513   1564096  
  8970.000000   1563368   1563387   1563969   1564807   1565617  
  8960.000000   1566251   1566708   1567085   1567459   1567836  
  8950.000000   1568122   1568200   1567989   1567526   1566956  
  8940.000000   1566489   1566308   1566488   1567021   1567818  
  8930.000000   1568820   1569985   1571334   1572887   1574586  
  8920.000000   1576256   1577591   1578267   1577998   1576659  
  8910.000000   1574327   1571300   1568019   1564958   1562559  
  8900.000000   1561132   1560863   1561731   1563582   1566109  
  8890.000000   1568929   1571606   1573730   1575010   1575297  
  8880.000000   1574628   1573150   1571112   1568760   1566352  
  8870.000000   1564094   1562189   1560814   1560112   1560164  
  8860.000000   1560920   1562214   1563766   1565280   1566522  
  8850.000000   1567382   1567919   1568282   1568679   1569227  
  8840.000000   1569953   1570749   1571472   1572009   1572337  
  8830.000000   1572563   1572860   1573435   1574438   1575932  
  8820.000000   1577871   1580107   1582427   1584550   1586189  
  8810.000000   1587060   1586973   1585864   1583875   1581351  
  8800.000000   1578803   1576809   1575849   1576205   1577846  
  8790.000000   1580492   1583669   1586875   1589686   1591843  
  8780.000000   1593271   1594018   1594192   1593891   1593209  
  8770.000000   1592225   1591067   1589904   1588970   1588493  
  8760.000000   1588648   1589485   1590900   1592648   1594388  
  8750.000000   1595779   1596566   1596665   1596204   1595496  
  8740.000000   1594960   1595021   1595964   1597866   1600532  
  8730.000000   1603570   1606498   1608899   1610538   1611399  
  8720.000000   1611638   1611473   1611064   1610437   1609507  
  8710.000000   1608149   1606359   1604306   1602355   1600948  
  8700.000000   1600444   1600974   1602355   1604178   1605953  
  8690.000000   1607332   1608247   1608926   1609788   1611232  
  8680.000000   1613459   1616355   1619538   1622481   1624738  
  8670.000000   1626067   1626533   1626408   1626070   1625810  
  8660.000000   1625758   1625866   1626014   1626087   1626077  
  8650.000000   1626075   1626242   1626724   1627570   1628745  
  8640.000000   1630137   1631669   1633318   1635165   1637347  
  8630.000000   1639971   1643032   1646360   1649638   1652483  
  8620.000000   1654551   1655636   1655738   1655041   1653871  
  8610.000000   1652580   1651468   1650716   1650366   1650356  
  8600.000000   1650567   1650884   1651229   1651590   1651997  
  8590.000000   1652519   1653212   1654121   1655249   1656580  
  8580.000000   1658094   1659767   1661607   1663609   1665753  
  8570.000000   1667960   1670091   1671946   1673322   1674065  
  8560.000000   1674139   1673654   1672865   1672106   1671705  
  8550.000000   1671891   1672716   1674057   1675647   1677189  
  8540.000000   1678439   1679285   1679766   1680035   1680287  
  8530.000000   1680678   1681259   1681975   1682711   1683352  
  8520.000000   1683866   1684313   1684846   1685626   1686760  
  8510.000000   1688225   1689868   1691430   1692650   1693350  
  8500.000000   1693529   1693358   1693146   1693238   1693911  
  8490.000000   1695287   1697290   1699690   1702179   1704474  
  8480.000000   1706397   1707915   1709125   1710189   1711252  
  8470.000000   1712383   1713545   1714624   1715483   1716034  
  8460.000000   1716286   1716355   1716426   1716683   1717233  
  8450.000000   1718066   1719046   1719959   1720595   1720822  
  8440.000000   1720647   1720208   1719730   1719454   1719558  
  8430.000000   1720115   1721079   1722330   1723723   1725151  
  8420.000000   1726553   1727926   1729276   1730595   1731826  
  8410.000000   1732883   1733677   1734149   1734310   1734231  
  8400.000000   1734021   1733786   1733580   1733404   1733201  
  8390.000000   1732917   1732511   1732018   1731512   1731116  
  8380.000000   1730927   1731006   1731336   1731844   1732420  
  8370.000000   1732947   1733335   1733524   1733490   1733229  
  8360.000000   1732746   1732060   1731211   1730272   1729345  
  8350.000000   1728554   1728011   1727791   1727893   1728234  
  8340.000000   1728655   1728961   1728980   1728597   1727795  
  8330.000000   1726653   1725337   1724054   1722994   1722288  
  8320.000000   1721972   1722005   1722273   1722657   1723050  
  8310.000000   1723401   1723699   1723966   1724201   1724360  
  8300.000000   1724337   1723992   1723195   1721888   1720135  
  8290.000000   1718118   1716095   1714336   1713026   1712213  
  8280.000000   1711775   1711477   1711047   1710284   1709123  
  8270.000000   1707657   1706101   1704709   1703689   1703112  
  8260.000000   1702911   1702901   1702870   1702645   1702158  
  8250.000000   1701456   1700671   1699979   1699524   1699389  
  8240.000000   1699569   1699989   1700530   1701054   1701436  
  8230.000000   1701558   1701336   1700716   1699702   1698358  
  8220.000000   1696798   1695187   1693685   1692436   1691506  
  8210.000000   1690907   1690572   1690423   1690357   1690300  
  8200.000000   1690173   1689904   1689396   1688538   1687229  
  8190.000000   1685408   1683108   1680461   1677689   1675048  
  8180.000000   1672753   1670922   1669535   1668467   1667523  
  8170.000000   1666529   1665378   1664061   1662651   1661252  
  8160.000000   1659952   1658770   1657670   1656566   1655381  
  8150.000000   1654069   1652651   1651206   1649846   1648683  
  8140.000000   1647792   1647190   1646837   1646638   1646475  
  8130.000000   1646216   1645754   1645014   1643977   1642682  
  8120.000000   1641230   1639761   1638435   1637383   1636682  
  8110.000000   1636324   1636214   1636193   1636072   1635686  
  8100.000000   1634929   1633797   1632382   1630860   1629451  
  8090.000000   1628351   1627686   1627458   1627547   1627727  
  8080.000000   1627737   1627346   1626433   1625018   1623265  
  8070.000000   1621436   1619809   1618614   1617965   1617856  
  8060.000000   1618168   1618722   1619325   1619815   1620072  
  8050.000000   1620031   1619663   1618971   1617986   1616758  
  8040.000000   1615368   1613901   1612441   1611052   1609765  
  8030.000000   1608587   1607512   1606542   1605694   1604998  
  8020.000000   1604468   1604080   1603753   1603362   1602775  
  8010.000000   1601898   1600732   1599370   1597996   1596813  
  8000.000000   1595990   1595600   1595606   1595886   1596276  
  7990.000000   1596637   1596887   1597015   1597058   1597062  
  7980.000000   1597048   1596982   1596795   1596391   1595702  
  7970.000000   1594704   1593451   1592053   1590667   1589460  
  7960.000000   1588566   1588066   1587953   1588146   1588495  
  7950.000000   1588827   1588991   1588903   1588569   1588083  
  7940.000000   1587596   1587257   1587174   1587359   1587742  
  7930.000000   1588177   1588512   1588617   1588437   1587992  
  7920.000000   1587365   1586665   1586000   1585446   1585046  
  7910.000000   1584810   1584731   1584787   1584950   1585182  
  7900.000000   1585434   1585660   1585821   1585909   1585946  
  7890.000000   1585980   1586072   1586262   1586556   1586907  
  7880.000000   1587229   1587422   1587404   1587144   1586679  
  7870.000000   1586100   1585532   1585089   1584846   1584811  
  7860.000000   1584930   1585108   1585244   1585273   1585179  
  7850.000000   1585013   1584860   1584819   1584957   1585286  
  7840.000000   1585758   1586274   1586718   1586981   1586995  
  7830.000000   1586741   1586249   1585589   1584848   1584123  
  7820.000000   1583496   1583033   1582760   1582674   1582722  
  7810.000000   1582833   1582917   1582908   1582771   1582524  
  7800.000000   1582218   1581916   1581657   1581426   1581161  
  7790.000000   1580761   1580144   1579275   1578200   1577038  
  7780.000000   1575948   1575073   1574488   1574186   1574071  
  7770.000000   1574014   1573887   1573625   1573229   1572772  
  7760.000000   1572349   1572050   1571921   1571945   1572055  
  7750.000000   1572146   1572113   1571860   1571337   1570532  
  7740.000000   1569487   1568283   1567037   1565874   1564910  
  7730.000000   1564227   1563855   1563772   1563911   1564182  
  7720.000000   1564492   1564766   1564948   1565007   1564928  
  7710.000000   1564705   1564350   1563885   1563357   1562819  
  7700.000000   1562330   1561928   1561615   1561361   1561106  
  7690.000000   1560792   1560386   1559901   1559388   1558922  
  7680.000000   1558566   1558343   1558226   1558144   1558023  
  7670.000000   1557807   1557495   1557135   1556811   1556609  
  7660.000000   1556579   1556721   1556980   1557277   1557532  
  7650.000000   1557702   1557789   1557839   1557909   1558042  
  7640.000000   1558243   1558467   1558636   1558661   1558482  
  7630.000000   1558083   1557506   1556834   1556159   1555562  
  7620.000000   1555082   1554724   1554471   1554306   1554234  
  7610.000000   1554278   1554470   1554819   1555294   1555814  
  7600.000000   1556272   1556565   1556640   1556508   1556253  
  7590.000000   1555986   1555819   1555802   1555921   1556097  
  7580.000000   1556236   1556269   1556188   1556047   1555941  
  7570.000000   1555961   1556159   1556527   1557009   1557533  
  7560.000000   1558047   1558535   1559021   1559540   1560120  
  7550.000000   1560750   1561392   1561986   1562490   1562888  
  7540.000000   1563203   1563478   1563758   1564073   1564430  
  7530.000000   1564824   1565258   1565741   1566305   1566969  
  7520.000000   1567735   1568552   1569336   1569980   1570407  
  7510.000000   1570594   1570608   1570581   1570693   1571110  
  7500.000000   1571949   1573237   1574911   1576834   1578840  
  7490.000000   1580766   1582494   1583963   1585178   1586196  
  7480.000000   1587109   1588009   1588977   1590045   1591215  
  7470.000000   1592439   1593656   1594798   1595820   1596715  
  7460.000000   1597508   1598261   1599050   1599951   1601025  
  7450.000000   1602305   1603796   1605472   1607281   1609146  
  7440.000000   1610981   1612701   1614248   1615593   1616755  
  7430.000000   1617785   1618769   1619786   1620908   1622172  
  7420.000000   1623586   1625137   1626803   1628564   1630406  
  7410.000000   1632317   1634284   1636278   1638264   1640197  
  7400.000000   1642046   1643793   1645453   1647050   1648629  
  7390.000000   1650227   1651873   1653575   1655323   1657102  
  7380.000000   1658888   1660668   1662433   1664190   1665948  
  7370.000000   1667722   1669515   1671318   1673103   1674828  
  7360.000000   1676445   1677916   1679224   1680385   1681440  
  7350.000000   1682448   1683467   1684539   1685678   1686881  
  7340.000000   1688135   1689440   1690809   1692270   1693840  
  7330.000000   1695510   1697233   1698923   1700484   1701838  
  7320.000000   1702966   1703906   1704756   1705635   1706652  
  7310.000000   1707871   1709294   1710878   1712552   1714253  
  7300.000000   1715939   1717598   1719223   1720808   1722323  
  7290.000000   1723722   1724961   1726014   1726899   1727671  
  7280.000000   1728413   1729206   1730105   1731121   1732219  
  7270.000000   1733338   1734414   1735412   1736342   1737252  
  7260.000000   1738217   1739305   1740557   1741965   1743487  
  7250.000000   1745045   1746571   1748009   1749358   1750642  
  7240.000000   1751929   1753286   1754782   1756454   1758326  
  7230.000000   1760391   1762639   1765033   1767537   1770084  
  7220.000000   1772610   1775033   1777305   1779408   1781392  
  7210.000000   1783348   1785419   1787730   1790377   1793370  
  7200.000000   1796648   1800083   1803537   1806889   1810083  
  7190.000000   1813117   1816055   1818970   1821941   1825004  
  7180.000000   1828165   1831391   1834646   1837889   1841116  
  7170.000000   1844331   1847581   1850905   1854354   1857943  
  7160.000000   1861670   1865482   1869317   1873094   1876775  
  7150.000000   1880352   1883895   1887507   1891333   1895479  
  7140.000000   1900002   1904859   1909951   1915136   1920315  
  7130.000000   1925429   1930513   1935622   1940835   1946163  
  7120.000000   1951572   1956960   1962240   1967355   1972353  
  7110.000000   1977345   1982499   1987948   1993765   1999910  
  7100.000000   2006275   2012695   2019041   2025225   2031245  
  7090.000000   2037137   2042971   2048796   2054655   2060571  
  7080.000000   2066582   2072734   2079089   2085686   2092523  
  7070.000000   2099536   2106613   2113619   2120444   2127027  
  7060.000000   2133375   2139535   2145576   2151544   2157461  
  7050.000000   2163319   2169105   2174818   2180486   2186159  
  7040.000000   2191893   2197737   2203705   2209796   2215976  
  7030.000000   2222212   2228458   2234677   2240821   2246846  
  7020.000000   2252707   2258375   2263840   2269125   2274268  
  7010.000000   2279321   2284323   2289303   2294265   2299214  
  7000.000000   2304141   2309057   2313958   2318855   2323726  
  6990.000000   2328552   2333292   2337920   2342413   2346776  
  6980.000000   2351007   2355113   2359079   2362891   2366530  
  6970.000000   2370007   2373349   2376621   2379871   2383143  
  6960.000000   2386422   2389677   2392840   2395882   2398792  
  6950.000000   2401621   2404422   2407248   2410089   2412887  
  6940.000000   2415530   2417915   2419971   2421708   2423191  
  6930.000000   2424535   2425843   2427201   2428636   2430159  
  6920.000000   2431760   2433455   2435257   2437189   2439228  
  6910.000000   2441325   2443374   2445273   2446936   2448339  
  6900.000000   2449522   2450574   2451596   2452661   2453793  
  6890.000000   2454966   2456117   2457186   2458129   2458943  
  6880.000000   2459655   2460321   2461000   2461752   2462623  
  6870.000000   2463641   2464797   2466056   2467342   2468566  
  6860.000000   2469644   2470524   2471207   2471749   2472238  
  6850.000000   2472763   2473377   2474085   2474839   2475580  
  6840.000000   2476253   2476851   2477400   2477956   2478564  
  6830.000000   2479245   2479972   2480692   2481344   2481888  
  6820.000000   2482308   2482619   2482845   2483005   2483103  
  6810.000000   2483141   2483117   2483053   2482982   2482947  
  6800.000000   2482976   2483078   2483230   2483393   2483528  
  6790.000000   2483615   2483652   2483657   2483649   2483640  
  6780.000000   2483629   2483610   2483580   2483551   2483539  
  6770.000000   2483564   2483622   2483692   2483730   2483697  
  6760.000000   2483566   2483348   2483079   2482806   2482563  
  6750.000000   2482354   2482148   2481900   2481571   2481155  
  6740.000000   2480680   2480200   2479771   2479433   2479189  
  6730.000000   2479016   2478878   2478746   2478605   2478460  
  6720.000000   2478313   2478163   2477989   2477767   2477475  
  6710.000000   2477114   2476708   2476297   2475917   2475583  
  6700.000000   2475276   2474953   2474558   2474055   2473427  
  6690.000000   2472693   2471889   2471058   2470232   2469431  
  6680.000000   2468659   2467916   2467197   2466505   2465830  
  6670.000000   2465159   2464467   2463728   2462919   2462035  
  6660.000000   2461086   2460098   2459097   2458105   2457127  
  6650.000000   2456155   2455174   2454173   2453142   2452086  
  6640.000000   2451005   2449905   2448781   2447635   2446467  
  6630.000000   2445289   2444111   2442944   2441783   2440611  
  6620.000000   2439394   2438102   2436713   2435238   2433708  
  6610.000000   2432182   2430709   2429331   2428052   2426850  
  6600.000000   2425680   2424494   2423251   2421931   2420531  
  6590.000000   2419065   2417548   2415997   2414425   2412839  
  6580.000000   2411247   2409659   2408084   2406538   2405030  
  6570.000000   2403575   2402174   2400830   2399531   2398265  
  6560.000000   2397013   2395758   2394490   2393202   2391897  
  6550.000000   2390574   2389230   2387851   2386421   2384927  
  6540.000000   2383370   2381773   2380181   2378651   2377236  
  6530.000000   2375968   2374848   2373848   2372922   2372018  
  6520.000000   2371099   2370140   2369134   2368078   2366970  
  6510.000000   2365807   2364589   2363324   2362036   2360757  
  6500.000000   2359522   2358351   2357246   2356187   2355140  
  6490.000000   2354077   2352982   2351859   2350725   2349600  
  6480.000000   2348496   2347408   2346320   2345212   2344072  
  6470.000000   2342897   2341700   2340494   2339294   2338107  
  6460.000000   2336940   2335799   2334693   2333635   2332636  
  6450.000000   2331695   2330804   2329940   2329086   2328232  
  6440.000000   2327385   2326562   2325782   2325047   2324344  
  6430.000000   2323642   2322914   2322147   2321363   2320609  
  6420.000000   2319949   2319427   2319061   2318819   2318641  
  6410.000000   2318453   2318201   2317858   2317438   2316975  
  6400.000000   2316514   2316084   2315706   2315382   2315116  
  6390.000000   2314906   2314760   2314675   2314640   2314629  
  6380.000000   2314607   2314543   2314422   2314252   2314061  
  6370.000000   2313883   2313744   2313647   2313571   2313482  
  6360.000000   2313338   2313115   2312796   2312387   2311892  
  6350.000000   2311320   2310672   2309958   2309186   2308380  
  6340.000000   2307564   2306765   2305995   2305256   2304530  
  6330.000000   2303805   2303065   2302315   2301564   2300831  
  6320.000000   2300120   2299428   2298734   2298019   2297263  
  6310.000000   2296462   2295622   2294757   2293871   2292961  
  6300.000000   2292011   2291010   2289950   2288846   2287720  
  6290.000000   2286602   2285500   2284412   2283305   2282143  
  6280.000000   2280889   2279534   2278089   2276592   2275084  
  6270.000000   2273599   2272149   2270726   2269309   2267879  
  6260.000000   2266427   2264966   2263513   2262094   2260720  
  6250.000000   2259391   2258087   2256783   2255451   2254077  
  6240.000000   2252658   2251204   2249729   2248247   2246761  
  6230.000000   2245265   2243743   2242182   2240573   2238920  
  6220.000000   2237239   2235557   2233899   2232282   2230711  
  6210.000000   2229179   2227672   2226181   2224708   2223269  
  6200.000000   2221886   2220577   2219345   2218171   2217020  
  6190.000000   2215849   2214628   2213347   2212022   2210683  
  6180.000000   2209369   2208100   2206887   2205717   2204576  
  6170.000000   2203454   2202350   2201278   2200254   2199287  
  6160.000000   2198370   2197485   2196602   2195694   2194742  
  6150.000000   2193735   2192675   2191559   2190389   2189163  
  6140.000000   2187885   2186569   2185242   2183937   2182686  
  6130.000000   2181511   2180414   2179382   2178393   2177424  
  6120.000000   2176464   2175510   2174569   2173646   2172747  
  6110.000000   2171866   2171006   2170163   2169346   2168560  
  6100.000000   2167814   2167106   2166432   2165780   2165148  
  6090.000000   2164539   2163976   2163475   2163058   2162719  
  6080.000000   2162444   2162195   2161948   2161680   2161405  
  6070.000000   2161146   2160942   2160818   2160792   2160852  
  6060.000000   2160992   2161194   2161465   2161812   2162263  
  6050.000000   2162821   2163492   2164246   2165065   2165916  
  6040.000000   2166803   2167733   2168747   2169870   2171136  
  6030.000000   2172540   2174080   2175726   2177466   2179280  
  6020.000000   2181169   2183119   2185130   2187175   2189243  
  6010.000000   2191306   2193368   2195426   2197515   2199651  
  6000.000000   2201870   2204179   2206598   2209122   2211765  
  5990.000000   2214526   2217419   2220440   2223593   2226859  
  5980.000000   2230234   2233702   2237271   2240942   2244734  
  5970.000000   2248642   2252665   2256768   2260930   2265110  
  5960.000000   2269298   2273479   2277665   2281852   2286048  
  5950.000000   2290238   2294420   2298592   2302778   2307016  
  5940.000000   2311359   2315854   2320527   2325378   2330368  
  5930.000000   2335446   2340545   2345611   2350595   2355463  
  5920.000000   2360180   2364715   2369035   2373115   2376945  
  5910.000000   2380533   2383904   2387099   2390157   2393124  
  5900.000000   2396032   2398932   2401861   2404880   2408025  
  5890.000000   2411334   2414798   2418390   2422040   2425677  
  5880.000000   2429223   2432625   2435847   2438878   2441715  
  5870.000000   2444361   2446824   2449118   2451270   2453326  
  5860.000000   2455340   2457370   2459457   2461624   2463866  
  5850.000000   2466168   2468502   2470856   2473220   2475598  
  5840.000000   2477992   2480405   2482833   2485271   2487723  
  5830.000000   2490194   2492696   2495237   2497816   2500417  
  5820.000000   2503018   2505593   2508128   2510621   2513080  
  5810.000000   2515519   2517935   2520326   2522669   2524968  
  5800.000000   2527217   2529467   2531743   2534109   2536555  
  5790.000000   2539069   2541548   2543894   2545946   2547584  
  5780.000000   2548675   2549144   2548919   2547988   2546351  
  5770.000000   2544077   2541259   2538062   2534651   2531221  
  5760.000000   2527915   2524855   2522081   2519610   2517404  
  5750.000000   2515435   2513660   2512054   2510589   2509238  
  5740.000000   2507969   2506744   2505542   2504340   2503144  
  5730.000000   2501955   2500796   2499667   2498577   2497516  
  5720.000000   2496484   2495479   2494510   2493584   2492713  
  5710.000000   2491896   2491130   2490405   2489720   2489072  
  5700.000000   2488470   2487920   2487425   2486983   2486581  
  5690.000000   2486212   2485865   2485544   2485241   2484960  
  5680.000000   2484672   2484347   2483926   2483356   2482573  
  5670.000000   2481542   2480226   2478619   2476712   2474520  
  5660.000000   2472063   2469389   2466554   2463642   2460728  
  5650.000000   2457889   2455165   2452578   2450115   2447760  
  5640.000000   2445488   2443285   2441148   2439073   2437060  
  5630.000000   2435096   2433172   2431274   2429407   2427580  
  5620.000000   2425818   2424135   2422546   2421043   2419616  
  5610.000000   2418245   2416927   2415657   2414448   2413303  
  5600.000000   2412224   2411192   2410184   2409173   2408144  
  5590.000000   2407093   2406031   2404974   2403933   2402912  
  5580.000000   2401903   2400898   2399887   2398869   2397844  
  5570.000000   2396809   2395754   2394661   2393507   2392280  
  5560.000000   2390979   2389624   2388244   2386869   2385520  
  5550.000000   2384204   2382912   2381635   2380365   2379110  
  5540.000000   2377878   2376684   2375529   2374403   2373286  
  5530.000000   2372158   2371005   2369825   2368626   2367418  
  5520.000000   2366209   2364999   2363783   2362561   2361336  
  5510.000000   2360124   2358933   2357771   2356623   2355466  
  5500.000000   2354267   2353005   2351672   2350286   2348873  
  5490.000000   2347463   2346062   2344665   2343242   2341773  
  5480.000000   2340240   2338650   2337018   2335368   2333705  
  5470.000000   2332026   2330310   2328541   2326712   2324836  
  5460.000000   2322934   2321032   2319138   2317243   2315327  
  5450.000000   2313369   2311362   2309321   2307278   2305267  
  5440.000000   2303317   2301435   2299619   2297858   2296155  
  5430.000000   2294514   2292949   2291457   2290026   2288616  
  5420.000000   2287200   2285750   2284291   2282866   2281557  
  5410.000000   2280426   2279520   2278821   2278297   2277879  
  5400.000000   2277529   2277215   2276954   2276762   2276678  
  5390.000000   2276711   2276880   2277175   2277619   2278215  
  5380.000000   2279000   2279971   2281136   2282440   2283857  
  5370.000000   2285322   2286844   2288419   2290123   2291993  
  5360.000000   2294110   2296475   2299126   2302019   2305185  
  5350.000000   2308602   2312343   2316419   2320916   2325823  
  5340.000000   2331192   2336976   2343221   2349882   2357027  
  5330.000000   2364610   2372690   2381191   2390151   2399490  
  5320.000000   2409280   2419498   2430283   2441655   2453771  
  5310.000000   2466620   2480305   2494754   2510024   2526032  
  5300.000000   2542846   2560416   2578846   2598105   2618294  
  5290.000000   2639353   2661319   2684056   2707519   2731530  
  5280.000000   2756043   2780954   2806325   2832178   2858658  
  5270.000000   2885809   2913675   2942149   2971075   3000229  
  5260.000000   3029419   3058531   3087537   3116498   3145460  
  5250.000000   3174451   3203364   3232059   3260275   3287855  
  5240.000000   3314616   3340585   3365760   3390310   3414276  
  5230.000000   3437785   3460765   3483210   3504941   3525917  
  5220.000000   3545994   3565241   3583640   3601374   3618487  
  5210.000000   3635148   3651314   3667022   3682089   3696469  
  5200.000000   3709981   3722660   3734455   3745521   3755873  
  5190.000000   3765656   3774820   3783417   3791327   3798575  
  5180.000000   3805075   3810912   3816057   3820625   3824581  
  5170.000000   3828002   3830826   3833116   3834825   3836041  
  5160.000000   3836744   3837016   3836816   3836193   3835087  
  5150.000000   3833545   3831538   3829149   3826377   3823304  
  5140.000000   3819912   3816242   3812254   3807978   3803397  
  5130.000000   3798568   3793502   3788266   3782864   3777341  
  5120.000000   3771689   3765946   3760118   3754250   3748357  
  5110.000000   3742467   3736566   3730647   3724672   3718629  
  5100.000000   3712505   3706321   3700099   3693881   3687693  
  5090.000000   3681560   3675489   3669486   3663546   3657673  
  5080.000000   3651857   3646094   3640362   3634644   3628910  
  5070.000000   3623140   3617318   3611441   3605506   3599522  
  5060.000000   3593489   3587411   3581282   3575109   3568886  
  5050.000000   3562624   3556316   3549966   3543557   3537083  
  5040.000000   3530522   3523870   3517120   3510284   3503372  
  5030.000000   3496409   3489410   3482399   3475393   3468410  
  5020.000000   3461466   3454573   3447742   3440974   3434275  
  5010.000000   3427638   3421074   3414584   3408194   3401915  
  5000.000000   3395778   3389788   3383971   3378316   3372842  
  4990.000000   3367533   3362418   3357486   3352771   3348261  
  4980.000000   3343988   3339933   3336126   3332551   3329251  
  4970.000000   3326218   3323507   3321106   3319059   3317334  
  4960.000000   3315956   3314883   3314141   3313693   3313583  
  4950.000000   3313783   3314339   3315214   3316447   3317995  
  4940.000000   3319897   3322123   3324731   3327703   3331099  
  4930.000000   3334893   3339122   3343735   3348752   3354114  
  4920.000000   3359844   3365901   3372318   3379068   3386187  
  4910.000000   3393646   3401467   3409616   3418097   3426869  
  4900.000000   3435916   3445186   3454642   3464229   3473901  
  4890.000000   3483611   3493311   3502961   3512504   3521901  
  4880.000000   3531078   3539993   3548566   3556766   3564519  
  4870.000000   3571818   3578601   3584882   3590615   3595834  
  4860.000000   3600511   3604696   3608374   3611604   3614374  
  4850.000000   3616741   3618700   3620311   3621577   3622570  
  4840.000000   3623309   3623870   3624283   3624618   3624903  
  4830.000000   3625192   3625498   3625850   3626241   3626678  
  4820.000000   3627145   3627642   3628168   3628734   3629359  
  4810.000000   3630060   3630855   3631748   3632739   3633812  
  4800.000000   3634961   3636172   3637447   3638786   3640197  
  4790.000000   3641677   3643222   3644817   3646448   3648097  
  4780.000000   3649759   3651433   3653119   3654818   3656521  
  4770.000000   3658213   3659874   3661485   3663032   3664511  
  4760.000000   3665925   3667283   3668584   3669832   3671016  
  4750.000000   3672133   3673172   3674140   3675038   3675881  
  4740.000000   3676672   3677424   3678135   3678814   3679461  
  4730.000000   3680090   3680706   3681320   3681931   3682528  
  4720.000000   3683094   3683604   3684042   3684396   3684677  
  4710.000000   3684903   3685116   3685349   3685654   3686062  
  4700.000000   3686616   3687338   3688257   3689382   3690732  
  4690.000000   3692302   3694097   3696100   3698304   3700679  
  4680.000000   3703204   3705831   3708521   3711209   3713854  
  4670.000000   3716396   3718823   3721120   3723319   3725449  
  4660.000000   3727572   3729733   3731988   3734373   3736927  
  4650.000000   3739671   3742626   3745797   3749182   3752761  
  4640.000000   3756500   3760357   3764287   3768251   3772216  
  4630.000000   3776163   3780074   3783936   3787722   3791406  
  4620.000000   3794942   3798294   3801413   3804278   3806855  
  4610.000000   3809153   3811161   3812913   3814416   3815719  
  4600.000000   3816834   3817814   3818664   3819423   3820075  
  4590.000000   3820634   3821059   3821344   3821436   3821325  
  4580.000000   3820969   3820368   3819507   3818411   3817090  
  4570.000000   3815595   3813955   3812231   3810450   3808656  
  4560.000000   3806855   3805062   3803259   3801440   3799584  
  4550.000000   3797686   3795736   3793739   3791697   3789620  
  4540.000000   3787518   3785398   3783275   3781158   3779066  
  4530.000000   3777003   3774990   3773021   3771117   3769271  
  4520.000000   3767513   3765844   3764312   3762925   3761743  
  4510.000000   3760768   3760063   3759620   3759509   3759725  
  4500.000000   3760354   3761394   3762939   3764977   3767592  
  4490.000000   3770758   3774550   3778935   3783995   3789701  
  4480.000000   3796143   3803293   3811228   3819905   3829375  
  4470.000000   3839564   3850488   3862043   3874215   3886883  
  4460.000000   3900019   3913511   3927339   3941418   3955744  
  4450.000000   3970256   3984956   3999801   4014788   4029886  
  4440.000000   4045081   4060351   4075667   4091008   4106323  
  4430.000000   4121587   4136729   4151719   4166472   4180957  
  4420.000000   4195080   4208815   4222065   4234812   4246966  
  4410.000000   4258523   4269408   4279638   4289162   4298024  
  4400.000000   4306211   4313799   4320811   4327351   4333468  
  4390.000000   4339281   4344851   4350292   4355659   4361044  
  4380.000000   4366475   4372008   4377649   4383430   4389351  
  4370.000000   4395443   4401710   4408168   4414801   4421591  
  4360.000000   4428483   4435433   4442367   4449257   4456024  
  4350.000000   4462676   4469125   4475402   4481425   4487262  
  4340.000000   4492864   4498313   4503524   4508427   4512702  
  4330.000000   4515959   4517602   4517083   4513912   4507919  
  4320.000000   4499249   4488465   4476372   4463938   4452028  
  4310.000000   4441331   4432195   4424714   4418727   4413988  
  4300.000000   4410221   4407213   4404836   4403003   4401695  
  4290.000000   4400849   4400464   4400465   4400874   4401657  
  4280.000000   4402859   4404473   4406507   4408922   4411658  
  4270.000000   4414647   4417794   4421009   4424140   4427000  
  4260.000000   4429310   4430751   4430983   4429743   4426884  
  4250.000000   4422464   4416714   4410044   4402916   4395824  
  4240.000000   4389137   4383133   4377893   4373407   4369532  
  4230.000000   4366109   4362947   4359891   4356825   4353674  
  4220.000000   4350429   4347104   4343789   4340558   4337553  
  4210.000000   4334860   4332594   4330787   4329473   4328601  
  4200.000000   4328130   4327957   4328019   4328220   4328532  
  4190.000000   4328900   4329345   4329849   4330466   4331186  
  4180.000000   4332064   4333087   4334305   4335710   4337364  
  4170.000000   4339277   4341530   4344143   4347195   4350686  
  4160.000000   4354669   4359108   4364023   4369352   4375100  
  4150.000000   4381196   4387652   4394406   4401488   4408858  
  4140.000000   4416573   4424614   4433054   4441874   4451130  
  4130.000000   4460781   4470854   4481290   4492111   4503276  
  4120.000000   4514826   4526753   4539118   4551923   4565224  
  4110.000000   4579007   4593296   4608041   4623217   4638731  
  4100.000000   4654513   4670453   4686479   4702521   4718558  
  4090.000000   4734593   4750655   4766780   4782986   4799293  
  4080.000000   4815674   4832122   4848576   4865020   4881369  
  4070.000000   4897586   4913545   4929188   4944370   4959051  
  4060.000000   4973123   4986599   4999414   5011613   5023137  
  4050.000000   5034043   5044280   5053933   5062979   5071529  
  4040.000000   5079551   5087123   5094160   5100694   5106613  
  4030.000000   5111955   5116636   5120719   5124155   5126999  
  4020.000000   5129185   5130773   5131754   5132214   5132134  
  4010.000000   5131640   5130792   5129605   5127898   5125705  
  4000.000000   5123258  
##END= 
