##TITLE= Sample 007 By ssteindl date Montag, November 19 2018
##JCAMP-DX= 4.24
##DATA TYPE= INFRARED SPECTRUM
##ORIGIN= Exported PE Spectrum Data File
##OWNER= Sandra Steindl
##DATE= 18/11/19
##TIME= 17:27:02.00
##SPECTROMETER/DATA SYSTEM= PERKIN-ELMER Frontier FT-IR/NIR IR
##INSTRUMENT PARAMETERS=
  APODIZATION=stark
  DETECTOR=INGAAS
##RESOLUTION= 16.000000
##DELTAX= -2.000000
##XUNITS= 1/CM
##YUNITS= A
##XFACTOR= 1.00
##YFACTOR= 0.00000011920928955078
##FIRSTX= 10000.00
##LASTX= 4000.00
##NPOINTS= 3001
##FIRSTY= 0.201027
##MAXY= 0.624633
##MINY= 0.169786
##XYDATA= (X++(Y..Y))
 10000.000000   1686336   1688577   1688049   1681709   1670572  
  9990.000000   1658219   1647374   1639315   1635047   1635133  
  9980.000000   1638595   1643340   1647360   1649460   1649362  
  9970.000000   1647718   1645851   1645005   1645773   1647824  
  9960.000000   1650200   1651695   1651571   1649769   1646994  
  9950.000000   1644310   1642651   1642484   1643663   1645708  
  9940.000000   1648088   1650541   1653076   1655793   1658604  
  9930.000000   1661085   1662561   1662410   1660403   1656915  
  9920.000000   1652846   1649275   1646994   1646180   1646347  
  9910.000000   1646659   1646347   1645136   1643278   1641421  
  9900.000000   1640144   1639671   1639697   1639618   1638849  
  9890.000000   1637183   1634898   1632603   1630892   1630005  
  9880.000000   1629671   1629261   1628074   1625747   1622389  
  9870.000000   1618546   1614910   1611955   1609804   1608149  
  9860.000000   1606579   1604693   1602373   1599645   1596612  
  9850.000000   1593278   1589541   1585397   1581108   1577452  
  9840.000000   1575576   1576723   1581696   1590401   1601677  
  9830.000000   1613457   1623361   1629318   1630233   1626163  
  9820.000000   1618316   1608507   1598722   1590528   1584921  
  9810.000000   1582198   1582141   1584152   1587404   1591037  
  9800.000000   1594174   1596245   1596940   1596522   1595636  
  9790.000000   1595288   1596472   1599848   1605484   1612691  
  9780.000000   1620215   1626469   1630010   1629870   1625840  
  9770.000000   1618473   1608931   1598690   1589167   1581470  
  9760.000000   1576160   1573267   1572345   1572727   1573707  
  9750.000000   1574775   1575615   1576132   1576279   1576006  
  9740.000000   1575224   1573834   1571908   1569672   1567613  
  9730.000000   1566245   1565995   1566939   1568762   1570810  
  9720.000000   1572351   1572823   1572076   1570351   1568199  
  9710.000000   1566166   1564631   1563649   1563059   1562647  
  9700.000000   1562306   1562171   1562493   1563586   1565585  
  9690.000000   1568458   1571975   1575845   1579793   1583539  
  9680.000000   1586786   1589063   1589817   1588460   1584696  
  9670.000000   1578710   1571306   1563788   1557586   1553878  
  9660.000000   1553140   1555135   1558919   1563374   1567442  
  9650.000000   1570564   1572592   1573721   1574185   1574056  
  9640.000000   1573264   1571599   1569011   1565544   1561434  
  9630.000000   1556844   1551838   1546346   1540348   1534103  
  9620.000000   1528254   1523802   1521738   1522708   1526593  
  9610.000000   1532501   1538958   1544441   1547903   1549109  
  9600.000000   1548680   1547696   1547227   1547770   1549133  
  9590.000000   1550492   1550916   1549745   1546936   1543011  
  9580.000000   1538765   1534974   1532021   1529985   1528637  
  9570.000000   1527793   1527371   1527487   1528261   1529654  
  9560.000000   1531299   1532551   1532658   1531045   1527584  
  9550.000000   1522609   1516915   1511354   1506686   1503233  
  9540.000000   1500942   1499404   1498115   1496650   1494842  
  9530.000000   1492843   1491085   1490190   1490755   1493225  
  9520.000000   1497681   1503811   1510919   1518086   1524422  
  9510.000000   1529249   1532310   1533679   1533728   1532824  
  9500.000000   1531250   1529046   1526141   1522457   1518088  
  9490.000000   1513417   1509000   1505543   1503555   1503370  
  9480.000000   1504927   1507965   1511996   1516480   1520842  
  9470.000000   1524478   1526838   1527405   1525920   1522398  
  9460.000000   1517282   1511324   1505448   1500522   1497123  
  9450.000000   1495505   1495546   1496988   1499469   1502723  
  9440.000000   1506442   1510264   1513642   1515894   1516402  
  9430.000000   1514778   1511132   1505978   1500198   1494648  
  9420.000000   1489973   1486380   1483717   1481671   1480004  
  9410.000000   1478771   1478239   1478775   1480540   1483377  
  9400.000000   1486789   1490110   1492787   1494519   1495390  
  9390.000000   1495661   1495672   1495567   1495337   1494842  
  9380.000000   1494007   1492934   1491894   1491278   1491366  
  9370.000000   1492265   1493787   1495629   1497442   1499045  
  9360.000000   1500378   1501458   1502227   1502453   1501823  
  9350.000000   1500026   1497019   1493059   1488718   1484654  
  9340.000000   1481362   1479012   1477403   1476192   1475125  
  9330.000000   1474315   1474215   1475419   1478295   1482702  
  9320.000000   1487932   1492831   1496232   1497310   1495981  
  9310.000000   1492842   1488995   1485591   1483460   1482912  
  9300.000000   1483722   1485390   1487352   1489258   1490958  
  9290.000000   1492478   1493797   1494819   1495296   1494981  
  9280.000000   1493696   1491469   1488542   1485273   1482051  
  9270.000000   1479135   1476649   1474553   1472700   1470893  
  9260.000000   1468939   1466710   1464167   1461385   1458555  
  9250.000000   1455998   1454115   1453294   1453783   1455576  
  9240.000000   1458388   1461718   1464979   1467642   1469372  
  9230.000000   1470083   1469932   1469198   1468185   1467097  
  9220.000000   1466049   1465027   1463951   1462687   1461111  
  9210.000000   1459142   1456787   1454159   1451471   1449027  
  9200.000000   1447143   1446071   1445885   1446468   1447525  
  9190.000000   1448705   1449704   1450405   1450896   1451414  
  9180.000000   1452225   1453483   1455164   1457012   1458630  
  9170.000000   1459563   1459484   1458254   1455986   1452982  
  9160.000000   1449670   1446517   1443912   1442125   1441206  
  9150.000000   1441054   1441411   1441981   1442491   1442777  
  9140.000000   1442815   1442680   1442475   1442215   1441821  
  9130.000000   1441094   1439874   1438083   1435889   1433644  
  9120.000000   1431835   1430895   1431017   1432120   1433825  
  9110.000000   1435686   1437317   1438589   1439626   1440708  
  9100.000000   1442103   1443858   1445762   1447303   1447906  
  9090.000000   1447079   1444688   1440943   1436391   1431774  
  9080.000000   1427847   1425238   1424266   1425006   1427260  
  9070.000000   1430678   1434753   1438961   1442837   1446030  
  9060.000000   1448340   1449684   1450119   1449741   1448695  
  9050.000000   1447082   1445048   1442771   1440534   1438686  
  9040.000000   1437553   1437382   1438189   1439785   1441742  
  9030.000000   1443597   1444966   1445678   1445772   1445434  
  9020.000000   1444904   1444334   1443760   1443101   1442284  
  9010.000000   1441308   1440294   1439450   1438977   1438985  
  9000.000000   1439405   1440056   1440687   1441135   1441350  
  8990.000000   1441427   1441515   1441732   1442091   1442475  
  8980.000000   1442690   1442539   1441919   1440824   1439359  
  8970.000000   1437658   1435875   1434118   1432475   1431015  
  8960.000000   1429811   1428935   1428434   1428306   1428520  
  8950.000000   1429022   1429787   1430824   1432167   1433814  
  8940.000000   1435684   1437578   1439237   1440423   1441039  
  8930.000000   1441193   1441173   1441358   1442024   1443243  
  8920.000000   1444808   1446324   1447367   1447645   1447123  
  8910.000000   1445975   1444493   1442896   1441219   1439311  
  8900.000000   1436961   1434090   1430906   1427928   1425862  
  8890.000000   1425346   1426685   1429718   1433827   1438130  
  8880.000000   1441769   1444163   1445214   1445223   1444780  
  8870.000000   1444462   1444693   1445598   1447056   1448787  
  8860.000000   1450516   1452073   1453427   1454665   1455896  
  8850.000000   1457218   1458617   1460018   1461260   1462202  
  8840.000000   1462737   1462850   1462615   1462171   1461697  
  8830.000000   1461337   1461157   1461097   1460999   1460634  
  8820.000000   1459822   1458491   1456762   1454931   1453405  
  8810.000000   1452588   1452754   1453990   1456177   1459069  
  8800.000000   1462363   1465802   1469219   1472511   1475605  
  8790.000000   1478389   1480716   1482407   1483327   1483443  
  8780.000000   1482875   1481876   1480778   1479898   1479469  
  8770.000000   1479583   1480187   1481111   1482111   1482939  
  8760.000000   1483383   1483326   1482766   1481845   1480839  
  8750.000000   1480107   1480018   1480840   1482675   1485388  
  8740.000000   1488651   1492019   1495069   1497525   1499320  
  8730.000000   1500590   1501596   1502614   1503848   1505371  
  8720.000000   1507143   1509041   1510927   1512674   1514179  
  8710.000000   1515360   1516139   1516474   1516376   1515962  
  8700.000000   1515447   1515116   1515222   1515909   1517136  
  8690.000000   1518694   1520265   1521556   1522404   1522848  
  8680.000000   1523101   1523451   1524145   1525274   1526767  
  8670.000000   1528416   1529988   1531291   1532260   1532936  
  8660.000000   1533450   1533944   1534544   1535328   1536346  
  8650.000000   1537624   1539172   1540965   1542925   1544910  
  8640.000000   1546754   1548320   1549569   1550591   1551591  
  8630.000000   1552804   1554408   1556422   1558703   1560978  
  8620.000000   1562968   1564487   1565532   1566278   1567005  
  8610.000000   1567995   1569410   1571268   1573437   1575728  
  8600.000000   1577953   1580007   1581862   1583555   1585132  
  8590.000000   1586611   1587977   1589181   1590167   1590883  
  8580.000000   1591292   1591371   1591125   1590601   1589927  
  8570.000000   1589311   1589027   1589339   1590417   1592254  
  8560.000000   1594637   1597189   1599498   1601246   1602328  
  8550.000000   1602894   1603292   1603951   1605222   1607270  
  8540.000000   1610030   1613245   1616571   1619668   1622294  
  8530.000000   1624301   1625651   1626353   1626459   1626054  
  8520.000000   1625265   1624283   1623342   1622698   1622572  
  8510.000000   1623111   1624353   1626230   1628578   1631172  
  8500.000000   1633744   1636032   1637810   1638951   1639466  
  8490.000000   1639525   1639452   1639641   1640471   1642147  
  8480.000000   1644627   1647599   1650580   1653047   1654613  
  8470.000000   1655145   1654804   1653976   1653111   1652609  
  8460.000000   1652689   1653407   1654666   1656326   1658254  
  8450.000000   1660365   1662588   1664823   1666906   1668622  
  8440.000000   1669763   1670188   1669885   1668991   1667778  
  8430.000000   1666573   1665678   1665323   1665633   1666631  
  8420.000000   1668216   1670209   1672360   1674385   1675990  
  8410.000000   1676938   1677118   1676585   1675576   1674429  
  8400.000000   1673509   1673099   1673321   1674129   1675323  
  8390.000000   1676669   1677957   1679104   1680120   1681085  
  8380.000000   1682055   1683021   1683874   1684424   1684470  
  8370.000000   1683858   1682569   1680722   1678562   1676407  
  8360.000000   1674571   1673322   1672791   1672995   1673799  
  8350.000000   1674993   1676321   1677552   1678515   1679116  
  8340.000000   1679346   1679232   1678829   1678160   1677255  
  8330.000000   1676130   1674859   1673560   1672412   1671605  
  8320.000000   1671284   1671516   1672237   1673305   1674518  
  8310.000000   1675707   1676763   1677662   1678419   1679059  
  8300.000000   1679558   1679847   1679827   1679428   1678651  
  8290.000000   1677587   1676387   1675210   1674155   1673220  
  8280.000000   1672300   1671242   1669910   1668259   1666351  
  8270.000000   1664346   1662435   1660806   1659580   1658814  
  8260.000000   1658503   1658607   1659070   1659814   1660728  
  8250.000000   1661652   1662380   1662709   1662509   1661772  
  8240.000000   1660650   1659398   1658319   1657638   1657426  
  8230.000000   1657559   1657744   1657640   1656974   1655669  
  8220.000000   1653851   1651847   1650028   1648732   1648106  
  8210.000000   1648102   1648465   1648848   1648920   1648457  
  8200.000000   1647389   1645779   1643766   1641500   1639096  
  8190.000000   1636621   1634122   1631657   1629328   1627265  
  8180.000000   1625591   1624374   1623574   1623067   1622646  
  8170.000000   1622124   1621365   1620365   1619226   1618122  
  8160.000000   1617219   1616597   1616213   1615898   1615408  
  8150.000000   1614499   1613005   1610889   1608261   1605341  
  8140.000000   1602398   1599665   1597279   1595254   1593497  
  8130.000000   1591847   1590150   1588313   1586345   1584360  
  8120.000000   1582539   1581072   1580093   1579629   1579596  
  8110.000000   1579809   1580066   1580174   1580031   1579611  
  8100.000000   1578976   1578215   1577413   1576621   1575849  
  8090.000000   1575087   1574339   1573643   1573066   1572689  
  8080.000000   1572546   1572614   1572772   1572846   1572637  
  8070.000000   1571995   1570858   1569276   1567403   1565445  
  8060.000000   1563606   1562032   1560780   1559813   1559026  
  8050.000000   1558295   1557516   1556651   1555723   1554817  
  8040.000000   1554029   1553444   1553091   1552939   1552910  
  8030.000000   1552896   1552806   1552569   1552160   1551578  
  8020.000000   1550839   1549955   1548934   1547793   1546568  
  8010.000000   1545331   1544178   1543211   1542494   1542030  
  8000.000000   1541744   1541501   1541150   1540566   1539698  
  7990.000000   1538574   1537298   1536002   1534817   1533827  
  7980.000000   1533075   1532557   1532248   1532114   1532118  
  7970.000000   1532216   1532351   1532455   1532464   1532334  
  7960.000000   1532066   1531695   1531291   1530911   1530588  
  7950.000000   1530290   1529948   1529471   1528797   1527918  
  7940.000000   1526901   1525872   1524977   1524343   1524036  
  7930.000000   1524047   1524297   1524663   1525014   1525235  
  7920.000000   1525266   1525097   1524783   1524414   1524102  
  7910.000000   1523940   1523984   1524221   1524585   1524969  
  7900.000000   1525275   1525444   1525491   1525493   1525563  
  7890.000000   1525797   1526229   1526813   1527432   1527947  
  7880.000000   1528250   1528317   1528215   1528083   1528071  
  7870.000000   1528286   1528739   1529343   1529929   1530313  
  7860.000000   1530344   1529959   1529191   1528161   1527031  
  7850.000000   1525968   1525095   1524480   1524124   1523980  
  7840.000000   1523966   1523998   1524003   1523936   1523782  
  7830.000000   1523555   1523281   1522995   1522716   1522448  
  7820.000000   1522176   1521876   1521527   1521121   1520673  
  7810.000000   1520214   1519780   1519400   1519073   1518772  
  7800.000000   1518442   1518020   1517457   1516741   1515905  
  7790.000000   1515027   1514202   1513519   1513019   1512686  
  7780.000000   1512445   1512190   1511831   1511321   1510688  
  7770.000000   1510011   1509400   1508930   1508614   1508385  
  7760.000000   1508123   1507708   1507080   1506277   1505429  
  7750.000000   1504722   1504318   1504298   1504620   1505136  
  7740.000000   1505644   1505956   1505967   1505666   1505128  
  7730.000000   1504457   1503747   1503043   1502347   1501647  
  7720.000000   1500949   1500303   1499784   1499474   1499412  
  7710.000000   1499577   1499880   1500197   1500404   1500409  
  7700.000000   1500177   1499712   1499053   1498235   1497305  
  7690.000000   1496306   1495299   1494368   1493613   1493125  
  7680.000000   1492961   1493124   1493559   1494176   1494872  
  7670.000000   1495563   1496189   1496708   1497084   1497269  
  7660.000000   1497224   1496919   1496383   1495693   1494986  
  7650.000000   1494404   1494054   1493963   1494062   1494216  
  7640.000000   1494270   1494115   1493729   1493190   1492646  
  7630.000000   1492256   1492130   1492289   1492664   1493125  
  7620.000000   1493539   1493816   1493936   1493948   1493943  
  7610.000000   1494011   1494213   1494547   1494966   1495383  
  7600.000000   1495719   1495911   1495949   1495862   1495716  
  7590.000000   1495594   1495575   1495721   1496065   1496607  
  7580.000000   1497325   1498167   1499072   1499960   1500754  
  7570.000000   1501375   1501768   1501912   1501841   1501636  
  7560.000000   1501426   1501341   1501499   1501954   1502696  
  7550.000000   1503639   1504662   1505642   1506496   1507205  
  7540.000000   1507817   1508417   1509106   1509961   1511020  
  7530.000000   1512271   1513667   1515140   1516621   1518053  
  7520.000000   1519398   1520638   1521775   1522823   1523809  
  7510.000000   1524753   1525674   1526563   1527407   1528176  
  7500.000000   1528863   1529487   1530119   1530862   1531832  
  7490.000000   1533114   1534733   1536630   1538679   1540715  
  7480.000000   1542598   1544249   1545692   1547027   1548405  
  7470.000000   1549960   1551767   1553803   1555963   1558082  
  7460.000000   1560008   1561633   1562948   1564027   1565021  
  7450.000000   1566096   1567400   1569006   1570921   1573069  
  7440.000000   1575338   1577603   1579781   1581840   1583812  
  7430.000000   1585775   1587832   1590073   1592553   1595270  
  7420.000000   1598171   1601160   1604122   1606948   1609557  
  7410.000000   1611915   1614033   1615971   1617817   1619670  
  7400.000000   1621605   1623664   1625836   1628070   1630279  
  7390.000000   1632381   1634316   1636072   1637676   1639193  
  7380.000000   1640695   1642249   1643890   1645625   1647443  
  7370.000000   1649328   1651266   1653247   1655261   1657289  
  7360.000000   1659301   1661259   1663135   1664917   1666626  
  7350.000000   1668303   1670004   1671773   1673633   1675582  
  7340.000000   1677600   1679665   1681762   1683889   1686045  
  7330.000000   1688219   1690382   1692487   1694487   1696351  
  7320.000000   1698078   1699698   1701256   1702799   1704351  
  7310.000000   1705915   1707474   1709016   1710542   1712086  
  7300.000000   1713687   1715382   1717173   1719015   1720826  
  7290.000000   1722506   1723972   1725186   1726167   1726985  
  7280.000000   1727741   1728537   1729462   1730569   1731876  
  7270.000000   1733369   1735005   1736728   1738471   1740172  
  7260.000000   1741787   1743299   1744728   1746118   1747535  
  7250.000000   1749027   1750627   1752317   1754059   1755783  
  7240.000000   1757437   1758984   1760440   1761843   1763265  
  7230.000000   1764775   1766444   1768322   1770452   1772853  
  7220.000000   1775535   1778472   1781625   1784911   1788249  
  7210.000000   1791539   1794726   1797776   1800719   1803601  
  7200.000000   1806504   1809486   1812602   1815863   1819273  
  7190.000000   1822808   1826448   1830158   1833911   1837667  
  7180.000000   1841398   1845073   1848692   1852267   1855843  
  7170.000000   1859465   1863189   1867033   1871003   1875052  
  7160.000000   1879136   1883189   1887181   1891101   1894995  
  7150.000000   1898924   1902993   1907284   1911883   1916805  
  7140.000000   1922039   1927498   1933092   1938709   1944296  
  7130.000000   1949823   1955338   1960903   1966616   1972532  
  7120.000000   1978694   1985077   1991645   1998325   2005068  
  7110.000000   2011826   2018586   2025333   2032070   2038790  
  7100.000000   2045506   2052228   2058997   2065843   2072801  
  7090.000000   2079868   2087015   2094180   2101302   2108347  
  7080.000000   2115328   2122310   2129390   2136653   2144134  
  7070.000000   2151791   2159511   2167135   2174518   2181560  
  7060.000000   2188248   2194641   2200860   2207040   2213298  
  7050.000000   2219709   2226292   2233026   2239853   2246714  
  7040.000000   2253549   2260333   2267057   2273748   2280438  
  7030.000000   2287163   2293931   2300724   2307484   2314138  
  7020.000000   2320612   2326867   2332898   2338758   2344513  
  7010.000000   2350244   2355993   2361775   2367550   2373267  
  7000.000000   2378857   2384285   2389522   2394588   2399500  
  6990.000000   2404310   2409051   2413775   2418500   2423247  
  6980.000000   2427990   2432697   2437297   2441735   2445955  
  6970.000000   2449956   2453747   2457377   2460870   2464240  
  6960.000000   2467450   2470470   2473262   2475857   2478324  
  6950.000000   2480792   2483368   2486131   2489053   2492041  
  6940.000000   2494932   2497589   2499923   2501950   2503756  
  6930.000000   2505476   2507223   2509067   2510994   2512962  
  6920.000000   2514903   2516790   2518622   2520433   2522244  
  6910.000000   2524054   2525809   2527435   2528854   2530032  
  6900.000000   2530988   2531801   2532573   2533404   2534353  
  6890.000000   2535436   2536614   2537834   2539037   2540191  
  6880.000000   2541284   2542336   2543372   2544429   2545529  
  6870.000000   2546690   2547908   2549168   2550439   2551683  
  6860.000000   2552862   2553948   2554923   2555788   2556552  
  6850.000000   2557229   2557828   2558355   2558810   2559200  
  6840.000000   2559534   2559838   2560137   2560470   2560861  
  6830.000000   2561340   2561915   2562594   2563360   2564187  
  6820.000000   2565023   2565806   2566467   2566956   2567256  
  6810.000000   2567392   2567424   2567425   2567454   2567534  
  6800.000000   2567644   2567731   2567742   2567646   2567450  
  6790.000000   2567199   2566942   2566725   2566555   2566422  
  6780.000000   2566300   2566187   2566106   2566108   2566236  
  6770.000000   2566504   2566864   2567222   2567457   2567474  
  6760.000000   2567232   2566767   2566170   2565549   2564986  
  6750.000000   2564508   2564087   2563666   2563194   2562657  
  6740.000000   2562084   2561540   2561086   2560764   2560570  
  6730.000000   2560468   2560402   2560318   2560183   2559989  
  6720.000000   2559747   2559473   2559185   2558894   2558602  
  6710.000000   2558313   2558023   2557729   2557423   2557098  
  6700.000000   2556745   2556365   2555960   2555541   2555102  
  6690.000000   2554633   2554102   2553479   2552737   2551877  
  6680.000000   2550927   2549942   2548975   2548068   2547227  
  6670.000000   2546437   2545659   2544868   2544052   2543231  
  6660.000000   2542423   2541644   2540875   2540078   2539191  
  6650.000000   2538172   2536998   2535694   2534301   2532873  
  6640.000000   2531445   2530029   2528608   2527166   2525688  
  6630.000000   2524183   2522665   2521156   2519661   2518179  
  6620.000000   2516695   2515209   2513728   2512278   2510881  
  6610.000000   2509540   2508223   2506866   2505396   2503759  
  6600.000000   2501945   2500001   2498014   2496081   2494275  
  6590.000000   2492625   2491116   2489705   2488346   2487008  
  6580.000000   2485673   2484339   2482995   2481619   2480179  
  6570.000000   2478649   2477027   2475339   2473637   2471975  
  6560.000000   2470388   2468874   2467401   2465915   2464370  
  6550.000000   2462745   2461056   2459340   2457646   2456011  
  6540.000000   2454452   2452970   2451554   2450196   2448893  
  6530.000000   2447643   2446445   2445286   2444150   2443013  
  6520.000000   2441860   2440677   2439466   2438224   2436953  
  6510.000000   2435649   2434317   2432970   2431639   2430367  
  6500.000000   2429198   2428159   2427251   2426443   2425680  
  6490.000000   2424905   2424070   2423152   2422150   2421071  
  6480.000000   2419927   2418721   2417456   2416138   2414789  
  6470.000000   2413446   2412149   2410929   2409795   2408729  
  6460.000000   2407691   2406640   2405543   2404391   2403189  
  6450.000000   2401951   2400687   2399396   2398078   2396737  
  6440.000000   2395399   2394105   2392908   2391848   2390937  
  6430.000000   2390150   2389438   2388742   2388021   2387260  
  6420.000000   2386482   2385717   2384999   2384332   2383703  
  6410.000000   2383081   2382444   2381784   2381127   2380511  
  6400.000000   2379984   2379572   2379279   2379078   2378928  
  6390.000000   2378780   2378593   2378343   2378023   2377644  
  6380.000000   2377231   2376814   2376425   2376087   2375805  
  6370.000000   2375558   2375307   2375001   2374599   2374086  
  6360.000000   2373480   2372832   2372203   2371646   2371180  
  6350.000000   2370792   2370433   2370054   2369606   2369072  
  6340.000000   2368451   2367763   2367024   2366245   2365425  
  6330.000000   2364561   2363652   2362709   2361747   2360781  
  6320.000000   2359813   2358840   2357843   2356818   2355763  
  6310.000000   2354702   2353654   2352640   2351650   2350657  
  6300.000000   2349608   2348458   2347177   2345770   2344267  
  6290.000000   2342724   2341185   2339687   2338237   2336830  
  6280.000000   2335445   2334067   2332675   2331258   2329794  
  6270.000000   2328264   2326646   2324932   2323127   2321260  
  6260.000000   2319370   2317497   2315664   2313873   2312100  
  6250.000000   2310317   2308493   2306617   2304690   2302733  
  6240.000000   2300764   2298801   2296851   2294919   2293004  
  6230.000000   2291110   2289238   2287387   2285546   2283698  
  6220.000000   2281820   2279898   2277930   2275933   2273938  
  6210.000000   2271976   2270078   2268256   2266507   2264816  
  6200.000000   2263163   2261532   2259909   2258286   2256661  
  6190.000000   2255034   2253413   2251812   2250251   2248749  
  6180.000000   2247321   2245961   2244651   2243361   2242062  
  6170.000000   2240734   2239376   2238002   2236631   2235277  
  6160.000000   2233940   2232607   2231258   2229882   2228484  
  6150.000000   2227083   2225702   2224359   2223048   2221747  
  6140.000000   2220420   2219037   2217589   2216093   2214586  
  6130.000000   2213110   2211698   2210362   2209095   2207872  
  6120.000000   2206674   2205486   2204306   2203136   2201986  
  6110.000000   2200856   2199755   2198687   2197674   2196731  
  6100.000000   2195884   2195136   2194484   2193896   2193341  
  6090.000000   2192783   2192214   2191640   2191093   2190599  
  6080.000000   2190187   2189860   2189611   2189417   2189271  
  6070.000000   2189165   2189117   2189137   2189247   2189441  
  6060.000000   2189718   2190048   2190425   2190826   2191262  
  6050.000000   2191733   2192265   2192870   2193582   2194421  
  6040.000000   2195428   2196629   2198055   2199707   2201575  
  6030.000000   2203610   2205765   2207973   2210197   2212404  
  6020.000000   2214596   2216773   2218958   2221150   2223364  
  6010.000000   2225594   2227855   2230149   2232498   2234904  
  6000.000000   2237374   2239886   2242432   2244987   2247561  
  5990.000000   2250165   2252846   2255643   2258604   2261742  
  5980.000000   2265068   2268551   2272171   2275889   2279691  
  5970.000000   2283553   2287480   2291459   2295498   2299589  
  5960.000000   2303742   2307952   2312227   2316555   2320932  
  5950.000000   2325332   2329742   2334143   2338539   2342938  
  5940.000000   2347368   2351851   2356407   2361042   2365753  
  5930.000000   2370530   2375361   2380241   2385156   2390091  
  5920.000000   2395010   2399863   2404585   2409115   2413404  
  5910.000000   2417437   2421222   2424797   2428209   2431518  
  5900.000000   2434769   2438013   2441276   2444593   2447967  
  5890.000000   2451401   2454863   2458326   2461737   2465068  
  5880.000000   2468292   2471410   2474424   2477346   2480171  
  5870.000000   2482888   2485477   2487928   2490248   2492470  
  5860.000000   2494642   2496818   2499035   2501312   2503639  
  5850.000000   2506004   2508390   2510799   2513241   2515735  
  5840.000000   2518288   2520896   2523533   2526171   2528783  
  5830.000000   2531357   2533898   2536416   2538918   2541401  
  5820.000000   2543844   2546231   2548544   2550792   2552991  
  5810.000000   2555175   2557358   2559554   2561733   2563879  
  5800.000000   2565947   2567937   2569834   2571671   2573446  
  5790.000000   2575180   2576834   2578379   2579727   2580810  
  5780.000000   2581519   2581777   2581490   2580617   2579130  
  5770.000000   2577083   2574560   2571719   2568721   2565738  
  5760.000000   2562886   2560244   2557819   2555601   2553551  
  5750.000000   2551654   2549900   2548301   2546860   2545566  
  5740.000000   2544392   2543293   2542236   2541189   2540155  
  5730.000000   2539139   2538166   2537240   2536370   2535537  
  5720.000000   2534735   2533952   2533193   2532464   2531779  
  5710.000000   2531139   2530545   2529985   2529454   2528944  
  5700.000000   2528459   2527999   2527561   2527140   2526719  
  5690.000000   2526297   2525868   2525452   2525058   2524708  
  5680.000000   2524386   2524068   2523690   2523192   2522500  
  5670.000000   2521568   2520359   2518867   2517092   2515059  
  5660.000000   2512791   2510338   2507756   2505122   2502502  
  5650.000000   2499961   2497525   2495206   2492979   2490823  
  5640.000000   2488714   2486651   2484641   2482697   2480824  
  5630.000000   2479009   2477233   2475470   2473714   2471971  
  5620.000000   2470270   2468638   2467101   2465656   2464292  
  5610.000000   2462978   2461700   2460450   2459248   2458114  
  5600.000000   2457073   2456129   2455270   2454467   2453691  
  5590.000000   2452919   2452140   2451353   2450558   2449750  
  5580.000000   2448914   2448032   2447087   2446071   2444985  
  5570.000000   2443837   2442631   2441368   2440039   2438640  
  5560.000000   2437173   2435658   2434124   2432610   2431145  
  5550.000000   2429746   2428412   2427129   2425881   2424654  
  5540.000000   2423443   2422247   2421065   2419894   2418727  
  5530.000000   2417560   2416394   2415238   2414108   2413015  
  5520.000000   2411962   2410938   2409924   2408901   2407852  
  5510.000000   2406778   2405681   2404570   2403442   2402284  
  5500.000000   2401073   2399791   2398425   2396985   2395486  
  5490.000000   2393955   2392399   2390819   2389198   2387522  
  5480.000000   2385780   2383987   2382165   2380348   2378557  
  5470.000000   2376801   2375064   2373328   2371568   2369772  
  5460.000000   2367935   2366059   2364143   2362180   2360161  
  5450.000000   2358079   2355943   2353772   2351602   2349462  
  5440.000000   2347376   2345349   2343378   2341454   2339583  
  5430.000000   2337771   2336038   2334385   2332809   2331283  
  5420.000000   2329789   2328312   2326875   2325511   2324286  
  5410.000000   2323233   2322375   2321676   2321097   2320576  
  5400.000000   2320096   2319645   2319269   2319001   2318893  
  5390.000000   2318948   2319174   2319537   2320039   2320669  
  5380.000000   2321461   2322421   2323576   2324896   2326370  
  5370.000000   2327939   2329599   2331323   2333156   2335108  
  5360.000000   2337247   2339574   2342143   2344939   2348026  
  5350.000000   2351405   2355163   2359308   2363913   2368945  
  5340.000000   2374439   2380330   2386663   2393392   2400596  
  5330.000000   2408239   2416392   2424993   2434091   2443617  
  5320.000000   2453659   2464199   2475389   2487244   2499915  
  5310.000000   2513369   2527689   2542771   2558657   2575252  
  5300.000000   2592639   2610788   2629838   2649790   2670773  
  5290.000000   2692733   2715699   2739511   2764093   2789240  
  5280.000000   2814890   2840934   2867440   2894439   2922080  
  5270.000000   2950402   2979433   3009047   3039062   3069240  
  5260.000000   3099378   3129362   3159159   3188830   3218406  
  5250.000000   3247912   3277226   3306216   3334625   3362321  
  5240.000000   3389136   3415122   3440279   3464787   3488673  
  5230.000000   3512070   3534895   3557152   3578653   3599362  
  5220.000000   3619121   3637988   3655918   3673080   3689496  
  5210.000000   3705335   3720551   3735200   3749119   3762290  
  5200.000000   3774550   3785959   3796474   3806260   3815330  
  5190.000000   3823830   3831703   3839000   3845595   3851517  
  5180.000000   3856671   3861140   3864887   3868017   3870486  
  5170.000000   3872369   3873608   3874280   3874356   3873942  
  5160.000000   3873032   3871715   3869953   3867792   3865174  
  5150.000000   3862149   3858699   3854911   3850793   3846418  
  5140.000000   3841760   3836844   3831621   3826121   3820338  
  5130.000000   3814350   3808197   3801965   3795671   3789348  
  5120.000000   3782968   3776529   3769999   3763384   3756677  
  5110.000000   3749894   3743034   3736112   3729132   3722121  
  5100.000000   3715106   3708133   3701235   3694439   3687743  
  5090.000000   3681134   3674578   3668052   3661538   3655037  
  5080.000000   3648552   3642094   3635655   3629225   3622779  
  5070.000000   3616299   3609770   3603193   3596572   3589921  
  5060.000000   3583239   3576526   3569767   3562958   3556088  
  5050.000000   3549164   3542189   3535174   3528120   3521033  
  5040.000000   3513909   3506755   3499585   3492418   3485281  
  5030.000000   3478193   3471169   3464207   3457304   3450448  
  5020.000000   3443643   3436890   3430213   3423625   3417157  
  5010.000000   3410813   3404619   3398567   3392682   3386959  
  5000.000000   3381425   3376075   3370933   3365978   3361228  
  4990.000000   3356657   3352291   3348119   3344185   3340490  
  4980.000000   3337082   3333949   3331130   3328596   3326382  
  4970.000000   3324458   3322866   3321582   3320650   3320038  
  4960.000000   3319781   3319841   3320254   3320990   3322101  
  4950.000000   3323564   3325437   3327687   3330355   3333392  
  4940.000000   3336827   3340609   3344776   3349290   3354197  
  4930.000000   3359462   3365127   3371149   3377560   3384315  
  4920.000000   3391444   3398904   3406722   3414859   3423336  
  4910.000000   3432118   3441229   3450646   3460391   3470441  
  4900.000000   3480794   3491406   3502235   3513214   3524277  
  4890.000000   3535362   3546404   3557359   3568163   3578783  
  4880.000000   3589147   3599223   3608937   3618267   3627139  
  4870.000000   3635544   3643408   3650726   3657430   3663536  
  4860.000000   3669000   3673878   3678164   3681946   3685235  
  4850.000000   3688122   3690612   3692779   3694626   3696217  
  4840.000000   3697558   3698715   3699695   3700554   3701297  
  4830.000000   3701964   3702555   3703102   3703608   3704102  
  4820.000000   3704591   3705099   3705636   3706218   3706854  
  4810.000000   3707551   3708313   3709133   3710005   3710913  
  4800.000000   3711848   3712802   3713780   3714789   3715847  
  4790.000000   3716969   3718167   3719439   3720780   3722171  
  4780.000000   3723596   3725039   3726488   3727936   3729379  
  4770.000000   3730813   3732231   3733627   3734993   3736327  
  4760.000000   3737619   3738870   3740069   3741210   3742279  
  4750.000000   3743268   3744163   3744965   3745668   3746281  
  4740.000000   3746804   3747246   3747605   3747888   3748092  
  4730.000000   3748227   3748295   3748312   3748285   3748226  
  4720.000000   3748143   3748040   3747923   3747796   3747671  
  4710.000000   3747556   3747476   3747450   3747512   3747687  
  4700.000000   3748014   3748518   3749229   3750159   3751319  
  4690.000000   3752698   3754285   3756046   3757956   3759972  
  4680.000000   3762066   3764197   3766339   3768454   3770523  
  4670.000000   3772511   3774412   3776208   3777914   3779540  
  4660.000000   3781125   3782703   3784329   3786048   3787909  
  4650.000000   3789942   3792174   3794610   3797245   3800063  
  4640.000000   3803041   3806153   3809371   3812670   3816018  
  4630.000000   3819384   3822727   3826010   3829183   3832209  
  4620.000000   3835045   3837664   3840037   3842155   3844001  
  4610.000000   3845587   3846909   3848002   3848876   3849580  
  4600.000000   3850128   3850564   3850891   3851137   3851285  
  4590.000000   3851349   3851299   3851134   3850814   3850326  
  4580.000000   3849629   3848714   3847558   3846184   3844605  
  4570.000000   3842873   3841023   3839103   3837131   3835124  
  4560.000000   3833071   3830970   3828808   3826599   3824352  
  4550.000000   3822097   3819855   3817647   3815480   3813354  
  4540.000000   3811269   3809217   3807207   3805238   3803325  
  4530.000000   3801462   3799657   3797891   3796171   3794480  
  4520.000000   3792848   3791276   3789820   3788491   3787355  
  4510.000000   3786412   3785734   3785316   3785246   3785529  
  4500.000000   3786275   3787494   3789298   3791681   3794739  
  4490.000000   3798446   3802889   3808038   3813983   3820691  
  4480.000000   3828248   3836606   3845828   3855841   3866676  
  4470.000000   3878237   3890527   3903431   3916936   3930924  
  4460.000000   3945377   3960190   3975351   3990774   4006448  
  4450.000000   4022301   4038316   4054440   4070655   4086929  
  4440.000000   4103244   4119581   4135906   4152194   4168379  
  4430.000000   4184431   4200266   4215867   4231152   4246123  
  4420.000000   4260701   4274891   4288601   4301822   4314446  
  4410.000000   4326450   4337716   4348223   4357871   4366672  
  4400.000000   4374578   4381669   4387977   4393652   4398785  
  4390.000000   4403551   4408047   4412417   4416716   4421034  
  4380.000000   4425383   4429812   4434317   4438933   4443659  
  4370.000000   4448529   4453546   4458736   4464098   4469642  
  4360.000000   4475353   4481230   4487235   4493359   4499527  
  4350.000000   4505715   4511811   4517790   4523540   4529067  
  4340.000000   4534300   4539267   4543880   4548069   4551590  
  4330.000000   4554166   4555389   4554907   4552423   4547880  
  4320.000000   4541432   4533526   4524751   4515805   4507285  
  4310.000000   4499669   4493185   4487896   4483682   4480377  
  4300.000000   4477790   4475775   4474238   4473111   4472373  
  4290.000000   4471973   4471908   4472138   4472686   4473543  
  4280.000000   4474743   4476283   4478149   4480296   4482644  
  4270.000000   4485119   4487608   4490008   4492159   4493879  
  4260.000000   4494922   4495037   4493973   4491579   4487810  
  4250.000000   4482800   4476804   4470203   4463380   4456721  
  4240.000000   4450477   4444828   4439790   4435331   4431323  
  4230.000000   4427648   4424169   4420778   4417394   4413956  
  4220.000000   4410455   4406888   4403320   4399800   4396438  
  4210.000000   4393296   4390469   4387981   4385869   4384102  
  4200.000000   4382664   4381488   4380545   4379768   4379149  
  4190.000000   4378644   4378282   4378049   4377999   4378126  
  4180.000000   4378486   4379057   4379876   4380912   4382208  
  4170.000000   4383754   4385628   4387849   4390511   4393621  
  4160.000000   4397239   4401325   4405894   4410873   4416276  
  4150.000000   4422047   4428232   4434801   4441820   4449263  
  4140.000000   4457186   4465547   4474386   4483646   4493358  
  4130.000000   4503455   4513963   4524823   4536070   4547670  
  4120.000000   4559686   4572117   4585043   4598472   4612470  
  4110.000000   4627021   4642151   4657803   4673955   4690513  
  4100.000000   4707419   4724568   4741899   4759333   4776845  
  4090.000000   4794412   4812041   4829740   4847513   4865363  
  4080.000000   4883262   4901203   4919136   4937056   4954889  
  4070.000000   4972613   4990114   5007341   5024153   5040509  
  4060.000000   5056291   5071506   5086072   5100027   5113295  
  4050.000000   5125920   5137821   5149061   5159574   5169447  
  4040.000000   5178620   5187175   5195035   5202274   5208820  
  4030.000000   5214762   5220045   5224760   5228845   5232348  
  4020.000000   5235160   5237320   5238787   5239629   5239801  
  4010.000000   5239430   5238582   5237269   5235279   5232665  
  4000.000000   5229735  
##END= 
