##TITLE= Sample 006 By ssteindl date Montag, November 26 2018
##JCAMP-DX= 4.24
##DATA TYPE= INFRARED SPECTRUM
##ORIGIN= Exported PE Spectrum Data File
##OWNER= Sandra Steindl
##DATE= 18/11/26
##TIME= 12:56:20.00
##SPECTROMETER/DATA SYSTEM= PERKIN-ELMER Frontier FT-IR/NIR IR
##INSTRUMENT PARAMETERS=
  APODIZATION=stark
  DETECTOR=INGAAS
##RESOLUTION= 16.000000
##DELTAX= -2.000000
##XUNITS= 1/CM
##YUNITS= A
##XFACTOR= 1.00
##YFACTOR= 0.00000011920928955078
##FIRSTX= 10000.00
##LASTX= 4000.00
##NPOINTS= 3001
##FIRSTY= 0.217763
##MAXY= 0.620104
##MINY= 0.189261
##XYDATA= (X++(Y..Y))
 10000.000000   1826729   1821015   1815605   1811172   1808391  
  9990.000000   1807471   1808098   1809506   1810812   1811147  
  9980.000000   1809837   1806504   1801275   1794767   1788061  
  9970.000000   1782405   1778950   1778317   1780364   1784127  
  9960.000000   1788121   1790772   1790984   1788428   1783704  
  9950.000000   1777987   1772703   1768909   1767108   1767051  
  9940.000000   1768046   1769210   1769882   1769823   1769272  
  9930.000000   1768871   1769370   1771511   1775658   1781836  
  9920.000000   1789514   1797816   1805609   1811793   1815605  
  9910.000000   1816715   1815392   1812207   1807891   1802897  
  9900.000000   1797300   1790762   1782839   1773395   1762906  
  9890.000000   1752658   1744372   1739878   1740282   1745740  
  9880.000000   1755123   1766481   1777504   1786218   1791488  
  9870.000000   1793088   1791664   1788150   1783553   1778469  
  9860.000000   1773239   1767901   1762546   1757357   1752686  
  9850.000000   1748979   1746548   1745617   1746134   1747990  
  9840.000000   1750962   1754818   1759299   1764010   1768501  
  9830.000000   1772163   1774456   1774937   1773497   1770396  
  9820.000000   1766323   1762252   1759267   1758310   1759931  
  9810.000000   1764171   1770423   1777626   1784353   1789283  
  9800.000000   1791450   1790603   1787247   1782491   1777720  
  9790.000000   1774089   1772218   1771930   1772408   1772488  
  9780.000000   1771114   1767779   1762662   1756680   1751074  
  9770.000000   1747145   1745734   1747123   1750885   1756103  
  9760.000000   1761568   1766087   1768747   1769050   1767032  
  9750.000000   1763129   1758112   1752755   1747734   1743313  
  9740.000000   1739449   1735754   1731834   1727466   1722797  
  9730.000000   1718409   1715083   1713668   1714660   1718174  
  9720.000000   1723799   1730831   1738409   1745748   1752241  
  9710.000000   1757447   1761095   1762947   1762896   1760881  
  9700.000000   1757079   1751810   1745589   1738955   1732373  
  9690.000000   1726187   1720581   1715764   1711941   1709468  
  9680.000000   1708626   1709581   1712140   1715745   1719556  
  9670.000000   1722644   1724327   1724291   1722765   1720289  
  9660.000000   1717611   1715325   1713806   1713122   1713171  
  9650.000000   1713807   1714952   1716614   1718805   1721443  
  9640.000000   1724297   1726998   1729155   1730451   1730780  
  9630.000000   1730220   1729037   1727575   1726187   1725207  
  9620.000000   1724880   1725429   1726950   1729482   1732867  
  9610.000000   1736813   1740842   1744425   1747025   1748254  
  9600.000000   1747876   1745887   1742451   1737925   1732786  
  9590.000000   1727617   1723000   1719419   1717092   1715902  
  9580.000000   1715333   1714635   1712999   1709876   1705162  
  9570.000000   1699285   1693080   1687492   1683296   1680810  
  9560.000000   1679908   1680071   1680703   1681300   1681626  
  9550.000000   1681687   1681626   1681599   1681696   1681955  
  9540.000000   1682434   1683243   1684552   1686458   1688896  
  9530.000000   1691513   1693731   1694877   1694458   1692361  
  9520.000000   1688969   1685039   1681418   1678745   1677181  
  9510.000000   1676457   1676001   1675307   1674139   1672690  
  9500.000000   1671432   1670899   1671366   1672662   1674190  
  9490.000000   1675094   1674665   1672552   1669001   1664671  
  9480.000000   1660459   1657132   1655133   1654502   1654963  
  9470.000000   1656134   1657697   1659538   1661686   1664224  
  9460.000000   1667096   1670075   1672773   1674785   1675873  
  9450.000000   1676019   1675473   1674570   1673597   1672625  
  9440.000000   1671489   1669905   1667664   1664835   1661805  
  9430.000000   1659191   1657578   1657305   1658265   1659946  
  9420.000000   1661583   1662467   1662226   1660973   1659235  
  9410.000000   1657718   1656978   1657235   1658285   1659673  
  9400.000000   1660897   1661637   1661870   1661792   1661674  
  9390.000000   1661595   1661370   1660559   1658719   1655616  
  9380.000000   1651397   1646579   1641882   1638048   1635597  
  9370.000000   1634789   1635571   1637712   1640876   1644691  
  9360.000000   1648745   1652534   1655495   1657034   1656758  
  9350.000000   1654587   1650938   1646588   1642539   1639656  
  9340.000000   1638461   1638978   1640789   1643239   1645656  
  9330.000000   1647627   1649008   1649950   1650659   1651341  
  9320.000000   1652065   1652829   1653587   1654314   1655006  
  9310.000000   1655623   1656061   1656110   1655539   1654140  
  9300.000000   1651848   1648756   1645108   1641208   1637339  
  9290.000000   1633699   1630414   1627608   1625462   1624254  
  9280.000000   1624263   1625654   1628310   1631818   1635534  
  9270.000000   1638781   1641069   1642215   1642411   1642066  
  9260.000000   1641673   1641545   1641768   1642179   1642528  
  9250.000000   1642595   1642277   1641649   1640851   1640085  
  9240.000000   1639433   1638950   1638602   1638415   1638435  
  9230.000000   1638722   1639247   1639828   1640128   1639719  
  9220.000000   1638211   1635393   1631352   1626492   1621462  
  9210.000000   1616948   1613500   1611397   1610618   1610869  
  9200.000000   1611678   1612549   1613110   1613187   1612833  
  9190.000000   1612267   1611828   1611838   1612519   1613880  
  9180.000000   1615737   1617735   1619503   1620741   1621350  
  9170.000000   1621430   1621252   1621122   1621251   1621668  
  9160.000000   1622213   1622631   1622670   1622223   1621349  
  9150.000000   1620295   1619375   1618885   1618966   1619580  
  9140.000000   1620499   1621396   1621921   1621793   1620861  
  9130.000000   1619160   1616911   1614475   1612257   1610630  
  9120.000000   1609823   1609862   1610524   1611430   1612165  
  9110.000000   1612419   1612074   1611214   1610074   1608909  
  9100.000000   1607889   1606999   1606092   1604968   1603521  
  9090.000000   1601814   1600072   1598626   1597761   1597638  
  9080.000000   1598206   1599257   1600502   1601678   1602621  
  9070.000000   1603230   1603465   1603258   1602541   1601223  
  9060.000000   1599309   1596939   1594449   1592270   1590821  
  9050.000000   1590366   1590940   1592336   1594171   1596049  
  9040.000000   1597684   1598981   1599997   1600883   1601777  
  9030.000000   1602735   1603698   1604550   1605194   1605607  
  9020.000000   1605854   1606055   1606338   1606748   1607218  
  9010.000000   1607568   1607588   1607068   1605896   1604061  
  9000.000000   1601691   1599008   1596273   1593800   1591894  
  8990.000000   1590860   1590916   1592194   1594681   1598195  
  8980.000000   1602349   1606613   1610403   1613177   1614564  
  8970.000000   1614439   1613002   1610683   1608058   1605677  
  8960.000000   1603956   1603079   1602955   1603325   1603838  
  8950.000000   1604225   1604310   1604098   1603679   1603192  
  8940.000000   1602715   1602238   1601678   1600907   1599835  
  8930.000000   1598426   1596743   1594907   1593075   1591410  
  8920.000000   1590069   1589187   1588866   1589153   1590021  
  8910.000000   1591333   1592845   1594249   1595267   1595735  
  8900.000000   1595664   1595252   1594813   1594676   1595061  
  8890.000000   1596005   1597354   1598823   1600120   1601008  
  8880.000000   1601390   1601246   1600629   1599573   1598099  
  8870.000000   1596226   1594031   1591720   1589617   1588136  
  8860.000000   1587636   1588353   1590293   1593231   1596751  
  8850.000000   1600349   1603566   1606039   1607570   1608082  
  8840.000000   1607654   1606461   1604803   1603046   1601614  
  8830.000000   1600893   1601153   1602456   1604609   1607227  
  8820.000000   1609811   1611936   1613338   1614002   1614128  
  8810.000000   1614022   1613990   1614197   1614662   1615256  
  8800.000000   1615812   1616203   1616400   1616505   1616676  
  8790.000000   1617111   1617939   1619233   1620965   1623046  
  8780.000000   1625313   1627547   1629482   1630833   1631361  
  8770.000000   1630922   1629563   1627515   1625198   1623088  
  8760.000000   1621602   1620956   1621112   1621812   1622681  
  8750.000000   1623401   1623811   1624007   1624263   1624938  
  8740.000000   1626299   1628416   1631127   1634072   1636835  
  8730.000000   1639023   1640415   1640955   1640768   1640058  
  8720.000000   1639067   1638004   1637055   1636365   1636068  
  8710.000000   1636252   1636964   1638162   1639713   1641423  
  8700.000000   1643072   1644516   1645713   1646764   1647868  
  8690.000000   1649248   1651080   1653406   1656128   1659002  
  8680.000000   1661727   1663998   1665609   1666475   1666677  
  8670.000000   1666397   1665903   1665457   1665285   1665513  
  8660.000000   1666153   1667123   1668286   1669538   1670835  
  8650.000000   1672250   1673924   1676035   1678693   1681880  
  8640.000000   1685402   1688925   1692065   1694477   1695975  
  8630.000000   1696567   1696468   1696017   1695574   1695432  
  8620.000000   1695740   1696512   1697643   1698979   1700358  
  8610.000000   1701659   1702788   1703707   1704396   1704881  
  8600.000000   1705209   1705470   1705775   1706243   1706970  
  8590.000000   1707992   1709269   1710677   1712034   1713157  
  8580.000000   1713906   1714231   1714186   1713922   1713658  
  8570.000000   1713616   1713966   1714767   1715960   1717373  
  8560.000000   1718785   1719983   1720843   1721363   1721674  
  8550.000000   1721986   1722522   1723439   1724775   1726447  
  8540.000000   1728285   1730099   1731755   1733209   1734516  
  8530.000000   1735777   1737087   1738475   1739885   1741197  
  8520.000000   1742270   1743014   1743422   1743597   1743716  
  8510.000000   1743990   1744585   1745583   1746950   1748538  
  8500.000000   1750127   1751471   1752375   1752727   1752548  
  8490.000000   1751978   1751257   1750669   1750479   1750879  
  8480.000000   1751959   1753690   1755951   1758554   1761303  
  8470.000000   1764001   1766487   1768631   1770363   1771655  
  8460.000000   1772545   1773144   1773629   1774214   1775091  
  8450.000000   1776404   1778200   1780428   1782918   1785443  
  8440.000000   1787750   1789622   1790880   1791443   1791327  
  8430.000000   1790665   1789676   1788654   1787905   1787687  
  8420.000000   1788114   1789140   1790539   1791987   1793132  
  8410.000000   1793721   1793665   1793065   1792170   1791275  
  8400.000000   1790630   1790354   1790433   1790745   1791135  
  8390.000000   1791479   1791729   1791930   1792170   1792564  
  8380.000000   1793181   1794056   1795159   1796416   1797713  
  8370.000000   1798894   1799795   1800251   1800156   1799481  
  8360.000000   1798317   1796863   1795389   1794168   1793388  
  8350.000000   1793119   1793283   1793725   1794246   1794703  
  8340.000000   1795025   1795233   1795390   1795555   1795746  
  8330.000000   1795918   1795991   1795867   1795494   1794862  
  8320.000000   1794028   1793085   1792142   1791315   1790683  
  8310.000000   1790321   1790244   1790449   1790871   1791418  
  8300.000000   1791968   1792404   1792635   1792605   1792301  
  8290.000000   1791726   1790891   1789787   1788405   1786746  
  8280.000000   1784864   1782882   1780988   1779396   1778287  
  8270.000000   1777765   1777810   1778297   1779016   1779738  
  8260.000000   1780277   1780529   1780482   1780202   1779795  
  8250.000000   1779383   1779074   1778944   1779033   1779325  
  8240.000000   1779761   1780229   1780582   1780650   1780266  
  8230.000000   1779311   1777728   1775578   1773028   1770348  
  8220.000000   1767850   1765839   1764530   1764004   1764151  
  8210.000000   1764702   1765266   1765462   1765017   1763853  
  8200.000000   1762106   1760072   1758111   1756510   1755398  
  8190.000000   1754705   1754216   1753675   1752900   1751864  
  8180.000000   1750678   1749549   1748644   1748041   1747655  
  8170.000000   1747301   1746752   1745847   1744554   1742972  
  8160.000000   1741277   1739640   1738151   1736799   1735488  
  8150.000000   1734097   1732545   1730821   1728991   1727150  
  8140.000000   1725382   1723718   1722141   1720615   1719118  
  8130.000000   1717672   1716346   1715218   1714353   1713756  
  8120.000000   1713370   1713088   1712788   1712376   1711808  
  8110.000000   1711099   1710307   1709501   1708739   1708040  
  8100.000000   1707383   1706705   1705926   1704959   1703749  
  8090.000000   1702279   1700595   1698790   1696991   1695330  
  8080.000000   1693906   1692768   1691900   1691248   1690735  
  8070.000000   1690298   1689899   1689532   1689203   1688910  
  8060.000000   1688627   1688295   1687842   1687202   1686342  
  8050.000000   1685274   1684062   1682801   1681596   1680543  
  8040.000000   1679696   1679066   1678601   1678210   1677766  
  8030.000000   1677144   1676258   1675080   1673672   1672155  
  8020.000000   1670687   1669401   1668369   1667571   1666919  
  8010.000000   1666304   1665651   1664971   1664355   1663951  
  8000.000000   1663882   1664193   1664804   1665532   1666145  
  7990.000000   1666434   1666295   1665734   1664868   1663854  
  7980.000000   1662841   1661914   1661100   1660382   1659739  
  7970.000000   1659172   1658702   1658355   1658129   1657984  
  7960.000000   1657849   1657652   1657358   1656987   1656605  
  7950.000000   1656293   1656109   1656058   1656100   1656167  
  7940.000000   1656216   1656243   1656296   1656435   1656685  
  7930.000000   1657006   1657287   1657384   1657188   1656677  
  7920.000000   1655955   1655211   1654662   1654458   1654624  
  7910.000000   1655034   1655464   1655673   1655497   1654913  
  7900.000000   1654041   1653108   1652356   1651974   1652031  
  7890.000000   1652485   1653204   1654024   1654800   1655435  
  7880.000000   1655882   1656130   1656186   1656057   1655757  
  7870.000000   1655306   1654747   1654140   1653560   1653079  
  7860.000000   1652747   1652591   1652606   1652767   1653024  
  7850.000000   1653323   1653593   1653761   1653757   1653533  
  7840.000000   1653084   1652452   1651735   1651060   1650545  
  7830.000000   1650267   1650231   1650383   1650616   1650839  
  7820.000000   1650987   1651069   1651132   1651249   1651455  
  7810.000000   1651728   1651969   1652031   1651771   1651089  
  7800.000000   1649984   1648543   1646922   1645302   1643833  
  7790.000000   1642613   1641663   1640963   1640461   1640116  
  7780.000000   1639892   1639771   1639727   1639725   1639708  
  7770.000000   1639615   1639400   1639042   1638566   1638022  
  7760.000000   1637480   1636991   1636577   1636217   1635861  
  7750.000000   1635442   1634910   1634245   1633468   1632631  
  7740.000000   1631806   1631056   1630424   1629922   1629535  
  7730.000000   1629232   1628980   1628759   1628562   1628398  
  7720.000000   1628277   1628203   1628164   1628132   1628070  
  7710.000000   1627936   1627699   1627342   1626866   1626289  
  7700.000000   1625640   1624951   1624259   1623596   1622988  
  7690.000000   1622445   1621962   1621516   1621069   1620586  
  7680.000000   1620046   1619454   1618848   1618284   1617826  
  7670.000000   1617514   1617359   1617331   1617385   1617469  
  7660.000000   1617556   1617641   1617744   1617888   1618080  
  7650.000000   1618303   1618517   1618685   1618783   1618823  
  7640.000000   1618846   1618902   1619026   1619213   1619415  
  7630.000000   1619552   1619547   1619343   1618934   1618355  
  7620.000000   1617665   1616926   1616184   1615469   1614807  
  7610.000000   1614231   1613791   1613543   1613526   1613745  
  7600.000000   1614152   1614663   1615181   1615630   1615990  
  7590.000000   1616294   1616618   1617036   1617591   1618254  
  7580.000000   1618941   1619524   1619890   1619963   1619740  
  7570.000000   1619285   1618713   1618160   1617747   1617563  
  7560.000000   1617647   1617997   1618575   1619321   1620167  
  7550.000000   1621047   1621911   1622723   1623473   1624151  
  7540.000000   1624764   1625301   1625760   1626120   1626389  
  7530.000000   1626583   1626758   1626989   1627367   1627970  
  7520.000000   1628853   1630028   1631466   1633101   1634844  
  7510.000000   1636594   1638260   1639755   1641029   1642055  
  7500.000000   1642865   1643525   1644147   1644842   1645706  
  7490.000000   1646778   1648041   1649416   1650803   1652105  
  7480.000000   1653277   1654336   1655357   1656440   1657681  
  7470.000000   1659128   1660777   1662568   1664421   1666250  
  7460.000000   1668008   1669680   1671298   1672911   1674575  
  7450.000000   1676323   1678169   1680083   1682020   1683913  
  7440.000000   1685707   1687362   1688878   1690292   1691676  
  7430.000000   1693121   1694716   1696532   1698596   1700896  
  7420.000000   1703382   1705981   1708611   1711192   1713661  
  7410.000000   1715971   1718098   1720041   1721828   1723506  
  7400.000000   1725140   1726792   1728508   1730306   1732168  
  7390.000000   1734055   1735922   1737743   1739516   1741269  
  7380.000000   1743044   1744879   1746786   1748749   1750730  
  7370.000000   1752687   1754591   1756436   1758237   1760018  
  7360.000000   1761798   1763583   1765366   1767131   1768871  
  7350.000000   1770587   1772293   1774006   1775738   1777487  
  7340.000000   1779243   1780994   1782738   1784489   1786269  
  7330.000000   1788110   1790028   1792032   1794107   1796230  
  7320.000000   1798366   1800482   1802537   1804484   1806274  
  7310.000000   1807860   1809219   1810361   1811343   1812256  
  7300.000000   1813205   1814279   1815521   1816924   1818425  
  7290.000000   1819943   1821396   1822741   1823969   1825106  
  7280.000000   1826182   1827223   1828229   1829182   1830065  
  7270.000000   1830866   1831604   1832313   1833041   1833826  
  7260.000000   1834688   1835619   1836600   1837609   1838638  
  7250.000000   1839691   1840794   1841960   1843204   1844502  
  7240.000000   1845829   1847136   1848408   1849641   1850888  
  7230.000000   1852220   1853736   1855516   1857619   1860046  
  7220.000000   1862757   1865660   1868655   1871630   1874513  
  7210.000000   1877255   1879867   1882377   1884850   1887332  
  7200.000000   1889865   1892455   1895106   1897805   1900562  
  7190.000000   1903396   1906349   1909460   1912757   1916236  
  7180.000000   1919857   1923547   1927225   1930809   1934255  
  7170.000000   1937539   1940701   1943788   1946888   1950061  
  7160.000000   1953363   1956794   1960340   1963953   1967607  
  7150.000000   1971287   1975033   1978909   1983018   1987437  
  7140.000000   1992217   1997325   2002684   2008153   2013617  
  7130.000000   2018972   2024201   2029322   2034429   2039598  
  7120.000000   2044915   2050398   2056048   2061812   2067650  
  7110.000000   2073519   2079419   2085354   2091354   2097430  
  7100.000000   2103595   2109836   2116146   2122508   2128921  
  7090.000000   2135383   2141904   2148484   2155124   2161806  
  7080.000000   2168515   2175217   2181885   2188480   2194982  
  7070.000000   2201372   2207661   2213872   2220054   2226257  
  7060.000000   2232532   2238918   2245434   2252088   2258874  
  7050.000000   2265784   2272798   2279883   2286987   2294036  
  7040.000000   2300949   2307656   2314123   2320364   2326440  
  7030.000000   2332439   2338440   2344490   2350582   2356681  
  7020.000000   2362730   2368707   2374615   2380512   2386445  
  7010.000000   2392455   2398515   2404557   2410471   2416162  
  7000.000000   2421569   2426698   2431598   2436348   2441004  
  6990.000000   2445607   2450149   2454626   2459024   2463367  
  6980.000000   2467680   2472007   2476348   2480693   2484976  
  6970.000000   2489141   2493123   2496900   2500462   2503835  
  6960.000000   2507032   2510076   2512968   2515729   2518375  
  6950.000000   2520956   2523505   2526064   2528626   2531173  
  6940.000000   2533648   2536012   2538233   2540324   2542307  
  6930.000000   2544219   2546074   2547872   2549590   2551216  
  6920.000000   2552753   2554241   2555732   2557282   2558912  
  6910.000000   2560616   2562350   2564072   2565747   2567381  
  6900.000000   2568996   2570632   2572301   2573988   2575644  
  6890.000000   2577203   2578610   2579836   2580888   2581800  
  6880.000000   2582614   2583379   2584131   2584916   2585774  
  6870.000000   2586756   2587888   2589175   2590574   2592003  
  6860.000000   2593361   2594557   2595546   2596339   2596994  
  6850.000000   2597595   2598210   2598875   2599590   2600330  
  6840.000000   2601073   2601820   2602586   2603398   2604263  
  6830.000000   2605163   2606048   2606867   2607580   2608191  
  6820.000000   2608738   2609285   2609883   2610561   2611301  
  6810.000000   2612069   2612820   2613531   2614199   2614841  
  6800.000000   2615462   2616053   2616564   2616938   2617119  
  6790.000000   2617091   2616877   2616543   2616168   2615822  
  6780.000000   2615540   2615321   2615135   2614947   2614727  
  6770.000000   2614471   2614193   2613927   2613703   2613557  
  6760.000000   2613509   2613575   2613749   2614013   2614325  
  6750.000000   2614630   2614868   2614989   2614971   2614822  
  6740.000000   2614580   2614294   2614004   2613731   2613466  
  6730.000000   2613182   2612848   2612452   2612001   2611529  
  6720.000000   2611079   2610696   2610407   2610225   2610137  
  6710.000000   2610124   2610152   2610185   2610180   2610093  
  6700.000000   2609884   2609528   2609015   2608365   2607616  
  6690.000000   2606817   2606013   2605239   2604502   2603797  
  6680.000000   2603095   2602371   2601594   2600749   2599828  
  6670.000000   2598847   2597823   2596793   2595785   2594822  
  6660.000000   2593905   2593014   2592110   2591153   2590111  
  6650.000000   2588979   2587775   2586542   2585314   2584118  
  6640.000000   2582948   2581787   2580601   2579376   2578114  
  6630.000000   2576841   2575585   2574363   2573163   2571950  
  6620.000000   2570673   2569293   2567795   2566203   2564565  
  6610.000000   2562936   2561357   2559841   2558373   2556927  
  6600.000000   2555472   2553996   2552497   2550986   2549470  
  6590.000000   2547952   2546428   2544898   2543365   2541840  
  6580.000000   2540337   2538856   2537386   2535894   2534346  
  6570.000000   2532713   2530994   2529220   2527445   2525738  
  6560.000000   2524157   2522735   2521475   2520352   2519322  
  6550.000000   2518331   2517326   2516257   2515087   2513795  
  6540.000000   2512386   2510886   2509348   2507832   2506394  
  6530.000000   2505063   2503841   2502702   2501611   2500543  
  6520.000000   2499488   2498463   2497489   2496580   2495729  
  6510.000000   2494905   2494063   2493165   2492192   2491150  
  6500.000000   2490068   2488975   2487886   2486799   2485691  
  6490.000000   2484541   2483342   2482109   2480880   2479700  
  6480.000000   2478602   2477599   2476672   2475784   2474888  
  6470.000000   2473944   2472924   2471824   2470655   2469446  
  6460.000000   2468238   2467078   2466012   2465072   2464267  
  6450.000000   2463571   2462933   2462282   2461557   2460723  
  6440.000000   2459783   2458774   2457754   2456769   2455848  
  6430.000000   2454983   2454152   2453322   2452483   2451640  
  6420.000000   2450822   2450056   2449358   2448723   2448131  
  6410.000000   2447563   2447012   2446491   2446032   2445665  
  6400.000000   2445404   2445235   2445120   2445005   2444844  
  6390.000000   2444608   2444296   2443922   2443517   2443108  
  6380.000000   2442718   2442364   2442058   2441811   2441626  
  6370.000000   2441496   2441399   2441303   2441167   2440961  
  6360.000000   2440667   2440285   2439831   2439323   2438776  
  6350.000000   2438199   2437594   2436971   2436344   2435741  
  6340.000000   2435181   2434683   2434238   2433827   2433415  
  6330.000000   2432978   2432499   2431981   2431432   2430859  
  6320.000000   2430251   2429587   2428838   2427985   2427032  
  6310.000000   2426011   2424964   2423941   2422960   2422022  
  6300.000000   2421092   2420134   2419111   2418019   2416860  
  6290.000000   2415662   2414439   2413205   2411946   2410649  
  6280.000000   2409294   2407877   2406392   2404851   2403257  
  6270.000000   2401618   2399931   2398211   2396469   2394734  
  6260.000000   2393027   2391363   2389726   2388083   2386381  
  6250.000000   2384572   2382629   2380561   2378405   2376219  
  6240.000000   2374060   2371971   2369968   2368047   2366189  
  6230.000000   2364373   2362581   2360796   2359004   2357192  
  6220.000000   2355347   2353462   2351542   2349599   2347655  
  6210.000000   2345732   2343845   2341995   2340177   2338378  
  6200.000000   2336592   2334821   2333071   2331355   2329677  
  6190.000000   2328038   2326430   2324842   2323270   2321714  
  6180.000000   2320182   2318678   2317209   2315769   2314354  
  6170.000000   2312953   2311564   2310182   2308805   2307421  
  6160.000000   2306017   2304568   2303056   2301474   2299838  
  6150.000000   2298183   2296558   2295008   2293569   2292251  
  6140.000000   2291040   2289906   2288812   2287725   2286618  
  6130.000000   2285476   2284294   2283068   2281807   2280520  
  6120.000000   2279227   2277947   2276701   2275500   2274353  
  6110.000000   2273254   2272200   2271188   2270224   2269317  
  6100.000000   2268484   2267730   2267059   2266458   2265913  
  6090.000000   2265399   2264903   2264408   2263914   2263415  
  6080.000000   2262924   2262447   2262013   2261641   2261363  
  6070.000000   2261195   2261147   2261199   2261332   2261510  
  6060.000000   2261720   2261954   2262241   2262602   2263072  
  6050.000000   2263650   2264331   2265074   2265856   2266652  
  6040.000000   2267481   2268372   2269385   2270554   2271910  
  6030.000000   2273437   2275113   2276889   2278737   2280623  
  6020.000000   2282541   2284471   2286404   2288306   2290162  
  6010.000000   2291949   2293684   2295394   2297138   2298966  
  6000.000000   2300926   2303024   2305253   2307577   2309968  
  5990.000000   2312396   2314861   2317365   2319929   2322555  
  5980.000000   2325256   2328017   2330839   2333713   2336652  
  5970.000000   2339662   2342766   2345968   2349280   2352693  
  5960.000000   2356203   2359792   2363452   2367156   2370889  
  5950.000000   2374619   2378328   2381997   2385629   2389235  
  5940.000000   2392847   2396495   2400209   2404004   2407882  
  5930.000000   2411831   2415829   2419853   2423875   2427870  
  5920.000000   2431806   2435653   2439379   2442960   2446382  
  5910.000000   2449650   2452776   2455784   2458695   2461532  
  5900.000000   2464305   2467036   2469732   2472421   2475118  
  5890.000000   2477847   2480616   2483434   2486288   2489170  
  5880.000000   2492055   2494919   2497728   2500447   2503038  
  5870.000000   2505473   2507740   2509856   2511864   2513824  
  5860.000000   2515804   2517851   2519992   2522221   2524523  
  5850.000000   2526879   2529284   2531752   2534309   2536981  
  5840.000000   2539776   2542680   2545661   2548678   2551700  
  5830.000000   2554706   2557692   2560659   2563603   2566508  
  5820.000000   2569349   2572103   2574756   2577317   2579800  
  5810.000000   2582234   2584625   2586977   2589256   2591449  
  5800.000000   2593523   2595498   2597375   2599206   2600990  
  5790.000000   2602745   2604419   2605969   2607295   2608324  
  5780.000000   2608954   2609124   2608761   2607846   2606371  
  5770.000000   2604403   2602032   2599416   2596705   2594061  
  5760.000000   2591585   2589342   2587324   2585502   2583820  
  5750.000000   2582243   2580745   2579322   2577977   2576706  
  5740.000000   2575505   2574358   2573264   2572220   2571245  
  5730.000000   2570349   2569547   2568827   2568178   2567571  
  5720.000000   2566998   2566449   2565940   2565483   2565092  
  5710.000000   2564755   2564455   2564158   2563842   2563498  
  5700.000000   2563139   2562794   2562492   2562254   2562080  
  5690.000000   2561960   2561864   2561776   2561671   2561546  
  5680.000000   2561388   2561197   2560951   2560638   2560224  
  5670.000000   2559687   2558994   2558118   2557029   2555711  
  5660.000000   2554153   2552377   2550422   2548362   2546269  
  5650.000000   2544225   2542276   2540450   2538738   2537120  
  5640.000000   2535564   2534052   2532569   2531116   2529692  
  5630.000000   2528294   2526920   2525564   2524231   2522926  
  5620.000000   2521664   2520453   2519303   2518205   2517155  
  5610.000000   2516142   2515164   2514227   2513339   2512505  
  5600.000000   2511723   2510977   2510248   2509518   2508780  
  5590.000000   2508039   2507304   2506582   2505865   2505135  
  5580.000000   2504365   2503533   2502633   2501676   2500684  
  5570.000000   2499681   2498674   2497653   2496591   2495465  
  5560.000000   2494261   2492989   2491681   2490379   2489121  
  5550.000000   2487934   2486822   2485775   2484780   2483823  
  5540.000000   2482899   2482003   2481127   2480258   2479379  
  5530.000000   2478474   2477538   2476580   2475616   2474667  
  5520.000000   2473745   2472849   2471961   2471062   2470130  
  5510.000000   2469151   2468118   2467032   2465888   2464689  
  5500.000000   2463431   2462129   2460802   2459485   2458207  
  5490.000000   2456985   2455803   2454626   2453396   2452068  
  5480.000000   2450612   2449036   2447372   2445675   2443986  
  5470.000000   2442333   2440711   2439100   2437464   2435778  
  5460.000000   2434021   2432188   2430276   2428290   2426234  
  5450.000000   2424124   2421984   2419848   2417751   2415718  
  5440.000000   2413760   2411871   2410041   2408258   2406527  
  5430.000000   2404851   2403239   2401678   2400142   2398585  
  5420.000000   2396984   2395328   2393669   2392082   2390678  
  5410.000000   2389527   2388666   2388051   2387609   2387239  
  5400.000000   2386880   2386491   2386097   2385730   2385448  
  5390.000000   2385273   2385226   2385291   2385480   2385788  
  5380.000000   2386254   2386891   2387731   2388749   2389932  
  5370.000000   2391221   2392600   2394028   2395535   2397114  
  5360.000000   2398820   2400649   2402658   2404846   2407293  
  5350.000000   2410026   2413149   2416688   2420721   2425215  
  5340.000000   2430188   2435562   2441356   2447510   2454077  
  5330.000000   2461014   2468377   2476101   2484227   2492688  
  5320.000000   2501559   2510820   2520605   2530929   2541938  
  5310.000000   2553617   2566062   2579203   2593095   2607657  
  5300.000000   2622958   2638950   2655740   2673313   2691794  
  5290.000000   2711157   2731475   2752647   2774643   2797286  
  5280.000000   2820513   2844192   2868361   2893022   2918310  
  5270.000000   2944263   2970926   2998185   3025872   3053745  
  5260.000000   3081604   3109329   3136905   3164409   3191908  
  5250.000000   3219443   3246907   3274147   3300885   3326949  
  5240.000000   3352153   3376533   3400104   3423055   3445440  
  5230.000000   3467391   3488825   3509719   3529871   3549222  
  5220.000000   3567618   3585125   3601733   3617634   3632883  
  5210.000000   3647657   3661918   3675704   3688836   3701272  
  5200.000000   3712836   3723573   3733440   3742597   3751062  
  5190.000000   3758978   3766294   3773059   3779162   3784636  
  5180.000000   3789411   3793580   3797124   3800146   3802604  
  5170.000000   3804550   3805911   3806738   3806997   3806790  
  5160.000000   3806127   3805114   3803731   3802027   3799938  
  5150.000000   3797486   3794622   3791401   3787816   3783936  
  5140.000000   3779759   3775337   3770660   3765780   3760705  
  5130.000000   3755499   3750179   3744789   3739315   3733760  
  5120.000000   3728087   3722299   3716392   3710408   3704377  
  5110.000000   3698347   3692335   3686354   3680393   3674447  
  5100.000000   3668512   3662600   3656725   3650903   3645135  
  5090.000000   3639413   3633722   3628049   3622392   3616765  
  5080.000000   3611189   3605688   3600269   3594928   3589637  
  5070.000000   3584365   3579070   3573728   3568316   3562831  
  5060.000000   3557268   3551638   3545942   3540194   3534392  
  5050.000000   3528543   3522637   3516668   3510612   3504457  
  5040.000000   3498188   3491810   3485334   3478791   3472209  
  5030.000000   3465619   3459038   3452479   3445946   3439445  
  5020.000000   3432987   3426586   3420265   3414037   3407919  
  5010.000000   3401909   3396017   3390231   3384567   3379020  
  5000.000000   3373617   3368355   3363260   3358321   3353564  
  4990.000000   3348976   3344595   3340420   3336500   3332833  
  4980.000000   3329456   3326343   3323517   3320937   3318632  
  4970.000000   3316575   3314817   3313351   3312237   3311466  
  4960.000000   3311089   3311081   3311482   3312259   3313449  
  4950.000000   3315011   3316974   3319284   3321962   3324953  
  4940.000000   3328285   3331922   3335911   3340225   3344910  
  4930.000000   3349926   3355299   3360975   3366976   3373263  
  4920.000000   3379875   3386797   3394073   3401681   3409646  
  4910.000000   3417923   3426512   3435362   3444466   3453786  
  4900.000000   3463317   3473027   3482907   3492926   3503064  
  4890.000000   3513292   3523576   3533885   3544166   3554378  
  4880.000000   3564455   3574358   3584020   3593420   3602492  
  4870.000000   3611219   3619526   3627391   3634739   3641563  
  4860.000000   3647823   3653559   3658776   3663552   3667906  
  4850.000000   3671918   3675600   3679019   3682184   3685162  
  4840.000000   3687962   3690644   3693206   3695685   3698068  
  4830.000000   3700376   3702603   3704780   3706916   3709044  
  4820.000000   3711167   3713295   3715412   3717510   3719573  
  4810.000000   3721601   3723600   3725585   3727569   3729563  
  4800.000000   3731566   3733574   3735580   3737581   3739578  
  4790.000000   3741580   3743595   3745633   3747696   3749791  
  4780.000000   3751916   3754077   3756267   3758483   3760700  
  4770.000000   3762895   3765022   3767051   3768944   3770693  
  4760.000000   3772291   3773756   3775096   3776331   3777457  
  4750.000000   3778480   3779386   3780187   3780878   3781484  
  4740.000000   3782007   3782469   3782859   3783176   3783394  
  4730.000000   3783501   3783475   3783316   3783027   3782627  
  4720.000000   3782137   3781587   3781007   3780427   3779877  
  4710.000000   3779382   3778962   3778630   3778395   3778252  
  4700.000000   3778206   3778252   3778400   3778654   3779035  
  4690.000000   3779551   3780218   3781036   3782004   3783100  
  4680.000000   3784306   3785581   3786897   3788207   3789483  
  4670.000000   3790689   3791817   3792858   3793835   3794766  
  4660.000000   3795698   3796670   3797733   3798922   3800276  
  4650.000000   3801810   3803535   3805439   3807507   3809710  
  4640.000000   3812018   3814405   3816850   3819339   3821861  
  4630.000000   3824405   3826958   3829498   3831996   3834421  
  4620.000000   3836738   3838921   3840940   3842781   3844426  
  4610.000000   3845876   3847125   3848198   3849108   3849899  
  4600.000000   3850597   3851247   3851859   3852456   3853018  
  4590.000000   3853545   3854002   3854380   3854649   3854807  
  4580.000000   3854827   3854710   3854434   3854002   3853402  
  4570.000000   3852650   3851751   3850734   3849608   3848398  
  4560.000000   3847106   3845745   3844309   3842809   3841243  
  4550.000000   3839624   3837956   3836249   3834503   3832725  
  4540.000000   3830917   3829091   3827264   3825455   3823691  
  4530.000000   3821984   3820354   3818791   3817304   3815872  
  4520.000000   3814510   3813202   3811985   3810853   3809865  
  4510.000000   3809028   3808423   3808072   3808083   3808486  
  4500.000000   3809394   3810817   3812840   3815432   3818645  
  4490.000000   3822424   3826824   3831802   3837441   3843721  
  4480.000000   3850734   3858452   3866945   3876156   3886120  
  4470.000000   3896754   3908064   3919955   3932414   3945339  
  4460.000000   3958710   3972426   3986459   4000717   4015171  
  4450.000000   4029736   4044386   4059060   4073745   4088417  
  4440.000000   4103080   4117739   4132391   4147042   4161660  
  4430.000000   4176238   4190713   4205076   4219253   4233240  
  4420.000000   4246950   4260372   4273393   4285980   4297995  
  4410.000000   4309392   4320036   4329898   4338880   4347006  
  4400.000000   4354244   4360678   4366343   4371367   4375819  
  4390.000000   4379839   4383500   4386930   4390190   4393389  
  4380.000000   4396575   4399833   4403198   4406734   4410471  
  4370.000000   4414458   4418719   4423287   4428170   4433366  
  4360.000000   4438847   4444573   4450476   4456502   4462560  
  4350.000000   4468608   4474557   4480401   4486076   4491619  
  4340.000000   4496998   4502252   4507310   4512098   4516379  
  4330.000000   4519874   4522175   4522922   4521796   4518701  
  4320.000000   4513745   4507318   4499966   4492355   4485072  
  4310.000000   4478605   4473199   4468940   4465719   4463374  
  4300.000000   4461698   4460532   4459756   4459291   4459092  
  4290.000000   4459105   4459311   4459661   4460162   4460797  
  4280.000000   4461593   4462551   4463670   4464935   4466303  
  4270.000000   4467744   4469199   4470623   4471914   4472952  
  4260.000000   4473534   4473446   4472442   4470355   4467094  
  4250.000000   4462732   4457452   4451575   4445437   4439391  
  4240.000000   4433679   4428478   4423808   4419637   4415840  
  4230.000000   4412295   4408867   4405462   4402009   4398472  
  4220.000000   4394853   4391165   4387468   4383802   4380256  
  4210.000000   4376873   4373730   4370842   4368250   4365938  
  4200.000000   4363915   4362152   4360649   4359369   4358309  
  4190.000000   4357424   4356712   4356124   4355671   4355317  
  4180.000000   4355098   4354997   4355070   4355310   4355784  
  4170.000000   4356494   4357520   4358875   4360651   4362860  
  4160.000000   4365583   4368804   4372565   4376808   4381545  
  4150.000000   4386694   4392265   4398186   4404494   4411150  
  4140.000000   4418229   4425720   4433717   4442210   4451273  
  4130.000000   4460863   4471007   4481623   4492713   4504203  
  4120.000000   4516118   4528429   4541203   4554448   4568235  
  4110.000000   4582553   4597428   4612795   4628618   4644787  
  4100.000000   4661238   4677866   4694626   4711463   4728377  
  4090.000000   4745367   4762454   4779650   4796957   4814375  
  4080.000000   4831876   4849455   4867072   4884727   4902358  
  4070.000000   4919944   4937379   4954610   4971502   4988011  
  4060.000000   5004020   5019522   5034425   5048744   5062391  
  4050.000000   5075399   5087705   5099396   5110451   5120994  
  4040.000000   5130991   5140524   5149489   5157905   5165632  
  4030.000000   5172693   5178978   5184548   5189329   5193379  
  4020.000000   5196600   5199053   5200706   5201641   5201806  
  4010.000000   5201335   5200297   5198711   5196359   5193316  
  4000.000000   5189925  
##END= 
