##TITLE= Sample 044 By ssteindl date Dienstag, November 20 2018
##JCAMP-DX= 4.24
##DATA TYPE= INFRARED SPECTRUM
##ORIGIN= Exported PE Spectrum Data File
##OWNER= Sandra Steindl
##DATE= 18/11/20
##TIME= 12:07:53.00
##SPECTROMETER/DATA SYSTEM= PERKIN-ELMER Frontier FT-IR/NIR IR
##INSTRUMENT PARAMETERS=
  APODIZATION=stark
  DETECTOR=INGAAS
##RESOLUTION= 16.000000
##DELTAX= -2.000000
##XUNITS= 1/CM
##YUNITS= A
##XFACTOR= 1.00
##YFACTOR= 0.00000011920928955078
##FIRSTX= 10000.00
##LASTX= 4000.00
##NPOINTS= 3001
##FIRSTY= 0.206516
##MAXY= 0.668893
##MINY= 0.177388
##XYDATA= (X++(Y..Y))
 10000.000000   1732383   1729984   1727325   1724043   1720177  
  9990.000000   1716174   1712617   1710016   1708615   1708224  
  9980.000000   1708164   1707535   1705681   1702480   1698430  
  9970.000000   1694389   1691198   1689218   1688210   1687381  
  9960.000000   1685889   1683196   1679435   1675309   1671750  
  9950.000000   1669475   1668608   1668750   1669232   1669601  
  9940.000000   1669915   1670709   1672721   1676294   1681126  
  9930.000000   1686060   1689584   1690264   1687465   1681527  
  9920.000000   1673751   1665892   1659622   1656100   1655786  
  9910.000000   1658602   1664080   1671620   1680467   1689741  
  9900.000000   1698369   1705254   1709480   1710663   1709089  
  9890.000000   1705710   1701821   1698632   1696871   1696587  
  9880.000000   1697261   1698130   1698492   1697973   1696408  
  9870.000000   1693784   1689982   1684850   1678329   1670720  
  9860.000000   1662826   1655843   1650992   1649038   1649897  
  9850.000000   1652651   1655851   1658194   1658982   1658452  
  9840.000000   1657495   1657194   1658221   1660460   1663133  
  9830.000000   1665058   1665331   1663508   1659846   1654916  
  9820.000000   1649349   1643492   1637412   1631141   1624964  
  9810.000000   1619646   1616282   1615933   1619106   1625412  
  9800.000000   1633580   1641820   1648457   1652411   1653538  
  9790.000000   1652435   1650181   1647799   1646038   1645241  
  9780.000000   1645491   1646796   1649140   1652508   1656683  
  9770.000000   1661234   1665473   1668731   1670508   1670727  
  9760.000000   1669626   1667636   1665082   1662063   1658471  
  9750.000000   1654200   1649377   1644494   1640286   1637461  
  9740.000000   1636305   1636481   1637041   1636798   1634781  
  9730.000000   1630680   1624972   1618756   1613321   1609689  
  9720.000000   1608317   1609043   1611282   1614276   1617356  
  9710.000000   1620001   1621876   1622703   1622320   1620660  
  9700.000000   1617928   1614565   1611246   1608592   1607019  
  9690.000000   1606522   1606786   1607345   1607854   1608284  
  9680.000000   1608863   1609980   1611853   1614425   1617297  
  9670.000000   1619937   1621943   1623213   1624005   1624700  
  9660.000000   1625579   1626562   1627215   1626931   1625226  
  9650.000000   1622053   1617862   1613531   1609998   1607983  
  9640.000000   1607697   1608898   1610989   1613309   1615273  
  9630.000000   1616469   1616622   1615551   1613184   1609612  
  9620.000000   1605192   1600534   1596416   1593510   1592183  
  9610.000000   1592285   1593261   1594307   1594738   1594206  
  9600.000000   1592813   1590991   1589279   1588077   1587545  
  9590.000000   1587631   1588247   1589412   1591279   1594054  
  9580.000000   1597752   1602106   1606513   1610272   1612802  
  9570.000000   1613898   1613761   1612855   1611650   1610348  
  9560.000000   1608793   1606555   1603194   1598545   1592887  
  9550.000000   1586911   1581473   1577290   1574670   1573474  
  9540.000000   1573203   1573280   1573242   1572898   1572309  
  9530.000000   1571699   1571340   1571463   1572227   1573696  
  9520.000000   1575845   1578503   1581369   1583996   1585926  
  9510.000000   1586790   1586458   1585090   1583077   1580892  
  9500.000000   1578917   1577301   1575990   1574789   1573534  
  9490.000000   1572188   1570822   1569561   1568415   1567302  
  9480.000000   1566050   1564617   1563170   1562172   1562192  
  9470.000000   1563679   1566641   1570526   1574338   1576940  
  9460.000000   1577537   1575900   1572499   1568191   1563905  
  9450.000000   1560218   1557240   1554685   1552189   1549655  
  9440.000000   1547381   1546044   1546278   1548419   1552164  
  9430.000000   1556744   1561155   1564579   1566668   1567524  
  9420.000000   1567593   1567224   1566509   1565117   1562582  
  9410.000000   1558582   1553291   1547430   1542078   1538318  
  9400.000000   1536800   1537605   1540167   1543639   1547136  
  9390.000000   1550115   1552421   1554196   1555651   1556843  
  9380.000000   1557650   1557784   1557025   1555296   1552795  
  9370.000000   1549874   1546953   1544347   1542197   1540516  
  9360.000000   1539230   1538323   1537814   1537764   1538159  
  9350.000000   1538867   1539624   1540126   1540148   1539626  
  9340.000000   1538704   1537649   1536765   1536255   1536160  
  9330.000000   1536371   1536684   1536933   1537037   1537036  
  9320.000000   1537035   1537145   1537413   1537776   1538057  
  9310.000000   1538010   1537394   1536042   1533917   1531139  
  9300.000000   1528006   1524954   1522464   1520945   1520587  
  9290.000000   1521305   1522731   1524325   1525520   1525908  
  9280.000000   1525372   1524123   1522608   1521309   1520554  
  9270.000000   1520401   1520677   1521056   1521231   1521014  
  9260.000000   1520411   1519592   1518764   1518095   1517605  
  9250.000000   1517225   1516845   1516432   1516068   1515908  
  9240.000000   1516089   1516620   1517323   1517852   1517808  
  9230.000000   1516900   1515101   1512686   1510154   1508058  
  9220.000000   1506794   1506491   1506960   1507820   1508653  
  9210.000000   1509178   1509354   1509335   1509341   1509487  
  9200.000000   1509674   1509620   1508987   1507551   1505366  
  9190.000000   1502785   1500393   1498770   1498277   1498888  
  9180.000000   1500224   1501676   1502647   1502737   1501875  
  9170.000000   1500320   1498522   1496958   1495965   1495729  
  9160.000000   1496323   1497747   1499941   1502753   1505913  
  9150.000000   1508999   1511478   1512821   1512693   1511105  
  9140.000000   1508469   1505481   1502899   1501290   1500854  
  9130.000000   1501380   1502371   1503293   1503797   1503824  
  9120.000000   1503530   1503164   1502883   1502685   1502416  
  9110.000000   1501899   1501118   1500277   1499787   1500056  
  9100.000000   1501290   1503360   1505783   1507928   1509204  
  9090.000000   1509347   1508493   1507146   1505952   1505430  
  9080.000000   1505774   1506772   1507900   1508510   1508060  
  9070.000000   1506289   1503297   1499501   1495509   1491960  
  9060.000000   1489381   1488068   1488041   1489054   1490678  
  9050.000000   1492397   1493747   1494455   1494501   1494134  
  9040.000000   1493749   1493787   1494581   1496232   1498583  
  9030.000000   1501249   1503761   1505670   1506655   1506578  
  9020.000000   1505504   1503649   1501334   1498903   1496697  
  9010.000000   1494963   1493823   1493227   1492974   1492788  
  9000.000000   1492390   1491667   1490689   1489792   1489421  
  8990.000000   1490017   1491800   1494688   1498294   1501997  
  8980.000000   1505134   1507154   1507796   1507069   1505225  
  8970.000000   1502631   1499712   1496830   1494288   1492288  
  8960.000000   1490983   1490433   1490587   1491283   1492263  
  8950.000000   1493272   1494091   1494667   1495102   1495647  
  8940.000000   1496600   1498176   1500431   1503203   1506169  
  8930.000000   1508903   1511006   1512195   1512367   1511614  
  8920.000000   1510169   1508367   1506565   1505079   1504122  
  8910.000000   1503748   1503855   1504207   1504492   1504430  
  8900.000000   1503829   1502694   1501197   1499682   1498549  
  8890.000000   1498170   1498780   1500411   1502893   1505852  
  8880.000000   1508809   1511253   1512785   1513170   1512418  
  8870.000000   1510763   1508641   1506555   1504975   1504190  
  8860.000000   1504284   1505101   1506347   1507663   1508767  
  8850.000000   1509498   1509840   1509897   1509827   1509806  
  8840.000000   1509983   1510503   1511502   1513107   1515397  
  8830.000000   1518349   1521814   1525488   1528982   1531866  
  8820.000000   1533815   1534647   1534403   1533278   1531591  
  8810.000000   1529691   1527925   1526605   1525983   1526262  
  8800.000000   1527518   1529729   1532690   1536075   1539451  
  8790.000000   1542398   1544628   1546020   1546669   1546760  
  8780.000000   1546526   1546105   1545555   1544856   1544015  
  8770.000000   1543160   1542565   1542626   1543700   1546001  
  8760.000000   1549436   1553628   1557961   1561767   1564502  
  8750.000000   1565884   1565969   1565086   1563735   1562421  
  8740.000000   1561542   1561301   1561717   1562651   1563897  
  8730.000000   1565225   1566450   1567444   1568145   1568556  
  8720.000000   1568723   1568734   1568709   1568785   1569114  
  8710.000000   1569830   1571044   1572813   1575142   1577957  
  8700.000000   1581111   1584384   1587524   1590261   1592377  
  8690.000000   1593728   1594310   1594241   1593782   1593251  
  8680.000000   1592997   1593295   1594301   1595998   1598205  
  8670.000000   1600635   1602980   1605013   1606652   1607991  
  8660.000000   1609259   1610733   1612634   1615025   1617794  
  8650.000000   1620670   1623347   1625569   1627256   1628497  
  8640.000000   1629532   1630630   1632000   1633724   1635748  
  8630.000000   1637939   1640154   1642317   1644445   1646639  
  8620.000000   1649000   1651588   1654356   1657177   1659869  
  8610.000000   1662268   1664276   1665878   1667133   1668134  
  8600.000000   1668972   1669716   1670401   1671052   1671692  
  8590.000000   1672359   1673086   1673910   1674841   1675883  
  8580.000000   1677022   1678250   1679561   1680947   1682392  
  8570.000000   1683845   1685239   1686491   1687550   1688411  
  8560.000000   1689143   1689870   1690744   1691902   1693421  
  8550.000000   1695299   1697451   1699745   1702016   1704126  
  8540.000000   1705968   1707500   1708730   1709712   1710532  
  8530.000000   1711276   1712022   1712792   1713561   1714242  
  8520.000000   1714735   1714948   1714842   1714466   1713959  
  8510.000000   1713526   1713385   1713720   1714638   1716156  
  8500.000000   1718189   1720591   1723180   1725780   1728242  
  8490.000000   1730457   1732383   1734020   1735428   1736658  
  8480.000000   1737769   1738758   1739586   1740163   1740402  
  8470.000000   1740286   1739908   1739506   1739380   1739865  
  8460.000000   1741174   1743350   1746176   1749256   1752112  
  8450.000000   1754322   1755642   1756045   1755726   1754986  
  8440.000000   1754142   1753410   1752899   1752619   1752553  
  8430.000000   1752713   1753166   1754034   1755401   1757295  
  8420.000000   1759599   1762119   1764608   1766870   1768809  
  8410.000000   1770432   1771843   1773131   1774338   1775391  
  8400.000000   1776159   1776489   1776311   1775689   1774819  
  8390.000000   1773996   1773489   1773509   1774103   1775212  
  8380.000000   1776647   1778215   1779726   1781068   1782163  
  8370.000000   1782974   1783469   1783610   1783378   1782768  
  8360.000000   1781830   1780633   1779275   1777839   1776386  
  8350.000000   1774962   1773613   1772431   1771549   1771131  
  8340.000000   1771305   1772112   1773445   1775066   1776654  
  8330.000000   1777900   1778619   1778804   1778639   1778409  
  8320.000000   1778399   1778776   1779545   1780543   1781517  
  8310.000000   1782214   1782480   1782296   1781751   1780991  
  8300.000000   1780137   1779260   1778369   1777453   1776529  
  8290.000000   1775666   1774980   1774596   1774577   1774907  
  8280.000000   1775454   1776057   1776555   1776886   1777077  
  8270.000000   1777252   1777558   1778097   1778856   1779694  
  8260.000000   1780377   1780639   1780288   1779236   1777543  
  8250.000000   1775366   1772929   1770456   1768120   1766059  
  8240.000000   1764349   1763069   1762266   1762003   1762297  
  8230.000000   1763133   1764396   1765893   1767350   1768464  
  8220.000000   1768969   1768676   1767548   1765667   1763260  
  8210.000000   1760609   1758016   1755726   1753886   1752538  
  8200.000000   1751624   1751038   1750649   1750359   1750097  
  8190.000000   1749839   1749562   1749245   1748848   1748328  
  8180.000000   1747660   1746864   1746014   1745225   1744614  
  8170.000000   1744264   1744175   1744266   1744373   1744307  
  8160.000000   1743900   1743043   1741713   1739952   1737846  
  8150.000000   1735489   1732968   1730365   1727769   1725298  
  8140.000000   1723090   1721290   1719989   1719208   1718855  
  8130.000000   1718758   1718700   1718492   1718019   1717260  
  8120.000000   1716278   1715168   1714020   1712874   1711734  
  8110.000000   1710589   1709453   1708379   1707456   1706761  
  8100.000000   1706315   1706051   1705806   1705376   1704579  
  8090.000000   1703333   1701696   1699848   1698028   1696458  
  8080.000000   1695253   1694417   1693842   1693383   1692914  
  8070.000000   1692377   1691781   1691167   1690560   1689914  
  8060.000000   1689124   1688032   1686514   1684511   1682101  
  8050.000000   1679464   1676865   1674569   1672777   1671586  
  8040.000000   1670966   1670803   1670934   1671206   1671515  
  8030.000000   1671807   1672079   1672326   1672535   1672633  
  8020.000000   1672528   1672107   1671302   1670116   1668653  
  8010.000000   1667104   1665700   1664661   1664114   1664072  
  8000.000000   1664412   1664926   1665370   1665540   1665317  
  7990.000000   1664685   1663720   1662548   1661305   1660101  
  7980.000000   1659013   1658075   1657298   1656673   1656171  
  7970.000000   1655752   1655355   1654925   1654426   1653859  
  7960.000000   1653275   1652745   1652344   1652091   1651944  
  7950.000000   1651787   1651485   1650929   1650096   1649082  
  7940.000000   1648077   1647320   1647008   1647239   1647966  
  7930.000000   1649018   1650146   1651089   1651647   1651705  
  7920.000000   1651255   1650357   1649128   1647700   1646217  
  7910.000000   1644815   1643627   1642760   1642282   1642205  
  7900.000000   1642469   1642970   1643567   1644141   1644605  
  7890.000000   1644935   1645158   1645319   1645469   1645616  
  7880.000000   1645744   1645796   1645723   1645486   1645087  
  7870.000000   1644568   1643994   1643447   1642994   1642691  
  7860.000000   1642557   1642589   1642746   1642970   1643176  
  7850.000000   1643275   1643183   1642845   1642248   1641426  
  7840.000000   1640460   1639445   1638473   1637604   1636851  
  7830.000000   1636188   1635562   1634930   1634273   1633618  
  7820.000000   1633020   1632543   1632230   1632074   1632016  
  7810.000000   1631953   1631771   1631386   1630771   1629974  
  7800.000000   1629104   1628306   1627707   1627397   1627382  
  7790.000000   1627604   1627938   1628238   1628363   1628212  
  7780.000000   1627740   1626965   1625954   1624801   1623602  
  7770.000000   1622430   1621317   1620265   1619248   1618246  
  7760.000000   1617261   1616332   1615525   1614913   1614539  
  7750.000000   1614387   1614377   1614372   1614234   1613858  
  7740.000000   1613229   1612424   1611599   1610932   1610562  
  7730.000000   1610540   1610810   1611224   1611595   1611754  
  7720.000000   1611601   1611122   1610385   1609499   1608575  
  7710.000000   1607690   1606875   1606123   1605414   1604731  
  7700.000000   1604082   1603497   1603017   1602673   1602470  
  7690.000000   1602377   1602331   1602256   1602087   1601793  
  7680.000000   1601395   1600957   1600569   1600312   1600227  
  7670.000000   1600290   1600420   1600494   1600398   1600055  
  7660.000000   1599462   1598674   1597796   1596928   1596147  
  7650.000000   1595482   1594928   1594470   1594114   1593896  
  7640.000000   1593870   1594079   1594526   1595147   1595831  
  7630.000000   1596443   1596883   1597110   1597170   1597151  
  7620.000000   1597163   1597270   1597490   1597772   1598046  
  7610.000000   1598243   1598340   1598352   1598331   1598333  
  7600.000000   1598397   1598541   1598768   1599076   1599481  
  7590.000000   1599999   1600649   1601418   1602271   1603140  
  7580.000000   1603960   1604681   1605304   1605863   1606425  
  7570.000000   1607052   1607792   1608659   1609654   1610766  
  7560.000000   1611992   1613331   1614778   1616297   1617825  
  7550.000000   1619271   1620549   1621597   1622418   1623058  
  7540.000000   1623611   1624164   1624790   1625517   1626350  
  7530.000000   1627282   1628324   1629509   1630887   1632497  
  7520.000000   1634348   1636393   1638550   1640705   1642767  
  7510.000000   1644669   1646404   1647994   1649497   1650965  
  7500.000000   1652455   1654007   1655659   1657431   1659341  
  7490.000000   1661384   1663540   1665769   1668025   1670268  
  7480.000000   1672477   1674647   1676794   1678922   1681037  
  7470.000000   1683118   1685153   1687129   1689066   1691003  
  7460.000000   1693003   1695122   1697404   1699852   1702449  
  7450.000000   1705150   1707914   1710703   1713496   1716276  
  7440.000000   1719035   1721767   1724475   1727172   1729887  
  7430.000000   1732651   1735496   1738425   1741416   1744416  
  7420.000000   1747367   1750222   1752965   1755619   1758228  
  7410.000000   1760845   1763506   1766227   1768997   1771803  
  7400.000000   1774632   1777477   1780335   1783179   1785961  
  7390.000000   1788601   1791024   1793176   1795066   1796767  
  7380.000000   1798415   1800165   1802150   1804443   1807049  
  7370.000000   1809920   1812982   1816170   1819440   1822771  
  7360.000000   1826146   1829536   1832884   1836115   1839159  
  7350.000000   1841969   1844545   1846927   1849192   1851421  
  7340.000000   1853672   1855969   1858295   1860624   1862918  
  7330.000000   1865169   1867379   1869586   1871820   1874120  
  7320.000000   1876487   1878913   1881351   1883752   1886055  
  7310.000000   1888213   1890194   1891990   1893603   1895044  
  7300.000000   1896317   1897424   1898368   1899169   1899875  
  7290.000000   1900571   1901353   1902326   1903550   1905044  
  7280.000000   1906760   1908605   1910461   1912218   1913803  
  7270.000000   1915183   1916365   1917374   1918250   1919021  
  7260.000000   1919727   1920408   1921133   1921974   1923015  
  7250.000000   1924296   1925826   1927537   1929332   1931078  
  7240.000000   1932684   1934097   1935368   1936595   1937948  
  7230.000000   1939576   1941614   1944113   1947074   1950407  
  7220.000000   1954002   1957711   1961425   1965059   1968603  
  7210.000000   1972076   1975558   1979111   1982800   1986615  
  7200.000000   1990526   1994445   1998320   2002105   2005839  
  7190.000000   2009584   2013450   2017512   2021821   2026351  
  7180.000000   2031056   2035862   2040740   2045689   2050772  
  7170.000000   2056045   2061568   2067324   2073269   2079290  
  7160.000000   2085301   2091217   2097039   2102793   2108569  
  7150.000000   2114444   2120504   2126788   2133318   2140064  
  7140.000000   2146993   2154032   2161131   2168224   2175292  
  7130.000000   2182325   2189367   2196461   2203685   2211075  
  7120.000000   2218666   2226430   2234343   2242347   2250420  
  7110.000000   2258541   2266732   2275003   2283374   2291836  
  7100.000000   2300387   2309004   2317694   2326461   2335331  
  7090.000000   2344306   2353377   2362495   2371605   2380643  
  7080.000000   2389582   2398417   2407186   2415929   2424688  
  7070.000000   2433472   2442270   2451062   2459834   2468599  
  7060.000000   2477383   2486224   2495139   2504117   2513108  
  7050.000000   2522048   2530864   2539512   2547975   2556272  
  7040.000000   2564435   2572513   2580545   2588572   2596620  
  7030.000000   2604710   2612833   2620969   2629055   2637029  
  7020.000000   2644821   2652404   2659778   2667002   2674134  
  7010.000000   2681241   2688335   2695404   2702380   2709208  
  7000.000000   2715833   2722256   2728488   2734575   2740530  
  6990.000000   2746368   2752055   2757576   2762904   2768055  
  6980.000000   2773039   2777892   2782612   2787202   2791628  
  6970.000000   2795892   2799996   2804002   2807966   2811970  
  6960.000000   2816036   2820173   2824324   2828433   2832423  
  6950.000000   2836253   2839878   2843282   2846431   2849306  
  6940.000000   2851887   2854200   2856298   2858284   2860257  
  6930.000000   2862309   2864462   2866694   2868925   2871086  
  6920.000000   2873118   2875030   2876857   2878666   2880496  
  6910.000000   2882361   2884230   2886062   2887824   2889512  
  6900.000000   2891146   2892764   2894386   2896022   2897652  
  6890.000000   2899263   2900852   2902438   2904043   2905677  
  6880.000000   2907312   2908888   2910327   2911575   2912627  
  6870.000000   2913547   2914441   2915420   2916547   2917820  
  6860.000000   2919169   2920496   2921717   2922798   2923759  
  6850.000000   2924659   2925553   2926469   2927396   2928308  
  6840.000000   2929187   2930058   2930981   2932038   2933278  
  6830.000000   2934702   2936229   2937736   2939082   2940165  
  6820.000000   2940937   2941419   2941672   2941775   2941793  
  6810.000000   2941779   2941763   2941784   2941866   2942044  
  6800.000000   2942321   2942688   2943098   2943506   2943864  
  6790.000000   2944153   2944372   2944534   2944635   2944655  
  6780.000000   2944544   2944261   2943787   2943163   2942474  
  6770.000000   2941841   2941361   2941089   2940994   2940993  
  6760.000000   2940959   2940784   2940394   2939782   2938989  
  6750.000000   2938086   2937143   2936219   2935344   2934536  
  6740.000000   2933794   2933115   2932487   2931892   2931306  
  6730.000000   2930705   2930067   2929384   2928648   2927862  
  6720.000000   2927019   2926114   2925135   2924089   2922996  
  6710.000000   2921904   2920862   2919916   2919072   2918298  
  6700.000000   2917514   2916628   2915553   2914250   2912728  
  6690.000000   2911051   2909310   2907601   2905992   2904521  
  6680.000000   2903178   2901931   2900721   2899495   2898200  
  6670.000000   2896811   2895320   2893751   2892147   2890562  
  6660.000000   2889039   2887603   2886241   2884914   2883566  
  6650.000000   2882146   2880619   2878988   2877265   2875486  
  6640.000000   2873671   2871839   2869987   2868120   2866238  
  6630.000000   2864352   2862467   2860579   2858662   2856681  
  6620.000000   2854595   2852388   2850072   2847696   2845324  
  6610.000000   2843014   2840792   2838642   2836518   2834365  
  6600.000000   2832152   2829881   2827594   2825350   2823204  
  6590.000000   2821182   2819279   2817464   2815701   2813959  
  6580.000000   2812227   2810501   2808782   2807062   2805330  
  6570.000000   2803573   2801789   2799989   2798199   2796438  
  6560.000000   2794719   2793030   2791350   2789652   2787930  
  6550.000000   2786197   2784493   2782859   2781323   2779884  
  6540.000000   2778513   2777165   2775799   2774395   2772964  
  6530.000000   2771533   2770139   2768802   2767528   2766299  
  6520.000000   2765089   2763873   2762638   2761381   2760110  
  6510.000000   2758837   2757579   2756356   2755189   2754102  
  6500.000000   2753107   2752201   2751355   2750521   2749643  
  6490.000000   2748675   2747603   2746441   2745234   2744030  
  6480.000000   2742869   2741761   2740690   2739632   2738564  
  6470.000000   2737489   2736427   2735413   2734470   2733603  
  6460.000000   2732782   2731959   2731077   2730089   2728971  
  6450.000000   2727720   2726353   2724894   2723369   2721809  
  6440.000000   2720249   2718729   2717294   2715982   2714818  
  6430.000000   2713800   2712904   2712087   2711305   2710518  
  6420.000000   2709703   2708852   2707975   2707080   2706184  
  6410.000000   2705296   2704428   2703586   2702778   2702001  
  6400.000000   2701254   2700526   2699812   2699105   2698404  
  6390.000000   2697714   2697035   2696367   2695703   2695035  
  6380.000000   2694363   2693697   2693059   2692477   2691966  
  6370.000000   2691520   2691101   2690651   2690104   2689413  
  6360.000000   2688564   2687582   2686522   2685451   2684423  
  6350.000000   2683470   2682597   2681794   2681041   2680321  
  6340.000000   2679616   2678911   2678180   2677401   2676553  
  6330.000000   2675630   2674642   2673620   2672595   2671594  
  6320.000000   2670619   2669655   2668667   2667631   2666529  
  6310.000000   2665376   2664187   2662989   2661779   2660543  
  6300.000000   2659237   2657827   2656279   2654593   2652781  
  6290.000000   2650875   2648893   2646856   2644759   2642610  
  6280.000000   2640411   2638186   2635954   2633737   2631530  
  6270.000000   2629314   2627045   2624692   2622225   2619657  
  6260.000000   2617016   2614357   2611721   2609140   2606617  
  6250.000000   2604136   2601667   2599184   2596658   2594077  
  6240.000000   2591424   2588698   2585897   2583039   2580150  
  6230.000000   2577276   2574457   2571732   2569113   2566588  
  6220.000000   2564125   2561684   2559226   2556727   2554175  
  6210.000000   2551568   2548908   2546201   2543454   2540684  
  6200.000000   2537920   2535202   2532570   2530049   2527642  
  6190.000000   2525322   2523042   2520753   2518415   2516013  
  6180.000000   2513559   2511079   2508607   2506165   2503768  
  6170.000000   2501415   2499104   2496830   2494589   2492378  
  6160.000000   2490195   2488031   2485883   2483749   2481637  
  6150.000000   2479558   2477527   2475546   2473609   2471686  
  6140.000000   2469749   2467768   2465733   2463651   2461553  
  6130.000000   2459479   2457470   2455554   2453749   2452053  
  6120.000000   2450460   2448948   2447494   2446064   2444630  
  6110.000000   2443160   2441647   2440095   2438542   2437032  
  6100.000000   2435625   2434356   2433251   2432296   2431466  
  6090.000000   2430719   2430028   2429368   2428736   2428126  
  6080.000000   2427543   2426976   2426429   2425893   2425390  
  6070.000000   2424936   2424570   2424313   2424185   2424173  
  6060.000000   2424265   2424421   2424622   2424842   2425088  
  6050.000000   2425358   2425675   2426048   2426504   2427055  
  6040.000000   2427736   2428563   2429567   2430747   2432101  
  6030.000000   2433594   2435192   2436846   2438526   2440208  
  6020.000000   2441890   2443570   2445259   2446954   2448660  
  6010.000000   2450368   2452084   2453808   2455550   2457310  
  6000.000000   2459089   2460873   2462653   2464415   2466159  
  5990.000000   2467888   2469620   2471363   2473129   2474913  
  5980.000000   2476715   2478531   2480372   2482255   2484214  
  5970.000000   2486273   2488454   2490759   2493181   2495698  
  5960.000000   2498292   2500938   2503622   2506318   2509005  
  5950.000000   2511647   2514220   2516697   2519079   2521381  
  5940.000000   2523642   2525903   2528206   2530578   2533027  
  5930.000000   2535548   2538127   2540750   2543402   2546071  
  5920.000000   2548745   2551409   2554047   2556645   2559193  
  5910.000000   2561685   2564124   2566513   2568857   2571158  
  5900.000000   2573422   2575662   2577894   2580145   2582437  
  5890.000000   2584790   2587204   2589666   2592148   2594621  
  5880.000000   2597054   2599424   2601721   2603934   2606059  
  5870.000000   2608090   2610034   2611896   2613705   2615489  
  5860.000000   2617294   2619150   2621090   2623128   2625286  
  5850.000000   2627575   2630024   2632656   2635497   2638550  
  5840.000000   2641799   2645199   2648695   2652225   2655743  
  5830.000000   2659222   2662652   2666033   2669364   2672637  
  5820.000000   2675830   2678929   2681911   2684774   2687505  
  5810.000000   2690107   2692552   2694826   2696880   2698704  
  5800.000000   2700272   2701617   2702757   2703752   2704618  
  5790.000000   2705389   2706037   2706555   2706895   2707040  
  5780.000000   2706952   2706628   2706045   2705211   2704123  
  5770.000000   2702814   2701324   2699722   2698075   2696456  
  5760.000000   2694912   2693476   2692160   2690974   2689924  
  5750.000000   2689030   2688307   2687764   2687391   2687149  
  5740.000000   2686992   2686865   2686736   2686589   2686441  
  5730.000000   2686310   2686229   2686205   2686244   2686327  
  5720.000000   2686449   2686595   2686769   2686968   2687197  
  5710.000000   2687452   2687735   2688050   2688420   2688874  
  5700.000000   2689447   2690159   2691011   2691971   2692986  
  5690.000000   2694001   2694970   2695875   2696721   2697531  
  5680.000000   2698321   2699097   2699837   2700506   2701060  
  5670.000000   2701469   2701713   2701799   2701734   2701542  
  5660.000000   2701238   2700846   2700384   2699885   2699371  
  5650.000000   2698872   2698396   2697951   2697525   2697113  
  5640.000000   2696707   2696310   2695924   2695553   2695184  
  5630.000000   2694800   2694376   2693896   2693361   2692792  
  5620.000000   2692222   2691686   2691203   2690771   2690368  
  5610.000000   2689965   2689535   2689071   2688579   2688077  
  5600.000000   2687579   2687089   2686596   2686086   2685543  
  5590.000000   2684964   2684351   2683711   2683040   2682331  
  5580.000000   2681560   2680710   2679773   2678761   2677697  
  5570.000000   2676615   2675533   2674455   2673367   2672248  
  5560.000000   2671079   2669861   2668606   2667342   2666092  
  5550.000000   2664869   2663669   2662482   2661291   2660090  
  5540.000000   2658883   2657682   2656497   2655335   2654194  
  5530.000000   2653070   2651960   2650869   2649808   2648787  
  5520.000000   2647808   2646861   2645924   2644971   2643981  
  5510.000000   2642944   2641859   2640735   2639580   2638402  
  5500.000000   2637199   2635979   2634744   2633512   2632287  
  5490.000000   2631078   2629865   2628625   2627318   2625924  
  5480.000000   2624426   2622844   2621201   2619535   2617859  
  5470.000000   2616178   2614465   2612699   2610851   2608919  
  5460.000000   2606905   2604826   2602687   2600493   2598233  
  5450.000000   2595904   2593512   2591080   2588644   2586239  
  5440.000000   2583893   2581611   2579393   2577230   2575129  
  5430.000000   2573101   2571173   2569353   2567644   2566020  
  5420.000000   2564464   2562951   2561501   2560136   2558917  
  5410.000000   2557872   2557029   2556354   2555817   2555359  
  5400.000000   2554968   2554634   2554402   2554298   2554374  
  5390.000000   2554628   2555070   2555670   2556437   2557360  
  5380.000000   2558481   2559800   2561347   2563080   2564988  
  5370.000000   2567006   2569136   2571347   2573700   2576206  
  5360.000000   2578948   2581932   2585228   2588824   2592798  
  5350.000000   2597150   2601979   2607285   2613150   2619530  
  5340.000000   2626471   2633896   2641854   2650285   2659266  
  5330.000000   2668746   2678802   2689367   2700510   2712166  
  5320.000000   2724439   2737306   2750912   2765241   2780431  
  5310.000000   2796420   2813298   2830968   2849509   2868847  
  5300.000000   2889098   2910233   2932404   2955600   2979959  
  5290.000000   3005431   3032069   3059729   3088351   3117728  
  5280.000000   3147783   3178390   3209595   3241423   3274008  
  5270.000000   3307381   3341534   3376293   3411397   3446539  
  5260.000000   3481444   3515979   3550104   3583922   3617485  
  5250.000000   3650855   3683890   3716448   3748208   3779023  
  5240.000000   3808684   3837274   3864795   3891489   3917389  
  5230.000000   3942670   3967219   3991048   4013915   4035785  
  5220.000000   4056460   4076017   4094401   4111817   4128284  
  5210.000000   4144004   4158926   4173130   4186437   4198853  
  5200.000000   4210206   4220581   4229934   4238454   4246151  
  5190.000000   4253188   4259500   4265151   4270016   4274141  
  5180.000000   4277444   4280032   4281879   4283108   4283682  
  5170.000000   4283684   4283060   4281891   4280153   4277954  
  5160.000000   4275284   4272228   4268736   4264844   4260488  
  5150.000000   4255718   4250523   4245002   4239178   4233136  
  5140.000000   4226859   4220374   4213636   4206668   4199463  
  5130.000000   4192090   4184579   4177000   4169361   4161682  
  5120.000000   4153937   4146133   4138260   4130353   4122432  
  5110.000000   4114540   4106685   4098881   4091114   4083385  
  5100.000000   4075685   4068026   4060409   4052839   4045296  
  5090.000000   4037766   4030215   4022635   4015015   4007374  
  5080.000000   3999717   3992060   3984387   3976681   3968903  
  5070.000000   3961035   3953055   3944976   3936804   3928568  
  5060.000000   3920274   3911936   3903541   3895097   3886596  
  5050.000000   3878054   3869471   3860862   3852216   3843529  
  5040.000000   3834782   3825972   3817099   3808188   3799268  
  5030.000000   3790374   3781532   3772753   3764037   3755369  
  5020.000000   3746745   3738155   3729613   3721129   3712735  
  5010.000000   3704445   3696293   3688287   3680460   3672819  
  5000.000000   3665403   3658216   3651295   3644629   3638248  
  4990.000000   3632128   3626294   3620723   3615452   3610462  
  4980.000000   3605799   3601443   3597435   3593749   3590426  
  4970.000000   3587439   3584831   3582573   3580708   3579196  
  4960.000000   3578068   3577275   3576848   3576745   3577012  
  4950.000000   3577620   3578622   3579986   3581755   3583881  
  4940.000000   3586388   3589224   3592413   3595909   3599751  
  4930.000000   3603903   3608409   3613236   3618426   3623943  
  4920.000000   3629818   3636009   3642535   3649348   3656462  
  4910.000000   3663836   3671488   3679388   3687557   3695962  
  4900.000000   3704607   3713445   3722461   3731608   3740874  
  4890.000000   3750231   3759681   3769208   3778804   3788442  
  4880.000000   3798093   3807717   3817279   3826752   3836109  
  4870.000000   3845337   3854407   3863306   3871998   3880471  
  4860.000000   3888702   3896704   3904481   3912071   3919481  
  4850.000000   3926745   3933855   3940832   3947660   3954367  
  4840.000000   3960949   3967444   3973851   3980197   3986457  
  4830.000000   3992633   3998676   4004572   4010271   4015765  
  4820.000000   4021015   4026025   4030770   4035270   4039519  
  4810.000000   4043550   4047374   4051034   4054540   4057932  
  4800.000000   4061211   4064410   4067529   4070596   4073612  
  4790.000000   4076604   4079562   4082502   4085400   4088257  
  4780.000000   4091042   4093750   4096352   4098844   4101201  
  4770.000000   4103426   4105500   4107434   4109215   4110859  
  4760.000000   4112354   4113712   4114910   4115952   4116809  
  4750.000000   4117489   4117970   4118268   4118370   4118297  
  4740.000000   4118038   4117615   4117021   4116285   4115407  
  4730.000000   4114420   4113321   4112129   4110826   4109412  
  4720.000000   4107862   4106183   4104373   4102458   4100457  
  4710.000000   4098405   4096310   4094191   4092039   4089859  
  4700.000000   4087645   4085411   4083162   4080916   4078669  
  4690.000000   4076421   4074149   4071832   4069448   4066983  
  4680.000000   4064436   4061815   4059135   4056409   4053652  
  4670.000000   4050872   4048088   4045317   4042591   4039939  
  4660.000000   4037400   4034994   4032746   4030653   4028720  
  4650.000000   4026935   4025301   4023809   4022469   4021271  
  4640.000000   4020219   4019295   4018491   4017784   4017165  
  4630.000000   4016614   4016124   4015676   4015260   4014855  
  4620.000000   4014452   4014032   4013592   4013122   4012620  
  4610.000000   4012073   4011472   4010803   4010068   4009274  
  4600.000000   4008452   4007644   4006899   4006261   4005754  
  4590.000000   4005383   4005127   4004952   4004817   4004690  
  4580.000000   4004546   4004376   4004177   4003950   4003693  
  4570.000000   4003404   4003067   4002671   4002197   4001630  
  4560.000000   4000959   4000179   3999295   3998320   3997274  
  4550.000000   3996182   3995072   3993961   3992868   3991798  
  4540.000000   3990765   3989773   3988849   3988006   3987281  
  4530.000000   3986684   3986243   3985946   3985814   3985816  
  4520.000000   3985985   3986300   3986818   3987530   3988516  
  4510.000000   3989771   3991388   3993369   3995822   3998762  
  4500.000000   4002306   4006468   4011355   4016966   4023391  
  4490.000000   4030611   4038703   4047628   4057427   4068012  
  4480.000000   4079352   4091294   4103753   4116555   4129628  
  4470.000000   4142855   4156225   4169689   4183275   4196956  
  4460.000000   4210741   4224584   4238462   4252319   4266120  
  4450.000000   4279829   4293424   4306900   4320250   4333487  
  4440.000000   4346609   4359639   4372568   4385426   4398193  
  4430.000000   4410901   4423513   4436061   4448479   4460781  
  4420.000000   4472865   4484714   4496191   4507257   4517755  
  4410.000000   4527641   4536762   4545083   4552472   4558921  
  4400.000000   4564343   4568776   4572199   4574712   4576360  
  4390.000000   4577285   4577569   4577364   4576759   4575894  
  4380.000000   4574859   4573789   4572787   4571991   4571512  
  4370.000000   4571469   4571948   4573010   4574684   4576955  
  4360.000000   4579796   4583139   4586932   4591089   4595551  
  4350.000000   4600240   4605104   4610090   4615175   4620344  
  4340.000000   4625606   4630965   4636405   4641870   4647241  
  4330.000000   4652351   4656985   4660943   4664060   4666278  
  4320.000000   4667639   4668316   4668537   4668588   4668694  
  4310.000000   4669048   4669712   4670706   4671943   4673351  
  4300.000000   4674814   4676269   4677641   4678905   4680018  
  4290.000000   4680969   4681734   4682318   4682723   4682984  
  4280.000000   4683127   4683204   4683236   4683264   4683282  
  4270.000000   4683303   4683288   4683215   4683011   4682615  
  4260.000000   4681926   4680864   4679344   4677331   4674823  
  4250.000000   4671890   4668634   4665210   4661765   4658453  
  4240.000000   4655369   4652579   4650079   4647837   4645776  
  4230.000000   4643821   4641887   4639908   4637829   4635615  
  4220.000000   4633250   4630725   4628062   4625286   4622458  
  4210.000000   4619634   4616892   4614290   4611885   4609689  
  4200.000000   4607706   4605892   4604209   4602588   4601000  
  4190.000000   4599394   4597789   4596179   4594635   4593183  
  4180.000000   4591923   4590888   4590178   4589812   4589879  
  4170.000000   4590386   4591420   4592984   4595164   4597950  
  4160.000000   4601409   4605495   4610242   4615569   4621494  
  4150.000000   4627926   4634897   4642334   4650291   4658717  
  4140.000000   4667686   4677160   4687220   4697828   4709049  
  4130.000000   4720825   4733184   4746042   4759404   4773184  
  4120.000000   4787400   4802004   4817046   4832516   4848476  
  4110.000000   4864907   4881839   4899211   4916996   4935099  
  4100.000000   4953464   4972003   4990683   5009463   5028357  
  4090.000000   5047369   5066529   5085852   5105342   5124994  
  4080.000000   5144785   5164704   5184714   5204808   5224932  
  4070.000000   5245066   5265121   5285063   5304791   5324296  
  4060.000000   5343500   5362427   5381002   5399247   5417048  
  4050.000000   5434405   5451182   5467396   5482923   5497807  
  4040.000000   5511920   5525292   5537770   5549381   5559989  
  4030.000000   5569670   5578334   5586085   5592835   5598637  
  4020.000000   5603330   5606950   5609416   5610814   5611077  
  4010.000000   5610400   5608888   5606618   5603370   5599282  
  4000.000000   5594774  
##END= 
