##TITLE= Sample 026 By ssteindl date Dienstag, November 20 2018
##JCAMP-DX= 4.24
##DATA TYPE= INFRARED SPECTRUM
##ORIGIN= Exported PE Spectrum Data File
##OWNER= Sandra Steindl
##DATE= 18/11/20
##TIME= 11:43:52.00
##SPECTROMETER/DATA SYSTEM= PERKIN-ELMER Frontier FT-IR/NIR IR
##INSTRUMENT PARAMETERS=
  APODIZATION=stark
  DETECTOR=INGAAS
##RESOLUTION= 16.000000
##DELTAX= -2.000000
##XUNITS= 1/CM
##YUNITS= A
##XFACTOR= 1.00
##YFACTOR= 0.00000011920928955078
##FIRSTX= 10000.00
##LASTX= 4000.00
##NPOINTS= 3001
##FIRSTY= 0.197887
##MAXY= 0.586898
##MINY= 0.176808
##XYDATA= (X++(Y..Y))
 10000.000000   1659996   1661344   1663730   1667957   1672956  
  9990.000000   1676874   1678833   1679142   1678303   1676711  
  9980.000000   1674856   1673173   1671802   1670671   1669800  
  9970.000000   1669286   1669133   1669165   1669008   1668207  
  9960.000000   1666485   1664001   1661443   1659875   1660328  
  9950.000000   1663352   1668655   1675164   1681351   1685885  
  9940.000000   1688099   1688290   1687487   1687026   1687885  
  9930.000000   1690314   1693688   1696830   1698475   1697762  
  9920.000000   1694490   1689093   1682368   1675154   1668060  
  9910.000000   1661404   1655312   1649814   1645047   1641114  
  9900.000000   1638146   1636061   1634622   1633493   1632383  
  9890.000000   1631297   1630522   1630693   1632534   1636709  
  9880.000000   1643582   1653096   1664709   1677367   1689597  
  9870.000000   1699646   1705856   1706979   1702687   1693637  
  9860.000000   1681559   1668697   1657330   1649032   1644294  
  9850.000000   1642494   1642213   1641993   1640830   1638749  
  9840.000000   1636575   1635717   1637386   1642193   1649821  
  9830.000000   1659164   1668711   1676939   1682762   1685616  
  9820.000000   1685566   1683086   1678991   1674186   1669590  
  9810.000000   1665921   1663557   1662399   1661844   1661007  
  9800.000000   1658982   1655344   1650306   1644873   1640392  
  9790.000000   1638182   1638865   1642175   1646950   1651592  
  9780.000000   1654663   1655350   1653738   1650559   1646848  
  9770.000000   1643380   1640456   1637822   1634974   1631461  
  9760.000000   1627206   1622566   1618217   1614890   1613070  
  9750.000000   1612912   1614185   1616471   1619275   1622139  
  9740.000000   1624702   1626630   1627709   1627782   1626903  
  9730.000000   1625282   1623316   1621425   1619944   1619016  
  9720.000000   1618572   1618466   1618561   1618903   1619647  
  9710.000000   1621000   1623008   1625436   1627773   1629337  
  9700.000000   1629537   1628059   1624984   1620739   1615931  
  9690.000000   1611200   1607067   1603952   1602139   1601837  
  9680.000000   1603070   1605641   1609009   1612348   1614690  
  9670.000000   1615185   1613418   1609528   1604263   1598668  
  9660.000000   1593809   1590370   1588536   1588011   1588269  
  9650.000000   1588845   1589506   1590328   1591510   1593239  
  9640.000000   1595482   1597983   1600353   1602211   1603385  
  9630.000000   1603873   1603881   1603591   1603129   1602479  
  9620.000000   1601534   1600251   1598660   1597012   1595611  
  9610.000000   1594816   1594860   1595814   1597562   1599800  
  9600.000000   1602084   1603842   1604445   1603304   1600027  
  9590.000000   1594608   1587559   1579939   1573162   1568667  
  9580.000000   1567463   1569776   1574909   1581402   1587473  
  9570.000000   1591504   1592537   1590431   1585883   1580083  
  9560.000000   1574382   1569885   1567244   1566603   1567705  
  9550.000000   1570089   1573277   1576903   1580716   1584553  
  9540.000000   1588208   1591424   1593832   1595036   1594712  
  9530.000000   1592717   1589267   1584914   1580533   1577071  
  9520.000000   1575284   1575483   1577375   1580171   1582804  
  9510.000000   1584316   1584175   1582435   1579694   1576825  
  9500.000000   1574657   1573679   1573918   1575015   1576445  
  9490.000000   1577776   1578844   1579766   1580814   1582213  
  9480.000000   1583982   1585910   1587619   1588730   1588981  
  9470.000000   1588319   1586889   1584984   1582948   1581135  
  9460.000000   1579820   1579204   1579319   1580045   1581042  
  9450.000000   1581844   1581916   1580853   1578488   1575029  
  9440.000000   1570987   1567063   1563895   1561855   1560940  
  9430.000000   1560793   1560890   1560706   1559908   1558396  
  9420.000000   1556270   1553734   1550999   1548258   1545708  
  9410.000000   1543593   1542218   1541882   1542756   1544766  
  9400.000000   1547496   1550275   1552322   1553032   1552211  
  9390.000000   1550129   1547462   1544954   1543173   1542250  
  9380.000000   1541859   1541339   1539976   1537334   1533510  
  9370.000000   1529171   1525335   1523008   1522777   1524627  
  9360.000000   1527908   1531569   1534491   1535846   1535415  
  9350.000000   1533585   1531215   1529217   1528257   1528489  
  9340.000000   1529612   1531003   1532039   1532313   1531803  
  9330.000000   1530846   1529952   1529614   1530089   1531397  
  9320.000000   1533348   1535688   1538155   1540544   1542650  
  9310.000000   1544286   1545226   1545308   1544487   1542942  
  9300.000000   1541066   1539349   1538196   1537674   1537465  
  9290.000000   1536941   1535431   1532511   1528177   1522939  
  9280.000000   1517635   1513233   1510462   1509632   1510573  
  9270.000000   1512790   1515694   1518729   1521429   1523378  
  9260.000000   1524194   1523567   1521380   1517791   1513382  
  9250.000000   1509050   1505875   1504670   1505705   1508490  
  9240.000000   1511966   1514845   1516078   1515222   1512566  
  9230.000000   1509078   1505974   1504329   1504633   1506776  
  9220.000000   1510192   1514164   1518090   1521556   1524368  
  9210.000000   1526386   1527432   1527201   1525347   1521692  
  9200.000000   1516428   1510215   1504073   1499120   1496251  
  9190.000000   1495934   1498033   1501897   1506480   1510706  
  9180.000000   1513711   1515015   1514534   1512540   1509591  
  9170.000000   1506357   1503484   1501417   1500397   1500405  
  9160.000000   1501251   1502584   1503989   1505092   1505636  
  9150.000000   1505523   1504786   1503575   1502143   1500765  
  9140.000000   1499719   1499185   1499257   1499873   1500855  
  9130.000000   1501946   1502917   1503662   1504222   1504804  
  9120.000000   1505651   1506985   1508849   1511110   1513473  
  9110.000000   1515599   1517236   1518268   1518736   1518745  
  9100.000000   1518379   1517613   1516297   1514268   1511468  
  9090.000000   1508068   1504478   1501280   1499054   1498178  
  9080.000000   1498672   1500200   1502174   1503939   1504948  
  9070.000000   1504921   1503905   1502233   1500396   1498927  
  9060.000000   1498267   1498691   1500237   1502712   1505723  
  9050.000000   1508757   1511279   1512845   1513191   1512280  
  9040.000000   1510293   1507548   1504412   1501211   1498187  
  9030.000000   1495493   1493220   1491453   1490263   1489698  
  9020.000000   1489696   1490095   1490634   1491010   1490962  
  9010.000000   1490347   1489218   1487755   1486227   1484863  
  9000.000000   1483853   1483276   1483169   1483524   1484353  
  8990.000000   1485649   1487350   1489300   1491255   1492941  
  8980.000000   1494139   1494780   1495000   1495093   1495410  
  8970.000000   1496215   1497576   1499333   1501160   1502679  
  8960.000000   1503590   1503771   1503301   1502401   1501333  
  8950.000000   1500312   1499456   1498782   1498237   1497758  
  8940.000000   1497305   1496890   1496550   1496359   1496391  
  8930.000000   1496728   1497419   1498470   1499811   1501273  
  8920.000000   1502603   1503510   1503763   1503265   1502117  
  8910.000000   1500601   1499125   1498086   1497757   1498180  
  8900.000000   1499172   1500369   1501371   1501842   1501631  
  8890.000000   1500794   1499575   1498319   1497367   1496988  
  8880.000000   1497321   1498381   1500071   1502221   1504628  
  8870.000000   1507081   1509380   1511337   1512787   1513609  
  8860.000000   1513750   1513246   1512231   1510924   1509614  
  8850.000000   1508596   1508105   1508254   1508987   1510106  
  8840.000000   1511301   1512260   1512739   1512645   1512057  
  8830.000000   1511182   1510293   1509619   1509303   1509358  
  8820.000000   1509708   1510223   1510806   1511421   1512114  
  8810.000000   1512977   1514099   1515510   1517170   1518955  
  8800.000000   1520717   1522292   1523588   1524568   1525289  
  8790.000000   1525860   1526423   1527125   1528078   1529370  
  8780.000000   1531024   1533019   1535277   1537679   1540068  
  8770.000000   1542261   1544075   1545341   1545963   1545916  
  8760.000000   1545295   1544285   1543163   1542232   1541770  
  8750.000000   1541969   1542894   1544485   1546571   1548943  
  8740.000000   1551381   1553736   1555917   1557920   1559774  
  8730.000000   1561533   1563238   1564909   1566550   1568135  
  8720.000000   1569622   1570940   1571991   1572672   1572881  
  8710.000000   1572591   1571845   1570803   1569695   1568787  
  8700.000000   1568292   1568310   1568779   1569492   1570150  
  8690.000000   1570467   1570260   1569509   1568375   1567147  
  8680.000000   1566164   1565712   1565954   1566884   1568359  
  8670.000000   1570138   1571995   1573739   1575299   1576679  
  8660.000000   1577967   1579246   1580584   1581972   1583365  
  8650.000000   1584692   1585936   1587139   1588429   1589974  
  8640.000000   1591922   1594346   1597172   1600208   1603156  
  8630.000000   1605733   1607726   1609080   1609894   1610395  
  8620.000000   1610858   1611513   1612477   1613714   1615059  
  8610.000000   1616259   1617067   1617298   1616899   1615962  
  8600.000000   1614711   1613459   1612536   1612234   1612719  
  8590.000000   1614032   1616057   1618588   1621366   1624169  
  8580.000000   1626853   1629354   1631677   1633821   1635775  
  8570.000000   1637440   1638690   1639378   1639452   1638973  
  8560.000000   1638148   1637297   1636762   1636853   1637730  
  8550.000000   1639423   1641809   1644669   1647717   1650654  
  8540.000000   1653220   1655185   1656391   1656759   1656354  
  8530.000000   1655373   1654140   1653059   1652541   1652906  
  8520.000000   1654277   1656581   1659552   1662820   1665971  
  8510.000000   1668661   1670673   1671921   1672447   1672355  
  8500.000000   1671832   1671061   1670247   1669559   1669160  
  8490.000000   1669168   1669627   1670533   1671813   1673416  
  8480.000000   1675281   1677405   1679786   1682417   1685248  
  8470.000000   1688114   1690777   1692922   1694301   1694736  
  8460.000000   1694225   1692923   1691159   1689345   1687886  
  8450.000000   1687143   1687366   1688704   1691138   1694530  
  8440.000000   1698590   1702941   1707116   1710665   1713238  
  8430.000000   1714666   1715021   1714573   1713739   1712942  
  8420.000000   1712505   1712563   1713035   1713723   1714381  
  8410.000000   1714857   1715098   1715204   1715311   1715546  
  8400.000000   1715908   1716275   1716427   1716153   1715340  
  8390.000000   1714034   1712437   1710860   1709611   1708908  
  8380.000000   1708792   1709149   1709742   1710309   1710634  
  8370.000000   1710595   1710192   1709506   1708662   1707772  
  8360.000000   1706923   1706167   1705541   1705075   1704803  
  8350.000000   1704759   1704958   1705398   1706030   1706787  
  8340.000000   1707575   1708310   1708920   1709355   1709585  
  8330.000000   1709589   1709365   1708913   1708256   1707437  
  8320.000000   1706521   1705592   1704722   1703975   1703371  
  8310.000000   1702919   1702592   1702376   1702255   1702232  
  8300.000000   1702308   1702464   1702639   1702724   1702593  
  8290.000000   1702131   1701287   1700099   1698710   1697336  
  8280.000000   1696222   1695565   1695448   1695822   1696513  
  8270.000000   1697275   1697854   1698055   1697788   1697080  
  8260.000000   1696059   1694909   1693815   1692926   1692322  
  8250.000000   1692028   1691995   1692152   1692392   1692628  
  8240.000000   1692770   1692765   1692562   1692141   1691474  
  8230.000000   1690545   1689335   1687826   1686016   1683923  
  8220.000000   1681594   1679110   1676563   1674061   1671694  
  8210.000000   1669550   1667683   1666135   1664915   1664009  
  8200.000000   1663361   1662887   1662472   1661998   1661368  
  8190.000000   1660532   1659512   1658375   1657219   1656114  
  8180.000000   1655084   1654083   1653030   1651835   1650461  
  8170.000000   1648939   1647369   1645888   1644593   1643526  
  8160.000000   1642632   1641817   1640974   1640067   1639125  
  8150.000000   1638253   1637554   1637076   1636747   1636375  
  8140.000000   1635708   1634512   1632674   1630233   1627388  
  8130.000000   1624413   1621579   1619067   1616935   1615133  
  8120.000000   1613557   1612119   1610790   1609609   1608648  
  8110.000000   1607970   1607576   1607406   1607346   1607274  
  8100.000000   1607106   1606797   1606371   1605850   1605268  
  8090.000000   1604595   1603783   1602745   1601423   1599795  
  8080.000000   1597922   1595936   1594029   1592422   1591317  
  8070.000000   1590870   1591135   1592072   1593515   1595215  
  8060.000000   1596864   1598170   1598902   1598958   1598379  
  8050.000000   1597326   1596037   1594734   1593571   1592575  
  8040.000000   1591667   1590697   1589515   1588033   1586260  
  8030.000000   1584303   1582322   1580488   1578920   1577681  
  8020.000000   1576774   1576171   1575855   1575812   1576044  
  8010.000000   1576530   1577200   1577932   1578567   1578962  
  8000.000000   1579042   1578834   1578478   1578166   1578088  
  7990.000000   1578337   1578874   1579515   1579989   1580028  
  7980.000000   1579455   1578259   1576599   1574766   1573088  
  7970.000000   1571845   1571175   1571066   1571361   1571830  
  7960.000000   1572239   1572413   1572273   1571828   1571152  
  7950.000000   1570347   1569508   1568701   1567970   1567342  
  7940.000000   1566844   1566508   1566369   1566451   1566750  
  7930.000000   1567228   1567805   1568378   1568841   1569102  
  7920.000000   1569115   1568865   1568390   1567740   1566985  
  7910.000000   1566186   1565406   1564709   1564164   1563847  
  7900.000000   1563825   1564145   1564800   1565732   1566820  
  7890.000000   1567912   1568859   1569546   1569921   1569998  
  7880.000000   1569837   1569521   1569130   1568718   1568325  
  7870.000000   1567973   1567684   1567475   1567350   1567292  
  7860.000000   1567246   1567141   1566906   1566514   1565999  
  7850.000000   1565460   1565033   1564842   1564948   1565328  
  7840.000000   1565875   1566454   1566943   1567292   1567528  
  7830.000000   1567735   1568000   1568367   1568803   1569212  
  7820.000000   1569467   1569461   1569150   1568564   1567785  
  7810.000000   1566914   1566030   1565181   1564377   1563621  
  7800.000000   1562920   1562298   1561782   1561393   1561115  
  7790.000000   1560915   1560737   1560541   1560314   1560080  
  7780.000000   1559878   1559736   1559650   1559573   1559435  
  7770.000000   1559171   1558754   1558209   1557604   1557023  
  7760.000000   1556526   1556142   1555849   1555621   1555434  
  7750.000000   1555305   1555274   1555382   1555636   1555967  
  7740.000000   1556239   1556259   1555851   1554897   1553403  
  7730.000000   1551496   1549415   1547448   1545867   1544872  
  7720.000000   1544540   1544832   1545595   1546622   1547684  
  7710.000000   1548591   1549214   1549506   1549492   1549245  
  7700.000000   1548869   1548447   1548044   1547672   1547316  
  7690.000000   1546928   1546462   1545884   1545183   1544384  
  7680.000000   1543527   1542678   1541897   1541247   1540769  
  7670.000000   1540492   1540424   1540549   1540837   1541240  
  7660.000000   1541700   1542147   1542512   1542726   1542737  
  7650.000000   1542520   1542097   1541532   1540939   1540448  
  7640.000000   1540180   1540204   1540506   1540993   1541505  
  7630.000000   1541870   1541962   1541745   1541284   1540725  
  7620.000000   1540234   1539945   1539908   1540079   1540351  
  7610.000000   1540594   1540713   1540677   1540527   1540338  
  7600.000000   1540187   1540108   1540084   1540057   1539959  
  7590.000000   1539745   1539428   1539070   1538773   1538642  
  7580.000000   1538752   1539121   1539714   1540443   1541210  
  7570.000000   1541912   1542489   1542911   1543203   1543412  
  7560.000000   1543602   1543825   1544115   1544482   1544924  
  7550.000000   1545441   1546052   1546790   1547701   1548808  
  7540.000000   1550097   1551487   1552850   1554020   1554858  
  7530.000000   1555282   1555318   1555087   1554787   1554628  
  7520.000000   1554785   1555350   1556314   1557588   1559033  
  7510.000000   1560505   1561897   1563149   1564251   1565230  
  7500.000000   1566128   1566986   1567839   1568697   1569565  
  7490.000000   1570424   1571264   1572065   1572831   1573567  
  7480.000000   1574305   1575078   1575923   1576864   1577914  
  7470.000000   1579074   1580343   1581727   1583244   1584919  
  7460.000000   1586775   1588809   1590987   1593227   1595430  
  7450.000000   1597484   1599313   1600868   1602165   1603252  
  7440.000000   1604217   1605148   1606130   1607222   1608464  
  7430.000000   1609882   1611487   1613288   1615280   1617458  
  7420.000000   1619799   1622268   1624806   1627338   1629776  
  7410.000000   1632036   1634056   1635805   1637307   1638621  
  7400.000000   1639842   1641060   1642343   1643715   1645157  
  7390.000000   1646625   1648077   1649504   1650929   1652415  
  7380.000000   1654025   1655800   1657727   1659746   1661767  
  7370.000000   1663708   1665519   1667208   1668829   1670461  
  7360.000000   1672173   1673994   1675900   1677821   1679662  
  7350.000000   1681322   1682724   1683826   1684636   1685206  
  7340.000000   1685622   1685996   1686449   1687093   1688009  
  7330.000000   1689240   1690780   1692579   1694554   1696612  
  7320.000000   1698669   1700662   1702547   1704290   1705872  
  7310.000000   1707275   1708509   1709602   1710626   1711666  
  7300.000000   1712812   1714124   1715608   1717222   1718877  
  7290.000000   1720486   1721988   1723385   1724724   1726083  
  7280.000000   1727522   1729050   1730615   1732111   1733425  
  7270.000000   1734470   1735230   1735767   1736212   1736717  
  7260.000000   1737418   1738389   1739640   1741111   1742712  
  7250.000000   1744335   1745908   1747386   1748778   1750122  
  7240.000000   1751491   1752951   1754575   1756401   1758461  
  7230.000000   1760734   1763188   1765746   1768335   1770872  
  7220.000000   1773309   1775624   1777858   1780082   1782415  
  7210.000000   1784958   1787793   1790928   1794313   1797827  
  7200.000000   1801335   1804714   1807905   1810917   1813831  
  7190.000000   1816755   1819795   1823007   1826390   1829881  
  7180.000000   1833402   1836874   1840269   1843592   1846885  
  7170.000000   1850184   1853513   1856854   1860181   1863461  
  7160.000000   1866702   1869938   1873251   1876714   1880397  
  7150.000000   1884316   1888455   1892753   1897152   1901584  
  7140.000000   1906031   1910477   1914950   1919461   1924042  
  7130.000000   1928704   1933477   1938379   1943452   1948711  
  7120.000000   1954177   1959824   1965617   1971483   1977359  
  7110.000000   1983175   1988899   1994508   2000020   2005453  
  7100.000000   2010856   2016266   2021733   2027283   2032937  
  7090.000000   2038685   2044505   2050361   2056225   2062087  
  7080.000000   2067959   2073875   2079871   2085968   2092156  
  7070.000000   2098392   2104618   2110768   2116803   2122701  
  7060.000000   2128472   2134124   2139662   2145084   2150386  
  7050.000000   2155591   2160752   2165964   2171333   2176955  
  7040.000000   2182859   2189002   2195260   2201464   2207437  
  7030.000000   2213056   2218275   2223143   2227776   2232330  
  7020.000000   2236945   2241730   2246725   2251917   2257234  
  7010.000000   2262588   2267867   2272984   2277862   2282473  
  7000.000000   2286808   2290902   2294792   2298537   2302176  
  6990.000000   2305753   2309293   2312829   2316378   2319968  
  6980.000000   2323596   2327264   2330929   2334555   2338084  
  6970.000000   2341491   2344757   2347906   2350960   2353950  
  6960.000000   2356876   2359720   2362435   2364981   2367321  
  6950.000000   2369462   2371428   2373280   2375073   2376869  
  6940.000000   2378698   2380587   2382531   2384523   2386537  
  6930.000000   2388545   2390500   2392361   2394087   2395659  
  6920.000000   2397073   2398357   2399547   2400692   2401831  
  6910.000000   2402992   2404189   2405431   2406714   2408036  
  6900.000000   2409379   2410723   2412033   2413279   2414437  
  6890.000000   2415508   2416515   2417498   2418496   2419537  
  6880.000000   2420623   2421738   2422855   2423962   2425055  
  6870.000000   2426150   2427257   2428373   2429463   2430471  
  6860.000000   2431337   2432021   2432525   2432898   2433216  
  6850.000000   2433560   2433982   2434496   2435071   2435664  
  6840.000000   2436228   2436752   2437251   2437773   2438360  
  6830.000000   2439050   2439842   2440716   2441623   2442511  
  6820.000000   2443323   2444013   2444542   2444886   2445035  
  6810.000000   2445004   2444823   2444547   2444232   2443932  
  6800.000000   2443682   2443499   2443379   2443314   2443291  
  6790.000000   2443310   2443363   2443450   2443557   2443668  
  6780.000000   2443762   2443824   2443850   2443848   2443827  
  6770.000000   2443790   2443731   2443634   2443479   2443260  
  6760.000000   2442989   2442696   2442415   2442177   2441992  
  6750.000000   2441848   2441716   2441568   2441384   2441161  
  6740.000000   2440914   2440662   2440423   2440208   2440026  
  6730.000000   2439888   2439810   2439811   2439904   2440085  
  6720.000000   2440328   2440589   2440815   2440968   2441030  
  6710.000000   2441018   2440965   2440911   2440878   2440869  
  6700.000000   2440854   2440795   2440644   2440364   2439930  
  6690.000000   2439334   2438580   2437692   2436701   2435659  
  6680.000000   2434615   2433623   2432713   2431898   2431161  
  6670.000000   2430478   2429821   2429184   2428573   2428010  
  6660.000000   2427502   2427035   2426564   2426027   2425364  
  6650.000000   2424550   2423601   2422575   2421544   2420569  
  6640.000000   2419665   2418811   2417945   2417006   2415949  
  6630.000000   2414766   2413477   2412124   2410742   2409357  
  6620.000000   2407975   2406602   2405244   2403917   2402632  
  6610.000000   2401396   2400188   2398974   2397710   2396369  
  6600.000000   2394948   2393477   2392000   2390553   2389142  
  6590.000000   2387742   2386303   2384782   2383164   2381475  
  6580.000000   2379773   2378125   2376573   2375119   2373721  
  6570.000000   2372316   2370847   2369290   2367665   2366027  
  6560.000000   2364440   2362952   2361578   2360295   2359060  
  6550.000000   2357824   2356556   2355248   2353914   2352580  
  6540.000000   2351272   2350004   2348777   2347580   2346393  
  6530.000000   2345197   2343977   2342729   2341456   2340173  
  6520.000000   2338896   2337636   2336396   2335167   2333933  
  6510.000000   2332680   2331404   2330124   2328872   2327691  
  6500.000000   2326607   2325627   2324723   2323842   2322925  
  6490.000000   2321924   2320822   2319633   2318395   2317147  
  6480.000000   2315916   2314706   2313499   2312275   2311019  
  6470.000000   2309735   2308444   2307173   2305942   2304754  
  6460.000000   2303591   2302427   2301231   2299987   2298694  
  6450.000000   2297365   2296026   2294701   2293416   2292184  
  6440.000000   2291014   2289899   2288830   2287788   2286759  
  6430.000000   2285732   2284716   2283730   2282809   2281983  
  6420.000000   2281273   2280676   2280173   2279726   2279309  
  6410.000000   2278901   2278507   2278134   2277793   2277476  
  6400.000000   2277162   2276821   2276435   2276003   2275556  
  6390.000000   2275140   2274798   2274548   2274379   2274248  
  6380.000000   2274102   2273903   2273639   2273331   2273014  
  6370.000000   2272719   2272454   2272200   2271919   2271579  
  6360.000000   2271167   2270697   2270198   2269704   2269224  
  6350.000000   2268749   2268249   2267706   2267114   2266505  
  6340.000000   2265921   2265407   2264978   2264614   2264257  
  6330.000000   2263842   2263305   2262618   2261785   2260840  
  6320.000000   2259827   2258787   2257741   2256703   2255673  
  6310.000000   2254662   2253677   2252732   2251826   2250951  
  6300.000000   2250079   2249181   2248224   2247196   2246093  
  6290.000000   2244927   2243710   2242458   2241181   2239892  
  6280.000000   2238605   2237345   2236127   2234969   2233862  
  6270.000000   2232789   2231713   2230599   2229418   2228159  
  6260.000000   2226826   2225436   2224008   2222556   2221089  
  6250.000000   2219611   2218124   2216634   2215144   2213654  
  6240.000000   2212157   2210644   2209105   2207546   2205983  
  6230.000000   2204445   2202965   2201565   2200247   2198991  
  6220.000000   2197764   2196531   2195271   2193979   2192671  
  6210.000000   2191366   2190080   2188813   2187553   2186281  
  6200.000000   2184984   2183659   2182323   2180997   2179708  
  6190.000000   2178474   2177305   2176205   2175170   2174197  
  6180.000000   2173275   2172392   2171523   2170638   2169709  
  6170.000000   2168713   2167644   2166515   2165351   2164186  
  6160.000000   2163046   2161949   2160898   2159889   2158911  
  6150.000000   2157950   2156992   2156019   2155007   2153936  
  6140.000000   2152795   2151586   2150336   2149084   2147876  
  6130.000000   2146747   2145709   2144746   2143822   2142894  
  6120.000000   2141931   2140924   2139891   2138867   2137899  
  6110.000000   2137023   2136264   2135623   2135090   2134638  
  6100.000000   2134243   2133871   2133502   2133117   2132713  
  6090.000000   2132293   2131881   2131495   2131163   2130891  
  6080.000000   2130681   2130513   2130371   2130230   2130091  
  6070.000000   2129959   2129862   2129823   2129872   2130020  
  6060.000000   2130281   2130649   2131130   2131715   2132410  
  6050.000000   2133199   2134080   2135026   2136027   2137062  
  6040.000000   2138140   2139263   2140462   2141751   2143155  
  6030.000000   2144673   2146305   2148027   2149829   2151687  
  6020.000000   2153595   2155539   2157521   2159529   2161570  
  6010.000000   2163632   2165727   2167850   2170014   2172218  
  6000.000000   2174476   2176784   2179159   2181607   2184155  
  5990.000000   2186812   2189600   2192514   2195556   2198702  
  5980.000000   2201944   2205260   2208657   2212130   2215697  
  5970.000000   2219352   2223099   2226916   2230801   2234735  
  5960.000000   2238731   2242789   2246929   2251146   2255436  
  5950.000000   2259764   2264106   2268431   2272735   2277029  
  5940.000000   2281348   2285727   2290198   2294774   2299441  
  5930.000000   2304175   2308935   2313685   2318384   2323000  
  5920.000000   2327495   2331837   2335990   2339936   2343666  
  5910.000000   2347198   2350556   2353777   2356885   2359903  
  5900.000000   2362832   2365684   2368459   2371188   2373896  
  5890.000000   2376631   2379415   2382270   2385180   2388120  
  5880.000000   2391041   2393899   2396648   2399262   2401723  
  5870.000000   2404032   2406204   2408267   2410259   2412220  
  5860.000000   2414191   2416200   2418264   2420384   2422553  
  5850.000000   2424766   2427018   2429316   2431666   2434077  
  5840.000000   2436550   2439076   2441647   2444251   2446886  
  5830.000000   2449550   2452247   2454969   2457706   2460430  
  5820.000000   2463118   2465750   2468325   2470857   2473371  
  5810.000000   2475889   2478419   2480958   2483479   2485974  
  5800.000000   2488422   2490849   2493261   2495707   2498176  
  5790.000000   2500674   2503132   2505488   2507615   2509414  
  5780.000000   2510744   2511508   2511600   2510980   2509634  
  5770.000000   2507638   2505102   2502210   2499135   2496060  
  5760.000000   2493094   2490320   2487737   2485341   2483096  
  5750.000000   2481000   2479042   2477237   2475581   2474058  
  5740.000000   2472636   2471268   2469921   2468570   2467218  
  5730.000000   2465871   2464554   2463274   2462044   2460860  
  5720.000000   2459732   2458663   2457667   2456746   2455900  
  5710.000000   2455108   2454348   2453594   2452838   2452082  
  5700.000000   2451346   2450649   2449998   2449389   2448795  
  5690.000000   2448196   2447574   2446939   2446306   2445713  
  5680.000000   2445169   2444678   2444194   2443664   2443004  
  5670.000000   2442143   2441011   2439571   2437794   2435686  
  5660.000000   2433268   2430592   2427727   2424764   2421788  
  5650.000000   2418886   2416108   2413487   2411019   2408694  
  5640.000000   2406491   2404398   2402402   2400495   2398664  
  5630.000000   2396886   2395143   2393414   2391699   2390008  
  5620.000000   2388370   2386809   2385349   2383990   2382725  
  5610.000000   2381528   2380380   2379263   2378173   2377109  
  5600.000000   2376075   2375073   2374109   2373183   2372304  
  5590.000000   2371479   2370714   2370001   2369324   2368652  
  5580.000000   2367955   2367206   2366395   2365532   2364634  
  5570.000000   2363721   2362797   2361856   2360875   2359832  
  5560.000000   2358714   2357523   2356279   2355012   2353751  
  5550.000000   2352520   2351332   2350194   2349109   2348078  
  5540.000000   2347100   2346169   2345266   2344369   2343454  
  5530.000000   2342507   2341529   2340539   2339563   2338623  
  5520.000000   2337731   2336880   2336050   2335218   2334364  
  5510.000000   2333484   2332572   2331634   2330659   2329637  
  5500.000000   2328549   2327387   2326152   2324866   2323556  
  5490.000000   2322250   2320956   2319668   2318359   2317007  
  5480.000000   2315593   2314121   2312605   2311073   2309540  
  5470.000000   2308017   2306498   2304975   2303436   2301878  
  5460.000000   2300296   2298686   2297034   2295324   2293542  
  5450.000000   2291685   2289767   2287821   2285887   2283997  
  5440.000000   2282168   2280397   2278674   2276991   2275359  
  5430.000000   2273796   2272328   2270959   2269679   2268447  
  5420.000000   2267230   2265998   2264770   2263584   2262513  
  5410.000000   2261601   2260880   2260316   2259870   2259474  
  5400.000000   2259107   2258759   2258480   2258311   2258309  
  5390.000000   2258478   2258822   2259294   2259883   2260563  
  5380.000000   2261360   2262282   2263368   2264606   2266005  
  5370.000000   2267525   2269174   2270928   2272830   2274882  
  5360.000000   2277139   2279594   2282292   2285210   2288406  
  5350.000000   2291874   2295695   2299872   2304475   2309470  
  5340.000000   2314895   2320688   2326892   2333463   2340469  
  5330.000000   2347873   2355744   2364024   2372769   2381922  
  5320.000000   2391569   2401693   2412424   2423763   2435836  
  5310.000000   2448607   2462155   2476400   2491400   2507085  
  5300.000000   2523538   2540718   2558732   2577551   2597265  
  5290.000000   2617810   2639215   2661348   2684163   2707494  
  5280.000000   2731295   2755472   2780086   2805162   2830841  
  5270.000000   2857165   2884173   2911754   2939748   2967925  
  5260.000000   2996089   3024119   3051982   3079733   3107419  
  5250.000000   3135076   3162614   3189917   3216755   3242999  
  5240.000000   3268488   3293258   3317304   3340779   3363708  
  5230.000000   3386199   3408169   3429609   3450348   3470347  
  5220.000000   3489470   3507774   3525233   3542008   3558133  
  5210.000000   3573778   3588923   3603637   3617788   3631362  
  5200.000000   3644197   3656317   3667638   3678264   3688170  
  5190.000000   3697464   3706095   3714128   3721480   3728211  
  5180.000000   3734264   3739731   3744576   3748884   3752599  
  5170.000000   3755771   3758332   3760343   3761780   3762745  
  5160.000000   3763240   3763359   3763069   3762413   3761326  
  5150.000000   3759842   3757927   3755652   3753020   3750107  
  5140.000000   3746903   3743448   3739710   3735719   3731459  
  5130.000000   3726984   3722303   3717469   3712482   3707369  
  5120.000000   3702111   3696730   3691226   3685647   3680014  
  5110.000000   3674377   3668746   3663137   3657535   3651936  
  5100.000000   3646327   3640716   3635107   3629518   3623954  
  5090.000000   3618422   3612916   3607433   3601965   3596512  
  5080.000000   3591068   3585634   3580197   3574752   3569283  
  5070.000000   3563789   3558260   3552704   3547114   3541492  
  5060.000000   3535821   3530090   3524271   3518357   3512329  
  5050.000000   3506194   3499950   3493612   3487184   3480683  
  5040.000000   3474114   3467497   3460840   3454164   3447476  
  5030.000000   3440784   3434084   3427376   3420651   3413911  
  5020.000000   3407161   3400413   3393685   3386993   3380356  
  5010.000000   3373786   3367304   3360920   3354658   3348525  
  5000.000000   3342542   3336704   3331019   3325467   3320056  
  4990.000000   3314770   3309636   3304654   3299866   3295278  
  4980.000000   3290928   3286808   3282944   3279315   3275944  
  4970.000000   3272811   3269945   3267324   3264978   3262873  
  4960.000000   3261034   3259422   3258071   3256954   3256126  
  4950.000000   3255581   3255383   3255524   3256061   3256966  
  4940.000000   3258279   3259957   3262035   3264471   3267301  
  4930.000000   3270486   3274064   3277994   3282309   3286964  
  4920.000000   3291989   3297342   3303051   3309082   3315465  
  4910.000000   3322174   3329237   3336627   3344352   3352371  
  4900.000000   3360662   3369165   3377834   3386609   3395441  
  4890.000000   3404288   3413108   3421875   3430542   3439084  
  4880.000000   3447441   3455586   3463444   3470984   3478117  
  4870.000000   3484810   3490968   3496570   3501541   3505903  
  4860.000000   3509629   3512786   3515384   3517503   3519147  
  4850.000000   3520382   3521199   3521656   3521757   3521579  
  4840.000000   3521151   3520562   3519850   3519087   3518296  
  4830.000000   3517521   3516769   3516067   3515414   3514825  
  4820.000000   3514298   3513836   3513442   3513119   3512878  
  4810.000000   3512729   3512689   3512757   3512938   3513210  
  4800.000000   3513565   3513978   3514452   3514985   3515604  
  4790.000000   3516326   3517177   3518159   3519268   3520472  
  4780.000000   3521745   3523046   3524352   3525642   3526912  
  4770.000000   3528158   3529386   3530596   3531792   3532975  
  4760.000000   3534149   3535316   3536480   3537642   3538798  
  4750.000000   3539942   3541059   3542141   3543173   3544152  
  4740.000000   3545073   3545945   3546773   3547572   3548348  
  4730.000000   3549104   3549836   3550529   3551168   3551731  
  4720.000000   3552211   3552603   3552929   3553212   3553495  
  4710.000000   3553812   3554207   3554701   3555327   3556096  
  4700.000000   3557043   3558187   3559569   3561212   3563148  
  4690.000000   3565378   3567902   3570688   3573708   3576907  
  4680.000000   3580246   3583661   3587110   3590527   3593874  
  4670.000000   3597096   3600182   3603118   3605940   3608687  
  4660.000000   3611435   3614247   3617197   3620333   3623697  
  4650.000000   3627299   3631141   3635208   3639474   3643908  
  4640.000000   3648472   3653133   3657856   3662618   3667389  
  4630.000000   3672152   3676875   3681529   3686068   3690455  
  4620.000000   3694632   3698570   3702222   3705580   3708620  
  4610.000000   3711354   3713771   3715898   3717735   3719326  
  4600.000000   3720686   3721875   3722915   3723864   3724721  
  4590.000000   3725512   3726196   3726758   3727133   3727300  
  4580.000000   3727208   3726863   3726259   3725437   3724418  
  4570.000000   3723255   3721967   3720592   3719131   3717600  
  4560.000000   3715990   3714311   3712558   3710748   3708887  
  4550.000000   3707000   3705097   3703198   3701309   3699436  
  4540.000000   3697579   3695734   3693907   3692101   3690333  
  4530.000000   3688614   3686970   3685407   3683944   3682571  
  4520.000000   3681301   3680112   3679023   3678016   3677132  
  4510.000000   3676361   3675765   3675345   3675178   3675273  
  4500.000000   3675721   3676533   3677809   3679555   3681866  
  4490.000000   3684736   3688248   3692383   3697211   3702703  
  4480.000000   3708920   3715817   3723439   3731720   3740680  
  4470.000000   3750228   3760361   3770973   3782046   3793478  
  4460.000000   3805253   3817284   3829563   3842019   3854649  
  4450.000000   3867396   3880260   3893208   3906250   3919380  
  4440.000000   3932616   3945965   3959428   3973001   3986646  
  4430.000000   4000338   4014003   4027601   4041040   4054281  
  4420.000000   4067231   4079860   4092081   4103872   4115148  
  4410.000000   4125886   4136001   4145474   4154237   4162304  
  4400.000000   4169664   4176400   4182575   4188331   4193771  
  4390.000000   4199047   4204242   4209468   4214762   4220181  
  4380.000000   4225725   4231415   4237236   4243201   4249297  
  4370.000000   4255542   4261930   4268473   4275157   4281970  
  4360.000000   4288869   4295820   4302751   4309630   4316362  
  4350.000000   4322937   4329251   4335328   4341092   4346626  
  4340.000000   4351905   4357037   4361959   4366623   4370724  
  4330.000000   4373889   4375531   4375108   4372123   4366387  
  4320.000000   4358014   4347526   4335690   4323445   4311641  
  4310.000000   4300968   4291788   4284216   4278110   4273245  
  4300.000000   4269360   4266258   4263829   4262003   4260773  
  4290.000000   4260083   4259927   4260216   4260945   4262053  
  4280.000000   4263563   4265453   4267729   4270358   4273292  
  4270.000000   4276473   4279815   4283227   4286555   4289604  
  4260.000000   4292083   4293669   4294011   4292844   4290025  
  4250.000000   4285626   4279892   4273260   4266208   4259244  
  4240.000000   4252733   4246938   4241910   4237609   4233861  
  4230.000000   4230494   4227313   4224183   4221009   4217745  
  4220.000000   4214405   4211018   4207678   4204458   4201486  
  4210.000000   4198834   4196598   4194793   4193438   4192472  
  4200.000000   4191846   4191460   4191253   4191138   4191089  
  4190.000000   4191058   4191063   4191093   4191199   4191387  
  4180.000000   4191722   4192207   4192902   4193801   4194953  
  4170.000000   4196351   4198048   4200043   4202396   4205108  
  4160.000000   4208229   4211736   4215655   4219934   4224582  
  4150.000000   4229541   4234837   4240433   4246385   4252682  
  4140.000000   4259398   4266524   4274119   4282143   4290623  
  4130.000000   4299487   4308741   4318316   4328235   4338464  
  4120.000000   4349064   4360039   4371463   4383347   4395746  
  4110.000000   4408643   4422053   4435920   4450213   4464840  
  4100.000000   4479736   4494800   4509968   4525174   4540398  
  4090.000000   4555631   4570889   4586193   4601548   4616963  
  4080.000000   4632407   4647870   4663295   4678669   4693917  
  4070.000000   4709018   4723874   4738454   4752649   4766444  
  4060.000000   4779743   4792558   4804802   4816493   4827537  
  4050.000000   4837963   4847697   4856813   4865279   4873199  
  4040.000000   4880540   4887371   4893612   4899292   4904318  
  4030.000000   4908739   4912502   4915691   4918279   4920342  
  4020.000000   4921827   4922798   4923246   4923253   4922803  
  4010.000000   4922009   4920922   4919557   4917755   4915545  
  4000.000000   4913121  
##END= 
