##TITLE= Sample 023 By ssteindl date Dienstag, November 20 2018
##JCAMP-DX= 4.24
##DATA TYPE= INFRARED SPECTRUM
##ORIGIN= Exported PE Spectrum Data File
##OWNER= Sandra Steindl
##DATE= 18/11/20
##TIME= 11:25:33.00
##SPECTROMETER/DATA SYSTEM= PERKIN-ELMER Frontier FT-IR/NIR IR
##INSTRUMENT PARAMETERS=
  APODIZATION=stark
  DETECTOR=INGAAS
##RESOLUTION= 16.000000
##DELTAX= -2.000000
##XUNITS= 1/CM
##YUNITS= A
##XFACTOR= 1.00
##YFACTOR= 0.00000011920928955078
##FIRSTX= 10000.00
##LASTX= 4000.00
##NPOINTS= 3001
##FIRSTY= 0.186144
##MAXY= 0.581077
##MINY= 0.162069
##XYDATA= (X++(Y..Y))
 10000.000000   1561490   1559475   1557397   1554744   1550758  
  9990.000000   1544826   1537032   1528130   1519267   1511572  
  9980.000000   1505914   1502666   1501710   1502583   1504764  
  9970.000000   1507809   1511363   1515071   1518525   1521244  
  9960.000000   1522882   1523344   1523011   1522577   1522890  
  9950.000000   1524493   1527401   1530982   1534211   1536089  
  9940.000000   1536088   1534409   1531895   1529679   1528654  
  9930.000000   1529119   1530632   1532280   1533066   1532372  
  9920.000000   1530209   1527180   1524223   1522216   1521630  
  9910.000000   1522427   1524072   1525855   1527092   1527402  
  9900.000000   1526742   1525425   1523978   1523008   1522992  
  9890.000000   1524123   1526175   1528477   1530095   1530029  
  9880.000000   1527642   1522830   1516223   1508963   1502418  
  9870.000000   1497708   1495363   1495220   1496547   1498473  
  9860.000000   1500298   1501836   1503338   1505345   1508312  
  9850.000000   1512372   1517220   1522192   1526491   1529379  
  9840.000000   1530368   1529244   1526114   1521347   1515591  
  9830.000000   1509685   1504546   1500936   1499194   1499075  
  9820.000000   1499739   1500042   1498935   1495944   1491370  
  9810.000000   1486284   1482083   1479996   1480572   1483494  
  9800.000000   1487762   1492080   1495425   1497302   1497871  
  9790.000000   1497619   1497074   1496445   1495629   1494329  
  9780.000000   1492386   1489952   1487526   1485750   1485108  
  9770.000000   1485734   1487358   1489529   1491824   1494070  
  9760.000000   1496304   1498633   1500987   1503015   1504135  
  9750.000000   1503811   1501851   1498638   1495080   1492294  
  9740.000000   1491169   1491964   1494191   1496782   1498494  
  9730.000000   1498368   1496032   1491786   1486427   1480957  
  9720.000000   1476297   1473112   1471748   1472275   1474484  
  9710.000000   1477931   1481934   1485693   1488446   1489718  
  9700.000000   1489475   1488183   1486619   1485562   1485446  
  9690.000000   1486138   1487019   1487239   1486155   1483598  
  9680.000000   1479971   1476049   1472619   1470134   1468558  
  9670.000000   1467431   1466193   1464457   1462254   1459986  
  9660.000000   1458227   1457474   1457892   1459355   1461505  
  9650.000000   1464035   1466821   1469955   1473619   1477837  
  9640.000000   1482309   1486371   1489163   1489913   1488253  
  9630.000000   1484358   1478960   1473080   1467756   1463729  
  9620.000000   1461274   1460204   1459945   1459809   1459168  
  9610.000000   1457715   1455504   1452969   1450722   1449392  
  9600.000000   1449366   1450679   1452973   1455606   1457888  
  9590.000000   1459285   1459607   1458998   1457834   1456493  
  9580.000000   1455212   1453969   1452596   1450850   1448624  
  9570.000000   1445962   1443102   1440343   1437962   1436132  
  9560.000000   1434920   1434368   1434526   1435514   1437415  
  9550.000000   1440225   1443716   1447500   1451099   1454142  
  9540.000000   1456472   1458162   1459424   1460406   1461096  
  9530.000000   1461224   1460416   1458333   1454887   1450334  
  9520.000000   1445214   1440213   1435921   1432713   1430675  
  9510.000000   1429710   1429614   1430199   1431278   1432633  
  9500.000000   1433963   1434905   1435160   1434614   1433490  
  9490.000000   1432274   1431612   1431991   1433571   1436056  
  9480.000000   1438830   1441190   1442611   1442965   1442490  
  9470.000000   1441702   1441110   1441054   1441564   1442434  
  9460.000000   1443323   1443899   1443921   1443225   1441731  
  9450.000000   1439401   1436296   1432619   1428728   1425113  
  9440.000000   1422220   1420355   1419534   1419545   1420048  
  9430.000000   1420782   1421664   1422814   1424386   1426383  
  9420.000000   1428493   1430085   1430439   1429039   1425912  
  9410.000000   1421652   1417273   1413793   1411867   1411541  
  9400.000000   1412279   1413230   1413605   1413010   1411543  
  9390.000000   1409689   1407989   1406794   1406112   1405717  
  9380.000000   1405350   1404905   1404521   1404455   1404926  
  9370.000000   1405883   1406979   1407665   1407451   1406130  
  9360.000000   1403891   1401249   1398855   1397220   1396556  
  9350.000000   1396740   1397440   1398305   1399102   1399750  
  9340.000000   1400272   1400693   1400992   1401103   1400961  
  9330.000000   1400581   1400058   1399557   1399206   1399047  
  9320.000000   1399010   1398996   1398951   1398937   1399079  
  9310.000000   1399459   1399980   1400318   1400012   1398615  
  9300.000000   1395942   1392172   1387879   1383825   1380695  
  9290.000000   1378867   1378297   1378646   1379449   1380386  
  9280.000000   1381368   1382530   1384058   1385975   1388062  
  9270.000000   1389864   1390928   1390927   1389853   1387950  
  9260.000000   1385661   1383419   1381531   1380149   1379301  
  9250.000000   1379052   1379484   1380754   1382896   1385768  
  9240.000000   1388938   1391802   1393736   1394310   1393435  
  9230.000000   1391348   1388539   1385485   1382532   1379778  
  9220.000000   1377159   1374563   1371964   1369509   1367473  
  9210.000000   1366171   1365787   1366333   1367610   1369305  
  9200.000000   1371073   1372635   1373843   1374647   1375102  
  9190.000000   1375285   1375323   1375330   1375420   1375653  
  9180.000000   1376045   1376541   1377067   1377523   1377855  
  9170.000000   1378057   1378170   1378258   1378321   1378316  
  9160.000000   1378152   1377818   1377420   1377216   1377518  
  9150.000000   1378606   1380577   1383233   1386083   1388471  
  9140.000000   1389803   1389715   1388179   1385505   1382250  
  9130.000000   1379052   1376455   1374806   1374237   1374702  
  9120.000000   1376010   1377850   1379804   1381425   1382313  
  9110.000000   1382219   1381122   1379285   1377233   1375569  
  9100.000000   1374795   1375109   1376358   1378105   1379765  
  9090.000000   1380877   1381219   1380925   1380343   1379918  
  9080.000000   1379972   1380593   1381608   1382635   1383248  
  9070.000000   1383052   1381835   1379555   1376374   1372595  
  9060.000000   1368610   1364890   1361897   1360038   1359532  
  9050.000000   1360411   1362472   1365338   1368506   1371485  
  9040.000000   1373923   1375607   1376492   1376600   1376054  
  9030.000000   1374949   1373407   1371541   1369556   1367714  
  9020.000000   1366326   1365685   1365988   1367302   1369470  
  9010.000000   1372208   1375094   1377737   1379809   1381163  
  9000.000000   1381833   1382018   1381997   1382024   1382236  
  8990.000000   1382591   1382899   1382875   1382288   1381015  
  8980.000000   1379118   1376811   1374385   1372109   1370125  
  8970.000000   1368461   1367061   1365892   1364996   1364534  
  8960.000000   1364727   1365753   1367630   1370177   1373057  
  8950.000000   1375840   1378149   1379722   1380510   1380590  
  8940.000000   1380151   1379376   1378473   1377633   1377054  
  8930.000000   1376932   1377404   1378525   1380159   1382062  
  8920.000000   1383874   1385315   1386231   1386696   1386947  
  8910.000000   1387248   1387744   1388326   1388684   1388368  
  8900.000000   1387032   1384571   1381231   1377552   1374181  
  8890.000000   1371710   1370471   1370538   1371736   1373767  
  8880.000000   1376305   1379064   1381802   1384265   1386167  
  8870.000000   1387204   1387189   1386103   1384221   1382019  
  8860.000000   1380125   1379075   1379171   1380362   1382261  
  8850.000000   1384331   1386049   1387145   1387642   1387853  
  8840.000000   1388214   1389104   1390684   1392813   1395102  
  8830.000000   1397022   1398114   1398115   1397085   1395360  
  8820.000000   1393469   1391968   1391281   1391590   1392797  
  8810.000000   1394576   1396501   1398174   1399359   1400012  
  8800.000000   1400293   1400459   1400776   1401422   1402446  
  8790.000000   1403787   1405321   1406934   1408564   1410240  
  8780.000000   1412051   1414108   1416477   1419127   1421925  
  8770.000000   1424604   1426859   1428350   1428858   1428291  
  8760.000000   1426800   1424733   1422605   1421009   1420457  
  8750.000000   1421314   1423658   1427343   1431985   1437135  
  8740.000000   1442303   1447101   1451227   1454508   1456869  
  8730.000000   1458298   1458862   1458660   1457875   1456695  
  8720.000000   1455315   1453874   1452446   1451063   1449723  
  8710.000000   1448485   1447445   1446788   1446672   1447207  
  8700.000000   1448361   1449969   1451772   1453500   1454972  
  8690.000000   1456128   1457038   1457818   1458577   1459345  
  8680.000000   1460108   1460820   1461502   1462225   1463124  
  8670.000000   1464295   1465739   1467316   1468781   1469890  
  8660.000000   1470525   1470772   1470930   1471389   1472485  
  8650.000000   1474327   1476749   1479346   1481650   1483297  
  8640.000000   1484196   1484540   1484749   1485280   1486464  
  8630.000000   1488371   1490812   1493430   1495857   1497850  
  8620.000000   1499374   1500584   1501744   1503125   1504891  
  8610.000000   1507074   1509561   1512156   1514646   1516848  
  8600.000000   1518667   1520075   1521111   1521848   1522372  
  8590.000000   1522757   1523056   1523308   1523556   1523857  
  8580.000000   1524295   1524978   1526017   1527504   1529456  
  8570.000000   1531813   1534426   1537099   1539631   1541869  
  8560.000000   1543742   1545271   1546547   1547699   1548851  
  8550.000000   1550104   1551505   1553046   1554658   1556220  
  8540.000000   1557582   1558582   1559083   1559019   1558440  
  8530.000000   1557507   1556459   1555565   1555061   1555101  
  8520.000000   1555720   1556876   1558477   1560439   1562681  
  8510.000000   1565141   1567739   1570358   1572840   1575001  
  8500.000000   1576712   1577910   1578658   1579093   1579416  
  8490.000000   1579794   1580332   1581048   1581896   1582824  
  8480.000000   1583791   1584804   1585880   1587043   1588278  
  8470.000000   1589532   1590733   1591817   1592780   1593659  
  8460.000000   1594521   1595429   1596407   1597446   1598509  
  8450.000000   1599594   1600752   1602094   1603729   1605712  
  8440.000000   1607981   1610334   1612469   1614060   1614880  
  8430.000000   1614867   1614162   1613059   1611924   1611103  
  8420.000000   1610828   1611208   1612208   1613730   1615622  
  8410.000000   1617739   1619908   1621978   1623789   1625214  
  8400.000000   1626157   1626594   1626577   1626224   1625673  
  8390.000000   1625046   1624418   1623816   1623224   1622624  
  8380.000000   1621995   1621350   1620704   1620071   1619436  
  8370.000000   1618765   1618017   1617174   1616261   1615342  
  8360.000000   1614503   1613831   1613392   1613222   1613334  
  8350.000000   1613735   1614437   1615446   1616741   1618224  
  8340.000000   1619707   1620930   1621635   1621626   1620864  
  8330.000000   1619491   1617826   1616278   1615215   1614863  
  8320.000000   1615225   1616116   1617206   1618158   1618712  
  8310.000000   1618777   1618417   1617811   1617144   1616556  
  8300.000000   1616077   1615661   1615213   1614668   1614025  
  8290.000000   1613356   1612774   1612373   1612171   1612080  
  8280.000000   1611913   1611449   1610517   1609061   1607178  
  8270.000000   1605107   1603169   1601693   1600903   1600881  
  8260.000000   1601515   1602569   1603731   1604704   1605264  
  8250.000000   1605297   1604797   1603821   1602463   1600799  
  8240.000000   1598896   1596811   1594620   1592429   1590365  
  8230.000000   1588575   1587161   1586195   1585652   1585464  
  8220.000000   1585495   1585608   1585662   1585535   1585125  
  8210.000000   1584334   1583097   1581379   1579224   1576748  
  8200.000000   1574146   1571644   1569446   1567681   1566357  
  8190.000000   1565378   1564566   1563750   1562792   1561656  
  8180.000000   1560373   1559022   1557679   1556377   1555106  
  8170.000000   1553818   1552472   1551032   1549506   1547904  
  8160.000000   1546245   1544536   1542785   1541019   1539302  
  8150.000000   1537746   1536479   1535609   1535164   1535070  
  8140.000000   1535161   1535229   1535090   1534637   1533866  
  8130.000000   1532850   1531692   1530470   1529208   1527881  
  8120.000000   1526463   1524958   1523439   1522017   1520797  
  8110.000000   1519817   1519018   1518260   1517377   1516260  
  8100.000000   1514914   1513472   1512154   1511183   1510684  
  8090.000000   1510643   1510898   1511211   1511361   1511208  
  8080.000000   1510739   1510030   1509195   1508320   1507423  
  8070.000000   1506463   1505382   1504153   1502813   1501467  
  8060.000000   1500246   1499270   1498581   1498151   1497878  
  8050.000000   1497640   1497328   1496874   1496260   1495486  
  8040.000000   1494569   1493511   1492325   1491024   1489658  
  8030.000000   1488296   1487025   1485915   1485000   1484269  
  8020.000000   1483673   1483163   1482712   1482338   1482094  
  8010.000000   1482041   1482213   1482570   1483012   1483366  
  8000.000000   1483461   1483149   1482374   1481163   1479644  
  7990.000000   1477997   1476419   1475090   1474131   1473611  
  7980.000000   1473531   1473850   1474484   1475325   1476244  
  7970.000000   1477106   1477779   1478149   1478145   1477738  
  7960.000000   1476968   1475917   1474718   1473508   1472418  
  7950.000000   1471539   1470914   1470537   1470358   1470305  
  7940.000000   1470295   1470259   1470143   1469926   1469611  
  7930.000000   1469231   1468839   1468500   1468283   1468242  
  7920.000000   1468407   1468770   1469284   1469861   1470392  
  7910.000000   1470762   1470877   1470684   1470182   1469421  
  7900.000000   1468499   1467531   1466637   1465910   1465407  
  7890.000000   1465132   1465051   1465098   1465205   1465316  
  7880.000000   1465406   1465486   1465591   1465770   1466067  
  7870.000000   1466503   1467083   1467783   1468577   1469428  
  7860.000000   1470303   1471161   1471954   1472627   1473117  
  7850.000000   1473384   1473416   1473256   1472992   1472744  
  7840.000000   1472623   1472703   1472984   1473400   1473827  
  7830.000000   1474135   1474215   1474024   1473581   1472959  
  7820.000000   1472251   1471538   1470870   1470266   1469725  
  7810.000000   1469251   1468858   1468584   1468465   1468524  
  7800.000000   1468741   1469065   1469405   1469673   1469801  
  7790.000000   1469772   1469617   1469397   1469180   1469003  
  7780.000000   1468864   1468706   1468451   1468020   1467368  
  7770.000000   1466505   1465492   1464437   1463452   1462649  
  7760.000000   1462092   1461818   1461812   1462036   1462422  
  7750.000000   1462880   1463303   1463564   1463540   1463117  
  7740.000000   1462242   1460922   1459265   1457447   1455700  
  7730.000000   1454250   1453268   1452843   1452953   1453502  
  7720.000000   1454338   1455314   1456300   1457215   1458007  
  7710.000000   1458638   1459071   1459254   1459150   1458730  
  7700.000000   1458018   1457075   1456010   1454943   1453984  
  7690.000000   1453212   1452657   1452315   1452147   1452107  
  7680.000000   1452141   1452203   1452244   1452219   1452093  
  7670.000000   1451848   1451496   1451077   1450663   1450322  
  7660.000000   1450119   1450074   1450181   1450392   1450651  
  7650.000000   1450904   1451120   1451286   1451407   1451498  
  7640.000000   1451571   1451646   1451740   1451884   1452113  
  7630.000000   1452454   1452909   1453444   1453987   1454438  
  7620.000000   1454705   1454723   1454480   1454018   1453415  
  7610.000000   1452766   1452152   1451629   1451233   1450984  
  7600.000000   1450907   1451028   1451370   1451932   1452673  
  7590.000000   1453509   1454324   1454999   1455455   1455672  
  7580.000000   1455704   1455651   1455638   1455761   1456075  
  7570.000000   1456571   1457197   1457869   1458512   1459065  
  7560.000000   1459504   1459830   1460068   1460256   1460441  
  7550.000000   1460672   1460998   1461455   1462066   1462826  
  7540.000000   1463710   1464674   1465671   1466655   1467593  
  7530.000000   1468470   1469285   1470043   1470765   1471464  
  7520.000000   1472165   1472888   1473657   1474481   1475363  
  7510.000000   1476287   1477235   1478187   1479138   1480095  
  7500.000000   1481082   1482118   1483213   1484346   1485488  
  7490.000000   1486596   1487649   1488650   1489639   1490672  
  7480.000000   1491809   1493082   1494492   1496006   1497580  
  7470.000000   1499172   1500764   1502346   1503925   1505487  
  7460.000000   1507009   1508442   1509755   1510938   1512038  
  7450.000000   1513139   1514355   1515779   1517466   1519403  
  7440.000000   1521521   1523720   1525912   1528042   1530101  
  7430.000000   1532114   1534120   1536148   1538202   1540266  
  7420.000000   1542319   1544341   1546336   1548314   1550287  
  7410.000000   1552256   1554201   1556088   1557885   1559573  
  7400.000000   1561165   1562698   1564227   1565809   1567487  
  7390.000000   1569285   1571204   1573228   1575330   1577482  
  7380.000000   1579647   1581794   1583894   1585932   1587909  
  7370.000000   1589840   1591748   1593654   1595557   1597434  
  7360.000000   1599240   1600924   1602447   1603806   1605035  
  7350.000000   1606207   1607405   1608705   1610140   1611706  
  7340.000000   1613352   1615019   1616647   1618209   1619709  
  7330.000000   1621180   1622665   1624201   1625803   1627461  
  7320.000000   1629145   1630813   1632426   1633958   1635402  
  7310.000000   1636764   1638062   1639311   1640527   1641713  
  7300.000000   1642870   1644000   1645120   1646259   1647459  
  7290.000000   1648770   1650233   1651874   1653689   1655652  
  7280.000000   1657714   1659812   1661875   1663833   1665626  
  7270.000000   1667204   1668544   1669646   1670554   1671339  
  7260.000000   1672099   1672934   1673931   1675140   1676570  
  7250.000000   1678181   1679912   1681685   1683435   1685111  
  7240.000000   1686689   1688161   1689552   1690896   1692270  
  7230.000000   1693750   1695439   1697402   1699686   1702258  
  7220.000000   1705042   1707909   1710748   1713476   1716093  
  7210.000000   1718656   1721280   1724068   1727095   1730353  
  7200.000000   1733785   1737292   1740800   1744268   1747718  
  7190.000000   1751194   1754747   1758383   1762068   1765724  
  7180.000000   1769279   1772683   1775958   1779161   1782389  
  7170.000000   1785710   1789161   1792709   1796293   1799836  
  7160.000000   1803300   1806688   1810064   1813513   1817135  
  7150.000000   1820996   1825141   1829552   1834195   1838986  
  7140.000000   1843855   1848714   1853519   1858239   1862901  
  7130.000000   1867548   1872267   1877126   1882200   1887509  
  7120.000000   1893053   1898779   1904639   1910567   1916530  
  7110.000000   1922489   1928432   1934325   1940143   1945849  
  7100.000000   1951440   1956937   1962414   1967965   1973695  
  7090.000000   1979672   1985910   1992361   1998932   2005516  
  7080.000000   2012021   2018393   2024622   2030729   2036752  
  7070.000000   2042719   2048650   2054547   2060408   2066228  
  7060.000000   2072007   2077746   2083447   2089111   2094739  
  7050.000000   2100343   2105936   2111549   2117205   2122927  
  7040.000000   2128713   2134553   2140417   2146278   2152103  
  7030.000000   2157869   2163553   2169135   2174589   2179898  
  7020.000000   2185050   2190060   2194950   2199762   2204527  
  7010.000000   2209271   2213991   2218682   2223325   2227918  
  7000.000000   2232459   2236965   2241427   2245839   2250158  
  6990.000000   2254350   2258381   2262261   2266023   2269736  
  6980.000000   2273454   2277216   2281005   2284778   2288461  
  6970.000000   2292009   2295394   2298645   2301797   2304903  
  6960.000000   2307976   2311011   2313966   2316808   2319503  
  6950.000000   2322057   2324482   2326811   2329055   2331227  
  6940.000000   2333319   2335341   2337300   2339232   2341157  
  6930.000000   2343099   2345041   2346959   2348804   2350551  
  6920.000000   2352187   2353734   2355219   2356677   2358118  
  6910.000000   2359539   2360920   2362258   2363557   2364844  
  6900.000000   2366141   2367458   2368770   2370031   2371185  
  6890.000000   2372200   2373078   2373865   2374626   2375426  
  6880.000000   2376292   2377221   2378178   2379128   2380056  
  6870.000000   2380977   2381921   2382919   2383971   2385044  
  6860.000000   2386083   2387035   2387878   2388635   2389362  
  6850.000000   2390128   2390975   2391905   2392872   2393809  
  6840.000000   2394651   2395371   2395978   2396520   2397049  
  6830.000000   2397609   2398207   2398823   2399414   2399934  
  6820.000000   2400344   2400620   2400754   2400760   2400664  
  6810.000000   2400514   2400365   2400284   2400319   2400498  
  6800.000000   2400806   2401197   2401602   2401955   2402209  
  6790.000000   2402353   2402400   2402381   2402327   2402257  
  6780.000000   2402177   2402090   2402001   2401922   2401864  
  6770.000000   2401831   2401811   2401778   2401704   2401572  
  6760.000000   2401390   2401191   2401019   2400911   2400878  
  6750.000000   2400903   2400954   2400996   2401015   2401019  
  6740.000000   2401035   2401088   2401187   2401316   2401445  
  6730.000000   2401548   2401624   2401702   2401830   2402053  
  6720.000000   2402380   2402780   2403179   2403492   2403653  
  6710.000000   2403643   2403491   2403268   2403048   2402890  
  6700.000000   2402815   2402811   2402840   2402861   2402834  
  6690.000000   2402734   2402539   2402237   2401817   2401287  
  6680.000000   2400668   2400009   2399365   2398792   2398318  
  6670.000000   2397939   2397606   2397257   2396820   2396253  
  6660.000000   2395541   2394706   2393784   2392817   2391837  
  6650.000000   2390864   2389906   2388967   2388047   2387147  
  6640.000000   2386256   2385361   2384436   2383464   2382427  
  6630.000000   2381336   2380206   2379073   2377965   2376908  
  6620.000000   2375907   2374952   2374020   2373079   2372091  
  6610.000000   2371017   2369817   2368463   2366938   2365254  
  6600.000000   2363451   2361600   2359783   2358083   2356559  
  6590.000000   2355241   2354114   2353140   2352251   2351377  
  6580.000000   2350443   2349385   2348154   2346721   2345089  
  6570.000000   2343291   2341390   2339470   2337615   2335893  
  6560.000000   2334335   2332938   2331662   2330457   2329269  
  6550.000000   2328068   2326838   2325587   2324329   2323079  
  6540.000000   2321850   2320644   2319465   2318310   2317175  
  6530.000000   2316050   2314920   2313770   2312583   2311356  
  6520.000000   2310094   2308817   2307544   2306295   2305074  
  6510.000000   2303873   2302672   2301449   2300187   2298877  
  6500.000000   2297520   2296128   2294711   2293289   2291880  
  6490.000000   2290511   2289203   2287976   2286832   2285753  
  6480.000000   2284701   2283625   2282475   2281217   2279841  
  6470.000000   2278356   2276792   2275180   2273553   2271939  
  6460.000000   2270366   2268864   2267467   2266203   2265084  
  6450.000000   2264097   2263204   2262348   2261477   2260551  
  6440.000000   2259564   2258532   2257493   2256474   2255495  
  6430.000000   2254549   2253624   2252704   2251790   2250897  
  6420.000000   2250056   2249291   2248616   2248026   2247501  
  6410.000000   2247015   2246552   2246099   2245662   2245241  
  6400.000000   2244843   2244469   2244123   2243812   2243551  
  6390.000000   2243353   2243225   2243150   2243096   2243017  
  6380.000000   2242872   2242640   2242335   2242001   2241699  
  6370.000000   2241483   2241379   2241378   2241437   2241499  
  6360.000000   2241503   2241406   2241184   2240830   2240350  
  6350.000000   2239762   2239088   2238368   2237644   2236967  
  6340.000000   2236372   2235873   2235448   2235056   2234635  
  6330.000000   2234141   2233547   2232860   2232102   2231307  
  6320.000000   2230493   2229662   2228799   2227887   2226914  
  6310.000000   2225887   2224819   2223733   2222635   2221529  
  6300.000000   2220400   2219242   2218053   2216851   2215654  
  6290.000000   2214482   2213332   2212190   2211020   2209793  
  6280.000000   2208492   2207126   2205721   2204319   2202949  
  6270.000000   2201627   2200348   2199093   2197838   2196565  
  6260.000000   2195265   2193941   2192597   2191242   2189877  
  6250.000000   2188512   2187152   2185806   2184477   2183162  
  6240.000000   2181843   2180497   2179101   2177643   2176131  
  6230.000000   2174590   2173052   2171545   2170078   2168640  
  6220.000000   2167205   2165744   2164240   2162695   2161129  
  6210.000000   2159573   2158059   2156608   2155234   2153939  
  6200.000000   2152723   2151581   2150506   2149479   2148473  
  6190.000000   2147450   2146377   2145233   2144022   2142772  
  6180.000000   2141529   2140340   2139242   2138242   2137328  
  6170.000000   2136468   2135624   2134767   2133873   2132932  
  6160.000000   2131937   2130886   2129780   2128622   2127429  
  6150.000000   2126221   2125027   2123873   2122772   2121725  
  6140.000000   2120718   2119732   2118747   2117754   2116754  
  6130.000000   2115756   2114775   2113820   2112899   2112008  
  6120.000000   2111139   2110275   2109402   2108500   2107562  
  6110.000000   2106587   2105593   2104608   2103673   2102822  
  6100.000000   2102084   2101461   2100942   2100499   2100109  
  6090.000000   2099755   2099438   2099166   2098950   2098784  
  6080.000000   2098650   2098511   2098342   2098120   2097861  
  6070.000000   2097594   2097373   2097235   2097213   2097296  
  6060.000000   2097468   2097688   2097934   2098186   2098457  
  6050.000000   2098759   2099129   2099586   2100164   2100873  
  6040.000000   2101740   2102770   2103976   2105346   2106873  
  6030.000000   2108521   2110271   2112090   2113973   2115909  
  6020.000000   2117910   2119967   2122083   2124229   2126396  
  6010.000000   2128554   2130707   2132849   2135007   2137185  
  6000.000000   2139404   2141660   2143963   2146312   2148733  
  5990.000000   2151247   2153898   2156709   2159707   2162883  
  5980.000000   2166234   2169729   2173359   2177103   2180962  
  5970.000000   2184919   2188970   2193082   2197241   2201418  
  5960.000000   2205619   2209844   2214126   2218476   2222914  
  5950.000000   2227426   2231999   2236604   2241233   2245885  
  5940.000000   2250581   2255348   2260207   2265166   2270209  
  5930.000000   2275307   2280418   2285509   2290545   2295505  
  5920.000000   2300359   2305081   2309636   2313999   2318145  
  5910.000000   2322075   2325798   2329340   2332721   2335967  
  5900.000000   2339088   2342107   2345038   2347929   2350815  
  5890.000000   2353755   2356771   2359881   2363050   2366236  
  5880.000000   2369366   2372378   2375216   2377851   2380275  
  5870.000000   2382498   2384543   2386444   2388234   2389955  
  5860.000000   2391642   2393333   2395058   2396844   2398710  
  5850.000000   2400677   2402759   2404968   2407299   2409735  
  5840.000000   2412244   2414779   2417296   2419759   2422158  
  5830.000000   2424500   2426816   2429135   2431486   2433877  
  5820.000000   2436311   2438775   2441260   2443760   2446267  
  5810.000000   2448777   2451270   2453732   2456132   2458474  
  5800.000000   2460754   2463018   2465293   2467631   2470025  
  5790.000000   2472462   2474856   2477123   2479126   2480762  
  5780.000000   2481909   2482493   2482443   2481749   2480424  
  5770.000000   2478556   2476261   2473714   2471077   2468514  
  5760.000000   2466111   2463921   2461910   2460043   2458253  
  5750.000000   2456522   2454840   2453236   2451733   2450346  
  5740.000000   2449063   2447848   2446664   2445469   2444249  
  5730.000000   2443000   2441744   2440497   2439279   2438095  
  5720.000000   2436948   2435831   2434737   2433654   2432576  
  5710.000000   2431490   2430394   2429293   2428199   2427136  
  5700.000000   2426124   2425181   2424305   2423485   2422694  
  5690.000000   2421915   2421132   2420353   2419584   2418839  
  5680.000000   2418107   2417367   2416566   2415652   2414564  
  5670.000000   2413259   2411703   2409888   2407811   2405490  
  5660.000000   2402952   2400249   2397444   2394614   2391825  
  5650.000000   2389132   2386551   2384075   2381672   2379310  
  5640.000000   2376971   2374661   2372406   2370236   2368176  
  5630.000000   2366230   2364390   2362629   2360936   2359301  
  5620.000000   2357737   2356252   2354862   2353558   2352332  
  5610.000000   2351158   2350025   2348920   2347852   2346827  
  5600.000000   2345855   2344932   2344048   2343186   2342332  
  5590.000000   2341481   2340637   2339805   2338993   2338197  
  5580.000000   2337413   2336629   2335841   2335046   2334245  
  5570.000000   2333435   2332603   2331731   2330793   2329776  
  5560.000000   2328680   2327528   2326358   2325211   2324117  
  5550.000000   2323091   2322123   2321193   2320275   2319352  
  5540.000000   2318411   2317451   2316469   2315464   2314432  
  5530.000000   2313374   2312299   2311221   2310156   2309118  
  5520.000000   2308104   2307101   2306086   2305040   2303950  
  5510.000000   2302820   2301661   2300488   2299302   2298100  
  5500.000000   2296868   2295599   2294294   2292972   2291655  
  5490.000000   2290367   2289105   2287850   2286564   2285211  
  5480.000000   2283763   2282225   2280619   2278986   2277360  
  5470.000000   2275762   2274188   2272624   2271043   2269428  
  5460.000000   2267768   2266063   2264314   2262524   2260695  
  5450.000000   2258832   2256944   2255047   2253158   2251286  
  5440.000000   2249438   2247606   2245790   2243996   2242246  
  5430.000000   2240570   2239001   2237545   2236198   2234919  
  5420.000000   2233678   2232445   2231230   2230058   2228988  
  5410.000000   2228054   2227282   2226646   2226122   2225658  
  5400.000000   2225247   2224887   2224623   2224484   2224508  
  5390.000000   2224687   2225015   2225451   2225992   2226627  
  5380.000000   2227395   2228309   2229404   2230657   2232061  
  5370.000000   2233563   2235162   2236837   2238639   2240591  
  5360.000000   2242769   2245187   2247904   2250901   2254223  
  5350.000000   2257846   2261820   2266117   2270784   2275772  
  5340.000000   2281117   2286771   2292798   2299179   2306010  
  5330.000000   2313277   2321063   2329321   2338101   2347341  
  5320.000000   2357106   2367363   2378220   2389659   2401793  
  5310.000000   2414577   2428089   2442254   2457137   2472674  
  5300.000000   2488958   2505956   2523781   2542409   2561937  
  5290.000000   2582307   2603550   2625538   2648224   2671441  
  5280.000000   2695139   2719221   2743743   2768730   2794317  
  5270.000000   2820549   2847463   2874950   2902849   2930927  
  5260.000000   2958986   2986896   3014619   3042204   3069696  
  5250.000000   3097136   3124443   3151518   3178151   3204225  
  5240.000000   3229594   3254292   3278312   3301793   3324745  
  5230.000000   3347260   3369244   3390681   3411402   3431381  
  5220.000000   3450501   3468839   3486386   3503312   3519648  
  5210.000000   3535541   3550940   3565879   3580194   3593855  
  5200.000000   3606707   3618801   3630091   3640724   3650702  
  5190.000000   3660148   3668997   3677282   3684879   3691810  
  5180.000000   3697991   3703511   3708351   3712628   3716321  
  5170.000000   3719513   3722151   3724302   3725922   3727093  
  5160.000000   3727792   3728092   3727949   3727401   3726384  
  5150.000000   3724936   3723021   3720706   3717990   3714945  
  5140.000000   3711565   3707902   3703940   3699731   3695274  
  5130.000000   3690636   3685823   3680883   3675801   3670592  
  5120.000000   3665229   3659730   3654092   3648357   3642544  
  5110.000000   3636692   3630806   3624903   3618976   3613044  
  5100.000000   3607119   3601235   3595414   3589677   3584017  
  5090.000000   3578420   3572854   3567297   3561733   3556164  
  5080.000000   3550595   3545036   3539481   3533922   3528335  
  5070.000000   3522709   3517032   3511310   3505549   3499764  
  5060.000000   3493950   3488102   3482194   3476212   3470130  
  5050.000000   3463950   3457668   3451303   3444864   3438370  
  5040.000000   3431824   3425238   3418614   3411964   3405293  
  5030.000000   3398615   3391937   3385268   3378615   3371982  
  5020.000000   3365379   3358809   3352288   3345823   3339431  
  5010.000000   3333121   3326915   3320821   3314863   3309044  
  5000.000000   3303384   3297872   3292517   3287297   3282222  
  4990.000000   3277271   3272465   3267795   3263296   3258962  
  4980.000000   3254833   3250901   3247204   3243735   3240538  
  4970.000000   3237605   3234981   3232648   3230640   3228921  
  4960.000000   3227514   3226377   3225538   3224966   3224706  
  4950.000000   3224739   3225119   3225828   3226919   3228367  
  4940.000000   3230225   3232464   3235134   3238202   3241704  
  4930.000000   3245591   3249886   3254527   3259535   3264858  
  4920.000000   3270529   3276514   3282857   3289534   3296585  
  4910.000000   3303988   3311767   3319893   3328371   3337155  
  4900.000000   3346223   3355518   3364995   3374600   3384284  
  4890.000000   3394005   3403712   3413363   3422886   3432229  
  4880.000000   3441296   3450039   3458362   3466241   3473599  
  4870.000000   3480433   3486670   3492317   3497301   3501639  
  4860.000000   3505278   3508262   3510570   3512275   3513374  
  4850.000000   3513953   3514019   3513662   3512904   3511841  
  4840.000000   3510510   3509007   3507368   3505670   3503934  
  4830.000000   3502212   3500514   3498873   3497301   3495822  
  4820.000000   3494449   3493197   3492079   3491101   3490272  
  4810.000000   3489586   3489047   3488640   3488362   3488189  
  4800.000000   3488120   3488137   3488250   3488454   3488766  
  4790.000000   3489182   3489712   3490338   3491050   3491823  
  4780.000000   3492645   3493498   3494384   3495301   3496258  
  4770.000000   3497253   3498283   3499336   3500397   3501445  
  4760.000000   3502469   3503456   3504407   3505325   3506219  
  4750.000000   3507099   3507972   3508838   3509689   3510510  
  4740.000000   3511282   3511985   3512611   3513163   3513659  
  4730.000000   3514129   3514608   3515124   3515699   3516328  
  4720.000000   3517003   3517697   3518400   3519095   3519799  
  4710.000000   3520525   3521318   3522202   3523225   3524401  
  4700.000000   3525767   3527331   3529125   3531161   3533472  
  4690.000000   3536062   3538949   3542114   3545543   3549187  
  4680.000000   3553005   3556925   3560902   3564869   3568796  
  4670.000000   3572641   3576407   3580083   3583706   3587293  
  4660.000000   3590894   3594539   3598278   3602139   3606161  
  4650.000000   3610361   3614758   3619357   3624151   3629125  
  4640.000000   3634253   3639508   3644856   3650267   3655706  
  4630.000000   3661142   3666529   3671832   3676990   3681962  
  4620.000000   3686688   3691133   3695248   3699023   3702427  
  4610.000000   3705475   3708155   3710506   3712529   3714280  
  4600.000000   3715765   3717043   3718112   3719019   3719745  
  4590.000000   3720313   3720684   3720855   3720773   3720425  
  4580.000000   3719766   3718801   3717522   3715977   3714200  
  4570.000000   3712270   3710239   3708177   3706110   3704068  
  4560.000000   3702038   3700017   3697976   3695913   3693814  
  4550.000000   3691695   3689566   3687450   3685362   3683313  
  4540.000000   3681304   3679325   3677365   3675406   3673441  
  4530.000000   3671457   3669465   3667466   3665488   3663539  
  4520.000000   3661652   3659827   3658095   3656445   3654911  
  4510.000000   3653482   3652214   3651110   3650249   3649646  
  4500.000000   3649396   3649508   3650077   3651104   3652682  
  4490.000000   3654807   3657577   3660984   3665121   3669963  
  4480.000000   3675578   3681914   3689014   3696805   3705314  
  4470.000000   3714455   3724242   3734578   3745463   3756794  
  4460.000000   3768567   3780692   3793175   3805948   3819023  
  4450.000000   3832344   3845907   3859659   3873582   3887631  
  4440.000000   3901789   3916031   3930338   3944693   3959053  
  4430.000000   3973390   3987629   4001728   4015597   4029200  
  4420.000000   4042450   4055330   4067762   4079742   4091193  
  4410.000000   4102107   4112407   4122083   4131071   4139392  
  4400.000000   4147027   4154055   4160522   4166558   4172247  
  4390.000000   4177734   4183092   4188438   4193805   4199262  
  4380.000000   4204802   4210449   4216171   4221972   4227816  
  4370.000000   4233703   4239605   4245521   4251420   4257294  
  4360.000000   4263101   4268830   4274431   4279908   4285203  
  4350.000000   4290337   4295237   4299937   4304366   4308585  
  4340.000000   4312548   4316321   4319823   4322997   4325575  
  4330.000000   4327254   4327564   4326089   4322462   4316566  
  4320.000000   4308534   4298821   4288069   4277051   4266462  
  4310.000000   4256863   4248560   4241655   4236055   4231585  
  4300.000000   4228048   4225278   4223176   4221661   4220716  
  4290.000000   4220278   4220340   4220834   4221759   4223064  
  4280.000000   4224760   4226806   4229177   4231817   4234653  
  4270.000000   4237612   4240595   4243505   4246186   4248452  
  4260.000000   4250042   4250686   4250105   4248117   4244654  
  4250.000000   4239835   4233913   4227291   4220382   4213610  
  4240.000000   4207265   4201553   4196505   4192083   4188145  
  4230.000000   4184556   4181162   4177852   4174548   4171204  
  4220.000000   4167824   4164421   4161070   4157822   4154789  
  4210.000000   4152029   4149633   4147616   4146003   4144748  
  4200.000000   4143817   4143132   4142651   4142305   4142079  
  4190.000000   4141932   4141879   4141892   4141999   4142171  
  4180.000000   4142439   4142781   4143243   4143828   4144612  
  4170.000000   4145627   4146972   4148682   4150839   4153440  
  4160.000000   4156520   4160028   4163967   4168269   4172947  
  4150.000000   4177960   4183350   4189095   4195249   4201780  
  4140.000000   4208729   4216043   4223753   4231801   4240223  
  4130.000000   4248972   4258091   4267543   4277372   4287548  
  4120.000000   4298121   4309073   4320464   4332297   4344637  
  4110.000000   4357484   4370876   4384773   4399152   4413917  
  4100.000000   4428992   4444258   4459643   4475073   4490529  
  4090.000000   4506003   4521513   4537076   4552690   4568357  
  4080.000000   4584034   4599705   4615307   4630819   4646162  
  4070.000000   4661307   4676145   4690637   4704668   4718227  
  4060.000000   4731229   4743702   4755586   4766923   4777648  
  4050.000000   4787805   4797338   4806320   4814714   4822610  
  4040.000000   4829953   4836800   4843055   4848749   4853797  
  4030.000000   4858263   4862111   4865435   4868214   4870510  
  4020.000000   4872253   4873486   4874188   4874425   4874169  
  4010.000000   4873535   4872581   4871306   4869513   4867218  
  4000.000000   4864663  
##END= 
