##TITLE= Sample 017 By ssteindl date Dienstag, November 20 2018
##JCAMP-DX= 4.24
##DATA TYPE= INFRARED SPECTRUM
##ORIGIN= Exported PE Spectrum Data File
##OWNER= Sandra Steindl
##DATE= 18/11/20
##TIME= 10:13:16.00
##SPECTROMETER/DATA SYSTEM= PERKIN-ELMER Frontier FT-IR/NIR IR
##INSTRUMENT PARAMETERS=
  APODIZATION=stark
  DETECTOR=INGAAS
##RESOLUTION= 16.000000
##DELTAX= -2.000000
##XUNITS= 1/CM
##YUNITS= A
##XFACTOR= 1.00
##YFACTOR= 0.00000011920928955078
##FIRSTX= 10000.00
##LASTX= 4000.00
##NPOINTS= 3001
##FIRSTY= 0.195505
##MAXY= 0.656751
##MINY= 0.165540
##XYDATA= (X++(Y..Y))
 10000.000000   1640010   1642708   1644340   1643562   1640280  
  9990.000000   1635413   1629849   1624444   1620345   1618824  
  9980.000000   1620463   1624948   1631091   1637216   1641528  
  9970.000000   1642781   1640700   1635993   1630016   1624171  
  9960.000000   1619453   1616114   1613820   1611915   1609814  
  9950.000000   1607284   1604399   1601529   1599024   1597233  
  9940.000000   1596374   1596665   1598256   1601150   1605010  
  9930.000000   1609001   1611895   1612304   1609282   1602675  
  9920.000000   1593491   1583554   1575047   1569632   1567880  
  9910.000000   1569080   1571540   1573410   1573388   1571353  
  9900.000000   1568305   1565969   1566000   1569309   1575670  
  9890.000000   1583752   1591619   1597294   1599452   1597690  
  9880.000000   1592621   1585573   1578165   1571906   1567847  
  9870.000000   1566435   1567512   1570357   1573924   1577019  
  9860.000000   1578565   1577864   1574679   1569405   1562913  
  9850.000000   1556475   1551473   1549092   1550080   1554466  
  9840.000000   1561524   1569845   1577598   1582994   1584723  
  9830.000000   1582381   1576638   1569073   1561757   1556552  
  9820.000000   1554582   1555812   1559191   1563000   1565531  
  9810.000000   1565651   1563137   1558707   1553634   1549340  
  9800.000000   1546861   1546659   1548582   1552055   1556364  
  9790.000000   1560808   1564856   1568103   1570290   1571271  
  9780.000000   1571042   1569760   1567755   1565426   1563207  
  9770.000000   1561379   1560098   1559346   1559041   1559128  
  9760.000000   1559559   1560352   1561435   1562705   1563993  
  9750.000000   1565197   1566337   1567592   1569183   1571238  
  9740.000000   1573596   1575812   1577227   1577273   1575706  
  9730.000000   1572822   1569358   1566246   1564172   1563267  
  9720.000000   1562993   1562350   1560307   1556238   1550214  
  9710.000000   1542974   1535633   1529266   1524539   1521581  
  9700.000000   1520096   1519630   1519851   1520649   1522078  
  9690.000000   1524157   1526686   1529222   1531228   1532301  
  9680.000000   1532430   1531964   1531548   1531701   1532646  
  9670.000000   1534078   1535349   1535710   1534673   1532238  
  9660.000000   1528903   1525501   1522847   1521526   1521647  
  9650.000000   1522978   1525006   1527232   1529291   1530991  
  9640.000000   1532320   1533227   1533672   1533436   1532324  
  9630.000000   1530106   1526715   1522248   1517011   1511592  
  9620.000000   1506736   1503438   1502623   1505127   1511269  
  9610.000000   1520779   1532595   1545008   1555947   1563374  
  9600.000000   1565829   1562695   1554479   1542561   1528970  
  9590.000000   1515804   1504841   1497194   1493171   1492427  
  9580.000000   1494073   1497105   1500498   1503570   1505875  
  9570.000000   1507331   1508023   1508128   1507851   1507269  
  9560.000000   1506477   1505421   1504133   1502572   1500771  
  9550.000000   1498728   1496471   1494079   1491698   1489604  
  9540.000000   1488112   1487549   1488082   1489687   1492060  
  9530.000000   1494715   1497097   1498766   1499553   1499583  
  9520.000000   1499208   1498792   1498539   1498371   1497982  
  9510.000000   1496990   1495166   1492567   1489577   1486773  
  9500.000000   1484700   1483661   1483568   1483988   1484292  
  9490.000000   1483928   1482636   1480544   1478125   1475993  
  9480.000000   1474692   1474517   1475439   1477155   1479180  
  9470.000000   1481011   1482269   1482784   1482641   1482097  
  9460.000000   1481497   1481111   1481059   1481230   1481348  
  9450.000000   1481037   1479985   1478067   1475441   1472545  
  9440.000000   1469968   1468292   1467857   1468685   1470438  
  9430.000000   1472591   1474577   1475996   1476662   1476634  
  9420.000000   1476094   1475267   1474314   1473313   1472299  
  9410.000000   1471268   1470252   1469236   1468180   1466935  
  9400.000000   1465308   1463093   1460195   1456717   1452993  
  9390.000000   1449555   1446972   1445716   1445982   1447683  
  9380.000000   1450465   1453852   1457366   1460617   1463359  
  9370.000000   1465430   1466752   1467240   1466876   1465664  
  9360.000000   1463759   1461404   1458970   1456832   1455289  
  9350.000000   1454504   1454430   1454937   1455786   1456835  
  9340.000000   1457986   1459288   1460829   1462692   1464835  
  9330.000000   1467010   1468806   1469705   1469295   1467350  
  9320.000000   1463953   1459461   1454463   1449654   1445685  
  9310.000000   1443036   1441917   1442278   1443814   1446075  
  9300.000000   1448472   1450441   1451497   1451414   1450267  
  9290.000000   1448435   1446528   1445179   1444874   1445700  
  9280.000000   1447283   1448817   1449366   1448209   1445166  
  9270.000000   1440685   1435701   1431340   1428521   1427635  
  9260.000000   1428406   1430049   1431647   1432501   1432387  
  9250.000000   1431555   1430534   1429863   1429801   1430280  
  9240.000000   1430973   1431531   1431817   1431978   1432406  
  9230.000000   1433420   1435078   1436997   1438504   1438838  
  9220.000000   1437492   1434403   1430036   1425260   1421056  
  9210.000000   1418259   1417283   1418184   1420684   1424389  
  9200.000000   1428821   1433498   1437927   1441578   1443940  
  9190.000000   1444551   1443181   1439900   1435181   1429745  
  9180.000000   1424423   1419931   1416751   1415096   1414882  
  9170.000000   1415872   1417689   1419980   1422372   1424535  
  9160.000000   1426152   1426974   1426909   1426002   1424486  
  9150.000000   1422627   1420731   1418992   1417523   1416346  
  9140.000000   1415442   1414846   1414619   1414901   1415781  
  9130.000000   1417284   1419283   1421539   1423725   1425488  
  9120.000000   1426510   1426546   1425488   1423353   1420340  
  9110.000000   1416783   1413159   1409981   1407687   1406522  
  9100.000000   1406436   1407130   1408102   1408877   1409124  
  9090.000000   1408819   1408200   1407686   1407676   1408358  
  9080.000000   1409641   1411144   1412382   1412877   1412369  
  9070.000000   1410840   1408556   1405937   1403438   1401438  
  9060.000000   1400149   1399635   1399800   1400482   1401484  
  9050.000000   1402660   1403913   1405213   1406529   1407820  
  9040.000000   1408974   1409799   1410061   1409530   1408124  
  9030.000000   1405905   1403153   1400235   1397556   1395382  
  9020.000000   1393795   1392670   1391776   1390909   1389996  
  9010.000000   1389159   1388653   1388787   1389770   1391641  
  9000.000000   1394240   1397276   1400428   1403413   1406027  
  8990.000000   1408127   1409624   1410451   1410602   1410142  
  8980.000000   1409254   1408190   1407205   1406454   1405905  
  8970.000000   1405369   1404558   1403268   1401479   1399464  
  8960.000000   1397678   1396618   1396575   1397525   1399114  
  8950.000000   1400777   1401962   1402319   1401858   1400875  
  8940.000000   1399828   1399115   1398958   1399338   1400066  
  8930.000000   1400901   1401662   1402311   1402918   1403617  
  8920.000000   1404503   1405606   1406869   1408188   1409441  
  8910.000000   1410487   1411194   1411404   1411000   1409912  
  8900.000000   1408204   1406078   1403864   1401943   1400636  
  8890.000000   1400116   1400362   1401211   1402445   1403890  
  8880.000000   1405466   1407175   1409047   1411041   1413017  
  8870.000000   1414742   1416013   1416732   1417007   1417102  
  8860.000000   1417370   1418097   1419395   1421165   1423127  
  8850.000000   1424970   1426448   1427494   1428193   1428726  
  8840.000000   1429266   1429890   1430556   1431117   1431414  
  8830.000000   1431318   1430820   1430003   1429048   1428169  
  8820.000000   1427580   1427458   1427914   1428994   1430653  
  8810.000000   1432778   1435198   1437729   1440230   1442618  
  8800.000000   1444885   1447052   1449141   1451113   1452886  
  8790.000000   1454340   1455410   1456117   1456608   1457106  
  8780.000000   1457825   1458896   1460277   1461803   1463212  
  8770.000000   1464308   1465016   1465452   1465855   1466487  
  8760.000000   1467503   1468861   1470330   1471553   1472192  
  8750.000000   1472030   1471094   1469623   1468037   1466787  
  8740.000000   1466243   1466620   1467927   1470030   1472668  
  8730.000000   1475572   1478514   1481374   1484139   1486859  
  8720.000000   1489609   1492377   1495072   1497439   1499187  
  8710.000000   1500002   1499746   1498478   1496530   1494446  
  8700.000000   1492842   1492301   1493166   1495536   1499209  
  8690.000000   1503818   1508897   1513989   1518710   1522741  
  8680.000000   1525858   1527870   1528700   1528362   1527084  
  8670.000000   1525246   1523391   1522091   1521830   1522917  
  8660.000000   1525365   1528965   1533290   1537887   1542348  
  8650.000000   1546409   1549946   1552926   1555367   1557248  
  8640.000000   1558542   1559192   1559240   1558828   1558269  
  8630.000000   1557965   1558333   1559680   1562086   1565393  
  8620.000000   1569188   1572972   1576280   1578846   1580672  
  8610.000000   1582005   1583239   1584753   1586769   1589273  
  8600.000000   1592033   1594698   1596947   1598618   1599764  
  8590.000000   1600630   1601520   1602692   1604217   1605991  
  8580.000000   1607765   1609266   1610315   1610895   1611163  
  8570.000000   1611364   1611737   1612423   1613425   1614631  
  8560.000000   1615871   1617011   1618005   1618921   1619901  
  8550.000000   1621115   1622693   1624680   1627009   1629521  
  8540.000000   1631999   1634210   1635962   1637140   1637750  
  8530.000000   1637914   1637847   1637804   1638018   1638637  
  8520.000000   1639679   1641039   1642537   1643972   1645196  
  8510.000000   1646153   1646893   1647528   1648183   1648950  
  8500.000000   1649867   1650925   1652086   1653336   1654691  
  8490.000000   1656212   1657957   1659972   1662257   1664750  
  8480.000000   1667329   1669823   1672050   1673814   1674953  
  8470.000000   1675352   1675013   1674067   1672785   1671544  
  8460.000000   1670751   1670751   1671716   1673611   1676177  
  8450.000000   1679043   1681803   1684161   1685988   1687342  
  8440.000000   1688414   1689425   1690549   1691833   1693219  
  8430.000000   1694566   1695733   1696635   1697262   1697705  
  8420.000000   1698085   1698549   1699191   1700073   1701183  
  8410.000000   1702452   1703743   1704869   1705631   1705849  
  8400.000000   1705422   1704362   1702834   1701126   1699588  
  8390.000000   1698552   1698226   1698668   1699754   1701266  
  8380.000000   1702936   1704562   1706026   1707328   1708528  
  8370.000000   1709687   1710815   1711830   1712599   1712948  
  8360.000000   1712767   1712013   1710772   1709223   1707607  
  8350.000000   1706175   1705119   1704575   1704573   1705098  
  8340.000000   1706066   1707386   1708940   1710617   1712294  
  8330.000000   1713829   1715077   1715881   1716134   1715775  
  8320.000000   1714849   1713479   1711874   1710284   1708946  
  8310.000000   1708054   1707700   1707900   1708580   1709632  
  8300.000000   1710907   1712259   1713522   1714538   1715155  
  8290.000000   1715264   1714826   1713896   1712636   1711287  
  8280.000000   1710115   1709333   1709039   1709188   1709608  
  8270.000000   1710062   1710308   1710174   1709579   1708559  
  8260.000000   1707218   1705710   1704185   1702790   1701651  
  8250.000000   1700884   1700559   1700695   1701216   1701963  
  8240.000000   1702706   1703196   1703234   1702716   1701669  
  8230.000000   1700213   1698530   1696788   1695110   1693556  
  8220.000000   1692146   1690902   1689866   1689111   1688701  
  8210.000000   1688658   1688903   1689278   1689557   1689541  
  8200.000000   1689103   1688246   1687089   1685824   1684645  
  8190.000000   1683666   1682890   1682199   1681412   1680342  
  8180.000000   1678858   1676927   1674614   1672072   1669485  
  8170.000000   1667065   1664982   1663374   1662300   1661746  
  8160.000000   1661605   1661709   1661841   1661785   1661371  
  8150.000000   1660502   1659188   1657519   1655650   1653732  
  8140.000000   1651897   1650204   1648659   1647228   1645864  
  8130.000000   1644550   1643293   1642154   1641197   1640491  
  8120.000000   1640055   1639854   1639784   1639688   1639397  
  8110.000000   1638749   1637657   1636098   1634150   1631945  
  8100.000000   1629664   1627483   1625551   1623969   1622782  
  8090.000000   1621996   1621577   1621482   1621634   1621955  
  8080.000000   1622339   1622678   1622869   1622836   1622546  
  8070.000000   1622004   1621260   1620367   1619380   1618317  
  8060.000000   1617171   1615915   1614525   1613007   1611406  
  8050.000000   1609812   1608329   1607060   1606057   1605322  
  8040.000000   1604784   1604341   1603877   1603307   1602603  
  8030.000000   1601786   1600932   1600108   1599364   1598678  
  8020.000000   1597978   1597157   1596126   1594859   1593431  
  8010.000000   1592003   1590789   1589986   1589702   1589917  
  8000.000000   1590479   1591143   1591658   1591819   1591547  
  7990.000000   1590875   1589941   1588916   1587961   1587182  
  7980.000000   1586629   1586304   1586195   1586286   1586567  
  7970.000000   1587010   1587556   1588103   1588514   1588654  
  7960.000000   1588428   1587818   1586904   1585835   1584800  
  7950.000000   1583975   1583471   1583319   1583458   1583779  
  7940.000000   1584140   1584426   1584562   1584530   1584356  
  7930.000000   1584089   1583775   1583430   1583038   1582544  
  7920.000000   1581885   1581013   1579927   1578689   1577415  
  7910.000000   1576258   1575358   1574810   1574627   1574749  
  7900.000000   1575056   1575414   1575712   1575882   1575915  
  7890.000000   1575833   1575676   1575480   1575269   1575060  
  7880.000000   1574878   1574761   1574759   1574915   1575247  
  7870.000000   1575724   1576261   1576741   1577034   1577045  
  7860.000000   1576735   1576145   1575375   1574571   1573873  
  7850.000000   1573387   1573145   1573108   1573165   1573172  
  7840.000000   1572986   1572508   1571714   1570662   1569473  
  7830.000000   1568305   1567300   1566550   1566072   1565820  
  7820.000000   1565702   1565631   1565548   1565443   1565346  
  7810.000000   1565299   1565319   1565378   1565401   1565285  
  7800.000000   1564943   1564331   1563480   1562486   1561487  
  7790.000000   1560616   1559960   1559535   1559284   1559109  
  7780.000000   1558903   1558599   1558180   1557691   1557197  
  7770.000000   1556767   1556422   1556135   1555832   1555422  
  7760.000000   1554838   1554059   1553132   1552141   1551184  
  7750.000000   1550329   1549581   1548889   1548163   1547323  
  7740.000000   1546341   1545265   1544207   1543315   1542704  
  7730.000000   1542426   1542436   1542612   1542802   1542856  
  7720.000000   1542693   1542286   1541677   1540920   1540073  
  7710.000000   1539174   1538254   1537354   1536550   1535947  
  7700.000000   1535661   1535775   1536301   1537156   1538167  
  7690.000000   1539116   1539795   1540067   1539910   1539399  
  7680.000000   1538695   1537965   1537349   1536912   1536654  
  7670.000000   1536523   1536455   1536408   1536370   1536360  
  7660.000000   1536402   1536512   1536671   1536837   1536954  
  7650.000000   1536981   1536916   1536793   1536685   1536663  
  7640.000000   1536778   1537022   1537337   1537616   1537746  
  7630.000000   1537640   1537282   1536730   1536114   1535600  
  7620.000000   1535345   1535466   1536007   1536943   1538183  
  7610.000000   1539598   1541048   1542397   1543544   1544418  
  7600.000000   1544998   1545294   1545355   1545243   1545035  
  7590.000000   1544790   1544566   1544398   1544322   1544376  
  7580.000000   1544604   1545056   1545762   1546716   1547861  
  7570.000000   1549085   1550252   1551232   1551954   1552419  
  7560.000000   1552713   1552962   1553304   1553827   1554567  
  7550.000000   1555492   1556543   1557650   1558782   1559930  
  7540.000000   1561115   1562343   1563606   1564862   1566070  
  7530.000000   1567197   1568263   1569328   1570490   1571838  
  7520.000000   1573435   1575285   1577346   1579529   1581751  
  7510.000000   1583930   1586022   1587991   1589824   1591505  
  7500.000000   1593043   1594465   1595850   1597300   1598939  
  7490.000000   1600865   1603128   1605697   1608468   1611294  
  7480.000000   1614033   1616589   1618942   1621137   1623267  
  7470.000000   1625423   1627674   1630034   1632491   1635000  
  7460.000000   1637532   1640062   1642593   1645128   1647671  
  7450.000000   1650215   1652752   1655286   1657843   1660472  
  7440.000000   1663240   1666195   1669352   1672664   1676038  
  7430.000000   1679342   1682453   1685283   1687820   1690119  
  7420.000000   1692287   1694450   1696713   1699138   1701727  
  7410.000000   1704444   1707228   1710032   1712828   1715615  
  7400.000000   1718409   1721223   1724055   1726876   1729639  
  7390.000000   1732293   1734807   1737178   1739438   1741650  
  7380.000000   1743894   1746248   1748770   1751487   1754386  
  7370.000000   1757414   1760492   1763515   1766388   1769030  
  7360.000000   1771411   1773549   1775528   1777469   1779505  
  7350.000000   1781754   1784288   1787123   1790209   1793465  
  7340.000000   1796790   1800102   1803327   1806418   1809328  
  7330.000000   1812024   1814472   1816668   1818638   1820456  
  7320.000000   1822218   1824037   1825988   1828107   1830347  
  7310.000000   1832621   1834796   1836764   1838447   1839839  
  7300.000000   1840983   1841970   1842896   1843845   1844864  
  7290.000000   1845969   1847141   1848351   1849563   1850761  
  7280.000000   1851945   1853136   1854361   1855646   1856998  
  7270.000000   1858398   1859809   1861169   1862438   1863582  
  7260.000000   1864623   1865602   1866598   1867681   1868911  
  7250.000000   1870307   1871874   1873585   1875432   1877404  
  7240.000000   1879516   1881770   1884165   1886654   1889184  
  7230.000000   1891672   1894077   1896371   1898601   1900824  
  7220.000000   1903141   1905618   1908318   1911247   1914409  
  7210.000000   1917770   1921314   1924997   1928796   1932652  
  7200.000000   1936531   1940381   1944201   1948000   1951849  
  7190.000000   1955809   1959967   1964348   1968959   1973743  
  7180.000000   1978649   1983619   1988652   1993764   1999014  
  7170.000000   2004429   2010026   2015750   2021538   2027297  
  7160.000000   2032989   2038602   2044200   2049847   2055634  
  7150.000000   2061594   2067745   2074040   2080434   2086854  
  7140.000000   2093271   2099664   2106067   2112520   2119099  
  7130.000000   2125867   2132900   2140231   2147884   2155817  
  7120.000000   2163972   2172235   2180515   2188716   2196802  
  7110.000000   2204758   2212628   2220447   2228276   2236149  
  7100.000000   2244112   2252196   2260449   2268905   2277593  
  7090.000000   2286505   2295602   2304800   2314005   2323123  
  7080.000000   2332095   2340889   2349523   2358021   2366428  
  7070.000000   2374767   2383065   2391338   2399614   2407926  
  7060.000000   2416307   2424787   2433370   2442051   2450801  
  7050.000000   2459598   2468416   2477247   2486072   2494875  
  7040.000000   2503612   2512241   2520711   2529000   2537103  
  7030.000000   2545048   2552865   2560582   2568201   2575712  
  7020.000000   2583088   2590328   2597437   2604456   2611407  
  7010.000000   2618316   2625158   2631910   2638528   2645014  
  7000.000000   2651390   2657727   2664079   2670483   2676896  
  6990.000000   2683239   2689385   2695248   2700781   2706039  
  6980.000000   2711110   2716124   2721158   2726248   2731342  
  6970.000000   2736370   2741233   2745879   2750268   2754412  
  6960.000000   2758312   2761996   2765467   2768770   2771946  
  6950.000000   2775086   2778261   2781538   2784919   2788365  
  6940.000000   2791775   2795055   2798123   2800953   2803556  
  6930.000000   2805977   2808249   2810402   2812442   2814391  
  6920.000000   2816287   2818215   2820267   2822532   2825031  
  6910.000000   2827727   2830501   2833218   2835745   2838008  
  6900.000000   2839995   2841749   2843333   2844794   2846152  
  6890.000000   2847403   2848537   2849571   2850549   2851548  
  6880.000000   2852640   2853887   2855297   2856852   2858498  
  6870.000000   2860179   2861842   2863450   2864978   2866403  
  6860.000000   2867707   2868876   2869910   2870831   2871680  
  6850.000000   2872513   2873380   2874326   2875370   2876520  
  6840.000000   2877760   2879069   2880406   2881725   2882962  
  6830.000000   2884057   2884957   2885645   2886137   2886490  
  6820.000000   2886778   2887078   2887441   2887897   2888443  
  6810.000000   2889076   2889783   2890567   2891415   2892309  
  6800.000000   2893187   2893975   2894580   2894945   2895049  
  6790.000000   2894933   2894673   2894357   2894045   2893761  
  6780.000000   2893478   2893155   2892752   2892262   2891700  
  6770.000000   2891110   2890520   2889951   2889394   2888838  
  6760.000000   2888273   2887716   2887194   2886741   2886367  
  6750.000000   2886055   2885752   2885400   2884948   2884380  
  6740.000000   2883716   2883005   2882299   2881637   2881029  
  6730.000000   2880464   2879915   2879356   2878763   2878122  
  6720.000000   2877416   2876635   2875766   2874819   2873816  
  6710.000000   2872805   2871834   2870940   2870126   2869357  
  6700.000000   2868568   2867691   2866677   2865521   2864254  
  6690.000000   2862936   2861626   2860365   2859162   2858000  
  6680.000000   2856850   2855689   2854499   2853283   2852043  
  6670.000000   2850795   2849543   2848310   2847112   2845981  
  6660.000000   2844931   2843966   2843048   2842111   2841065  
  6650.000000   2839826   2838333   2836571   2834565   2832376  
  6640.000000   2830072   2827722   2825378   2823091   2820900  
  6630.000000   2818848   2816961   2815251   2813684   2812198  
  6620.000000   2810700   2809100   2807333   2805379   2803269  
  6610.000000   2801069   2798860   2796709   2794657   2792718  
  6600.000000   2790882   2789134   2787450   2785812   2784195  
  6590.000000   2782578   2780933   2779242   2777497   2775700  
  6580.000000   2773864   2772000   2770112   2768195   2766244  
  6570.000000   2764261   2762272   2760317   2758447   2756703  
  6560.000000   2755095   2753598   2752156   2750702   2749184  
  6550.000000   2747582   2745920   2744246   2742625   2741105  
  6540.000000   2739714   2738443   2737267   2736142   2735033  
  6530.000000   2733908   2732751   2731557   2730336   2729105  
  6520.000000   2727893   2726728   2725635   2724627   2723702  
  6510.000000   2722839   2722010   2721178   2720312   2719391  
  6500.000000   2718404   2717347   2716228   2715065   2713888  
  6490.000000   2712737   2711655   2710677   2709813   2709041  
  6480.000000   2708306   2707543   2706693   2705730   2704668  
  6470.000000   2703553   2702446   2701387   2700383   2699405  
  6460.000000   2698405   2697344   2696213   2695041   2693884  
  6450.000000   2692806   2691842   2690997   2690239   2689521  
  6440.000000   2688802   2688057   2687285   2686487   2685662  
  6430.000000   2684791   2683843   2682787   2681615   2680350  
  6420.000000   2679049   2677784   2676628   2675624   2674790  
  6410.000000   2674107   2673545   2673063   2672627   2672203  
  6400.000000   2671766   2671291   2670761   2670173   2669542  
  6390.000000   2668905   2668307   2667790   2667380   2667072  
  6380.000000   2666839   2666638   2666424   2666165   2665837  
  6370.000000   2665435   2664957   2664408   2663798   2663145  
  6360.000000   2662478   2661834   2661235   2660691   2660175  
  6350.000000   2659640   2659030   2658308   2657466   2656546  
  6340.000000   2655613   2654741   2653974   2653319   2652735  
  6330.000000   2652162   2651534   2650816   2650004   2649129  
  6320.000000   2648227   2647336   2646460   2645593   2644703  
  6310.000000   2643769   2642771   2641713   2640595   2639429  
  6300.000000   2638210   2636938   2635596   2634185   2632699  
  6290.000000   2631153   2629549   2627898   2626195   2624436  
  6280.000000   2622609   2620714   2618744   2616710   2614618  
  6270.000000   2612482   2610309   2608112   2605896   2603673  
  6260.000000   2601442   2599205   2596953   2594681   2592384  
  6250.000000   2590071   2587754   2585455   2583186   2580948  
  6240.000000   2578718   2576465   2574149   2571745   2569248  
  6230.000000   2566679   2564072   2561472   2558907   2556395  
  6220.000000   2553934   2551516   2549129   2546768   2544431  
  6210.000000   2542116   2539818   2537528   2535235   2532934  
  6200.000000   2530631   2528343   2526096   2523912   2521802  
  6190.000000   2519761   2517774   2515816   2513861   2511888  
  6180.000000   2509881   2507827   2505721   2503560   2501358  
  6170.000000   2499138   2496939   2494802   2492759   2490826  
  6160.000000   2488994   2487232   2485503   2483777   2482036  
  6150.000000   2480282   2478527   2476780   2475040   2473292  
  6140.000000   2471518   2469703   2467850   2465975   2464109  
  6130.000000   2462280   2460506   2458790   2457126   2455504  
  6120.000000   2453922   2452382   2450896   2449463   2448077  
  6110.000000   2446713   2445354   2443980   2442600   2441237  
  6100.000000   2439936   2438731   2437655   2436703   2435864  
  6090.000000   2435103   2434399   2433733   2433112   2432539  
  6080.000000   2432032   2431588   2431207   2430872   2430581  
  6070.000000   2430318   2430091   2429891   2429727   2429584  
  6060.000000   2429469   2429374   2429316   2429308   2429382  
  6050.000000   2429550   2429836   2430233   2430746   2431362  
  6040.000000   2432091   2432935   2433912   2435021   2436266  
  6030.000000   2437617   2439052   2440533   2442044   2443572  
  6020.000000   2445129   2446723   2448371   2450070   2451817  
  6010.000000   2453588   2455366   2457121   2458836   2460487  
  6000.000000   2462063   2463552   2464964   2466319   2467662  
  5990.000000   2469037   2470497   2472065   2473751   2475531  
  5980.000000   2477378   2479260   2481172   2483125   2485157  
  5970.000000   2487301   2489590   2492022   2494586   2497246  
  5960.000000   2499974   2502743   2505543   2508361   2511191  
  5950.000000   2514005   2516778   2519477   2522089   2524618  
  5940.000000   2527098   2529577   2532110   2534741   2537492  
  5930.000000   2540365   2543340   2546388   2549475   2552569  
  5920.000000   2555636   2558650   2561586   2564426   2567163  
  5910.000000   2569798   2572343   2574813   2577221   2579579  
  5900.000000   2581897   2584188   2586470   2588770   2591112  
  5890.000000   2593516   2595983   2598505   2601055   2603609  
  5880.000000   2606148   2608662   2611153   2613621   2616062  
  5870.000000   2618450   2620758   2622952   2625020   2626967  
  5860.000000   2628833   2630671   2632549   2634524   2636644  
  5850.000000   2638936   2641415   2644084   2646936   2649953  
  5840.000000   2653105   2656348   2659635   2662922   2666176  
  5830.000000   2669386   2672556   2675697   2678816   2681910  
  5820.000000   2684954   2687920   2690771   2693488   2696052  
  5810.000000   2698471   2700733   2702849   2704797   2706583  
  5800.000000   2708187   2709635   2710928   2712110   2713182  
  5790.000000   2714161   2715014   2715719   2716213   2716466  
  5780.000000   2716433   2716107   2715481   2714581   2713432  
  5770.000000   2712092   2710613   2709074   2707540   2706082  
  5760.000000   2704740   2703542   2702487   2701566   2700758  
  5750.000000   2700050   2699432   2698897   2698439   2698044  
  5740.000000   2697701   2697389   2697102   2696828   2696576  
  5730.000000   2696345   2696148   2695980   2695846   2695737  
  5720.000000   2695660   2695616   2695618   2695671   2695786  
  5710.000000   2695961   2696200   2696497   2696858   2697282  
  5700.000000   2697771   2698316   2698903   2699507   2700107  
  5690.000000   2700687   2701245   2701795   2702355   2702940  
  5680.000000   2703549   2704168   2704763   2705300   2705745  
  5670.000000   2706077   2706281   2706356   2706292   2706093  
  5660.000000   2705757   2705302   2704750   2704144   2703522  
  5650.000000   2702917   2702337   2701774   2701199   2700588  
  5640.000000   2699927   2699225   2698504   2697796   2697125  
  5630.000000   2696503   2695926   2695383   2694863   2694366  
  5620.000000   2693894   2693452   2693037   2692636   2692226  
  5610.000000   2691783   2691289   2690742   2690146   2689515  
  5600.000000   2688857   2688174   2687459   2686711   2685927  
  5590.000000   2685117   2684290   2683457   2682610   2681738  
  5580.000000   2680819   2679844   2678813   2677748   2676676  
  5570.000000   2675622   2674588   2673556   2672489   2671349  
  5560.000000   2670109   2668771   2667360   2665920   2664493  
  5550.000000   2663116   2661807   2660574   2659419   2658343  
  5540.000000   2657346   2656423   2655554   2654707   2653842  
  5530.000000   2652925   2651937   2650889   2649809   2648738  
  5520.000000   2647710   2646743   2645831   2644954   2644081  
  5510.000000   2643189   2642255   2641270   2640222   2639108  
  5500.000000   2637922   2636674   2635381   2634077   2632792  
  5490.000000   2631552   2630349   2629159   2627930   2626616  
  5480.000000   2625179   2623614   2621932   2620171   2618356  
  5470.000000   2616509   2614631   2612718   2610761   2608766  
  5460.000000   2606741   2604705   2602661   2600609   2598535  
  5450.000000   2596429   2594288   2592127   2589976   2587863  
  5440.000000   2585810   2583819   2581877   2579963   2578068  
  5430.000000   2576190   2574349   2572558   2570839   2569190  
  5420.000000   2567619   2566121   2564718   2563425   2562278  
  5410.000000   2561281   2560436   2559700   2559048   2558438  
  5400.000000   2557880   2557386   2557022   2556826   2556851  
  5390.000000   2557091   2557545   2558167   2558952   2559877  
  5380.000000   2560974   2562242   2563713   2565357   2567175  
  5370.000000   2569114   2571183   2573354   2575682   2578166  
  5360.000000   2580879   2583813   2587030   2590514   2594342  
  5350.000000   2598513   2603126   2608182   2613761   2619823  
  5340.000000   2626413   2633467   2641045   2649105   2657734  
  5330.000000   2666891   2676648   2686927   2697774   2709103  
  5320.000000   2720991   2733402   2746474   2760202   2774736  
  5310.000000   2790037   2806208   2823164   2840980   2859577  
  5300.000000   2879057   2899384   2920699   2942993   2966401  
  5290.000000   2990881   3016484   3043069   3070572   3098785  
  5280.000000   3127630   3156976   3186874   3217345   3248532  
  5270.000000   3280475   3313190   3346525   3380257   3414100  
  5260.000000   3447805   3481236   3514351   3547230   3579913  
  5250.000000   3612449   3644698   3676524   3707624   3737856  
  5240.000000   3767022   3795189   3822353   3848723   3874319  
  5230.000000   3899284   3923500   3946963   3969444   3990913  
  5220.000000   4011199   4030397   4048481   4065671   4082006  
  5210.000000   4097696   4112693   4127073   4140655   4153431  
  5200.000000   4165220   4176090   4185979   4195054   4203306  
  5190.000000   4210874   4217685   4223799   4229100   4233652  
  5180.000000   4237396   4240459   4242829   4244632   4245825  
  5170.000000   4246478   4246522   4246026   4244961   4243437  
  5160.000000   4241452   4239101   4236342   4233211   4229639  
  5150.000000   4225661   4221250   4216490   4211393   4206039  
  5140.000000   4200414   4194551   4188413   4182030   4175399  
  5130.000000   4168590   4161634   4154602   4147504   4140368  
  5120.000000   4133174   4125934   4118648   4111352   4104067  
  5110.000000   4096827   4089631   4082476   4075332   4068190  
  5100.000000   4061035   4053889   4046767   4039699   4032690  
  5090.000000   4025739   4018813   4011888   4004928   3997919  
  5080.000000   3990843   3983704   3976493   3969214   3961852  
  5070.000000   3954410   3946872   3939244   3931513   3923682  
  5060.000000   3915733   3907670   3899482   3891187   3882794  
  5050.000000   3874342   3865851   3857351   3848849   3840353  
  5040.000000   3831850   3823340   3814813   3806272   3797721  
  5030.000000   3789166   3780612   3772062   3763521   3754993  
  5020.000000   3746495   3738036   3729641   3721321   3713101  
  5010.000000   3704985   3697002   3689157   3681487   3674003  
  5000.000000   3666745   3659711   3652931   3646386   3640096  
  4990.000000   3634037   3628239   3622690   3617437   3612475  
  4980.000000   3607853   3603554   3599617   3596009   3592758  
  4970.000000   3589826   3587240   3584961   3583021   3581380  
  4960.000000   3580075   3579069   3578405   3578050   3578051  
  4950.000000   3578376   3579068   3580094   3581495   3583237  
  4940.000000   3585368   3587857   3590748   3594005   3597658  
  4930.000000   3601653   3606007   3610662   3615640   3620896  
  4920.000000   3626465   3632317   3638490   3644954   3651741  
  4910.000000   3658825   3666235   3673950   3681995   3690341  
  4900.000000   3698990   3707892   3717023   3726325   3735769  
  4890.000000   3745310   3754929   3764592   3774275   3783941  
  4880.000000   3793555   3803077   3812472   3821717   3830788  
  4870.000000   3839675   3848357   3856829   3865071   3873095  
  4860.000000   3880895   3888507   3895941   3903238   3910393  
  4850.000000   3917428   3924316   3931061   3937637   3944062  
  4840.000000   3950330   3956476   3962500   3968433   3974262  
  4830.000000   3980003   3985628   3991141   3996506   4001716  
  4820.000000   4006728   4011528   4016077   4020375   4024412  
  4810.000000   4028218   4031809   4035234   4038514   4041693  
  4800.000000   4044783   4047821   4050816   4053802   4056779  
  4790.000000   4059765   4062737   4065684   4068562   4071353  
  4780.000000   4074024   4076581   4079016   4081351   4083587  
  4770.000000   4085737   4087783   4089730   4091555   4093269  
  4760.000000   4094860   4096347   4097716   4098979   4100105  
  4750.000000   4101091   4101901   4102534   4102968   4103217  
  4740.000000   4103273   4103161   4102879   4102454   4101880  
  4730.000000   4101181   4100345   4099384   4098279   4097035  
  4720.000000   4095631   4094079   4092375   4090549   4088615  
  4710.000000   4086614   4084565   4082497   4080421   4078355  
  4700.000000   4076299   4074268   4072259   4070281   4068322  
  4690.000000   4066377   4064428   4062460   4060460   4058418  
  4680.000000   4056332   4054201   4052027   4049807   4047541  
  4670.000000   4045225   4042868   4040481   4038094   4035736  
  4660.000000   4033450   4031265   4029215   4027310   4025569  
  4650.000000   4023988   4022576   4021326   4020246   4019328  
  4640.000000   4018574   4017970   4017510   4017173   4016945  
  4630.000000   4016798   4016712   4016650   4016588   4016492  
  4620.000000   4016342   4016120   4015822   4015450   4015015  
  4610.000000   4014526   4013997   4013436   4012855   4012261  
  4600.000000   4011666   4011083   4010525   4010005   4009534  
  4590.000000   4009125   4008789   4008536   4008373   4008300  
  4580.000000   4008309   4008378   4008477   4008570   4008620  
  4570.000000   4008603   4008504   4008319   4008053   4007712  
  4560.000000   4007296   4006802   4006225   4005566   4004832  
  4550.000000   4004045   4003237   4002440   4001683   4000978  
  4540.000000   4000330   3999725   3999154   3998598   3998065  
  4530.000000   3997551   3997088   3996684   3996388   3996205  
  4520.000000   3996195   3996356   3996755   3997384   3998310  
  4510.000000   3999518   4001082   4002989   4005332   4008119  
  4500.000000   4011470   4015415   4020084   4025503   4031780  
  4490.000000   4038908   4046946   4055833   4065563   4076018  
  4480.000000   4087135   4098752   4110780   4123061   4135525  
  4470.000000   4148055   4160630   4173189   4185747   4198282  
  4460.000000   4210818   4223340   4235848   4248314   4260710  
  4450.000000   4272995   4285130   4297094   4308873   4320490  
  4440.000000   4331964   4343353   4354683   4366009   4377325  
  4430.000000   4388658   4399964   4411254   4422459   4433585  
  4420.000000   4444549   4455344   4465862   4476070   4485826  
  4410.000000   4495070   4503646   4511497   4518493   4524622  
  4400.000000   4529821   4534149   4537615   4540329   4542344  
  4390.000000   4543781   4544700   4545212   4545377   4545304  
  4380.000000   4545060   4544759   4544484   4544350   4544448  
  4370.000000   4544879   4545727   4547060   4548927   4551339  
  4360.000000   4554286   4557714   4561555   4565711   4570093  
  4350.000000   4574609   4579197   4583815   4588454   4593125  
  4340.000000   4597845   4602627   4607448   4612246   4616898  
  4330.000000   4621244   4625088   4628263   4630634   4632178  
  4320.000000   4632951   4633131   4632933   4632621   4632388  
  4310.000000   4632401   4632696   4633279   4634057   4634958  
  4300.000000   4635874   4636752   4637526   4638174   4638661  
  4290.000000   4638977   4639104   4639056   4638849   4638535  
  4280.000000   4638159   4637786   4637448   4637182   4636975  
  4270.000000   4636818   4636651   4636427   4636055   4635461  
  4260.000000   4634548   4633247   4631498   4629291   4626648  
  4250.000000   4623650   4620397   4617026   4613660   4610423  
  4240.000000   4607388   4604614   4602099   4599831   4597752  
  4230.000000   4595804   4593911   4592007   4590026   4587918  
  4220.000000   4585651   4583207   4580599   4577851   4575020  
  4210.000000   4572160   4569347   4566635   4564078   4561688  
  4200.000000   4559473   4557398   4555444   4553564   4551753  
  4190.000000   4549990   4548312   4546721   4545282   4544003  
  4180.000000   4542953   4542137   4541628   4541434   4541644  
  4170.000000   4542272   4543409   4545058   4547290   4550074  
  4160.000000   4553450   4557358   4561825   4566781   4572259  
  4150.000000   4578196   4584636   4591519   4598900   4606726  
  4140.000000   4615065   4623881   4633252   4643147   4653633  
  4130.000000   4664662   4676274   4688400   4701062   4714195  
  4120.000000   4727828   4741914   4756487   4771504   4786990  
  4110.000000   4802892   4819215   4835898   4852931   4870244  
  4100.000000   4887816   4905581   4923519   4941592   4959804  
  4090.000000   4978152   4996659   5015333   5034176   5053184  
  4080.000000   5072327   5091593   5110942   5130367   5149812  
  4070.000000   5169253   5188594   5207783   5226700   5245308  
  4060.000000   5263511   5281324   5298679   5315612   5332036  
  4050.000000   5347977   5363326   5378116   5392246   5405770  
  4040.000000   5418583   5430733   5442084   5452674   5462370  
  4030.000000   5471240   5479189   5486305   5492499   5497823  
  4020.000000   5502128   5505451   5507713   5508993   5509228  
  4010.000000   5508597   5507202   5505126   5502184   5498502  
  4000.000000   5494446  
##END= 
