##TITLE= Sample 003 By ssteindl date Montag, November 26 2018
##JCAMP-DX= 4.24
##DATA TYPE= INFRARED SPECTRUM
##ORIGIN= Exported PE Spectrum Data File
##OWNER= Sandra Steindl
##DATE= 18/11/26
##TIME= 12:52:51.00
##SPECTROMETER/DATA SYSTEM= PERKIN-ELMER Frontier FT-IR/NIR IR
##INSTRUMENT PARAMETERS=
  APODIZATION=stark
  DETECTOR=INGAAS
##RESOLUTION= 16.000000
##DELTAX= -2.000000
##XUNITS= 1/CM
##YUNITS= A
##XFACTOR= 1.00
##YFACTOR= 0.00000011920928955078
##FIRSTX= 10000.00
##LASTX= 4000.00
##NPOINTS= 3001
##FIRSTY= 0.210786
##MAXY= 0.620942
##MINY= 0.183034
##XYDATA= (X++(Y..Y))
 10000.000000   1768204   1765972   1763272   1759390   1754223  
  9990.000000   1748219   1742115   1736752   1733080   1731805  
  9980.000000   1733061   1736294   1740564   1744834   1748339  
  9970.000000   1750784   1752350   1753515   1754724   1756240  
  9960.000000   1758050   1760023   1762060   1764214   1766612  
  9950.000000   1769296   1771974   1773992   1774438   1772506  
  9940.000000   1767850   1760822   1752429   1743970   1736605  
  9930.000000   1730914   1726811   1723707   1720897   1717993  
  9920.000000   1715054   1712594   1711180   1711197   1712597  
  9910.000000   1715016   1718010   1721276   1724795   1728619  
  9900.000000   1732682   1736470   1739111   1739561   1737186  
  9890.000000   1732079   1725282   1718440   1713225   1710679  
  9880.000000   1710778   1712536   1714453   1715255   1714441  
  9870.000000   1712469   1710450   1709558   1710388   1712685  
  9860.000000   1715438   1717404   1717725   1716327   1714017  
  9850.000000   1712062   1711675   1713426   1717023   1721423  
  9840.000000   1725272   1727412   1727291   1725063   1721435  
  9830.000000   1717388   1713817   1711410   1710484   1711106  
  9820.000000   1713080   1716051   1719515   1722862   1725449  
  9810.000000   1726698   1726218   1723900   1719960   1714869  
  9800.000000   1709300   1703931   1699386   1696083   1694236  
  9790.000000   1693831   1694655   1696368   1698531   1700720  
  9780.000000   1702584   1703930   1704779   1705299   1705798  
  9770.000000   1706527   1707668   1709188   1710918   1712560  
  9760.000000   1713828   1714545   1714738   1714661   1714717  
  9750.000000   1715355   1716846   1719212   1722094   1724885  
  9740.000000   1726866   1727498   1726628   1724589   1722060  
  9730.000000   1719848   1718484   1718089   1718215   1718147  
  9720.000000   1717144   1714872   1711545   1707890   1704810  
  9710.000000   1702939   1702302   1702195   1701495   1699054  
  9700.000000   1694307   1687453   1679504   1671877   1665915  
  9690.000000   1662489   1661761   1663365   1666615   1670910  
  9680.000000   1675836   1681213   1686881   1692530   1697625  
  9670.000000   1701459   1703450   1703258   1701018   1697141  
  9660.000000   1692243   1686845   1681301   1675813   1670537  
  9650.000000   1665792   1662045   1659892   1659720   1661549  
  9640.000000   1664804   1668503   1671479   1672829   1672199  
  9630.000000   1669878   1666705   1663673   1661647   1660989  
  9620.000000   1661567   1662791   1663929   1664328   1663649  
  9610.000000   1661905   1659432   1656758   1654447   1652983  
  9600.000000   1652628   1653409   1655080   1657240   1659423  
  9590.000000   1661274   1662626   1663559   1664305   1665129  
  9580.000000   1666176   1667341   1668320   1668656   1667975  
  9570.000000   1666087   1663092   1659346   1655322   1651525  
  9560.000000   1648335   1646049   1644836   1644823   1646028  
  9550.000000   1648318   1651300   1654323   1656568   1657268  
  9540.000000   1655974   1652743   1648182   1643255   1639020  
  9530.000000   1636245   1635247   1635776   1637216   1638784  
  9520.000000   1639817   1639931   1639034   1637307   1635050  
  9510.000000   1632663   1630556   1629158   1628870   1629955  
  9500.000000   1632475   1636150   1640393   1644347   1647120  
  9490.000000   1647998   1646704   1643484   1639071   1634445  
  9480.000000   1630563   1628112   1627359   1628198   1630182  
  9470.000000   1632756   1635319   1637455   1638918   1639719  
  9460.000000   1640004   1639980   1639801   1639452   1638790  
  9450.000000   1637501   1635308   1631995   1627622   1622510  
  9440.000000   1617215   1612406   1608626   1606241   1605300  
  9430.000000   1605687   1607147   1609449   1612394   1615820  
  9420.000000   1619515   1623123   1626128   1627912   1627979  
  9410.000000   1626109   1622561   1617970   1613259   1609302  
  9400.000000   1606719   1605681   1605884   1606700   1607374  
  9390.000000   1607328   1606311   1604481   1602288   1600315  
  9380.000000   1599077   1598892   1599786   1601509   1603614  
  9370.000000   1605599   1607074   1607849   1607983   1607696  
  9360.000000   1607305   1607056   1607055   1607161   1607061  
  9350.000000   1606354   1604765   1602275   1599202   1596149  
  9340.000000   1593823   1592875   1593622   1595998   1599468  
  9330.000000   1603263   1606567   1608792   1609725   1609522  
  9320.000000   1608620   1607507   1606537   1605752   1604885  
  9310.000000   1603493   1601206   1597915   1593881   1589697  
  9300.000000   1586113   1583806   1583092   1583835   1585438  
  9290.000000   1587096   1588054   1587864   1586513   1584403  
  9280.000000   1582213   1580640   1580158   1580865   1582485  
  9270.000000   1584481   1586255   1587292   1587317   1586317  
  9260.000000   1584555   1582431   1580378   1578711   1577587  
  9250.000000   1576945   1576565   1576140   1575421   1574343  
  9240.000000   1573068   1571984   1571535   1572128   1573913  
  9230.000000   1576742   1580149   1583507   1586231   1587939  
  9220.000000   1588525   1588112   1586952   1585270   1583214  
  9210.000000   1580811   1578096   1575142   1572168   1569441  
  9200.000000   1567206   1565562   1564403   1563495   1562573  
  9190.000000   1561547   1560582   1560110   1560672   1562665  
  9180.000000   1566144   1570736   1575727   1580267   1583628  
  9170.000000   1585445   1585817   1585198   1584214   1583429  
  9160.000000   1583218   1583643   1584494   1585379   1585869  
  9150.000000   1585611   1584371   1582136   1579082   1575641  
  9140.000000   1572334   1569758   1568369   1568423   1569823  
  9130.000000   1572144   1574711   1576798   1577848   1577571  
  9120.000000   1575998   1573393   1570182   1566760   1563430  
  9110.000000   1560343   1557603   1555286   1553510   1552406  
  9100.000000   1552087   1552593   1553824   1555565   1557483  
  9090.000000   1559255   1560612   1561414   1561665   1561508  
  9080.000000   1561219   1561090   1561361   1562117   1563264  
  9070.000000   1564483   1565310   1565254   1564009   1561528  
  9060.000000   1558091   1554236   1550623   1547828   1546134  
  9050.000000   1545515   1545688   1546305   1547090   1547978  
  9040.000000   1549094   1550653   1552767   1555311   1557910  
  9030.000000   1560007   1561120   1560946   1559575   1557376  
  9020.000000   1554947   1552840   1551408   1550745   1550691  
  9010.000000   1551023   1551526   1552180   1553097   1554501  
  9000.000000   1556523   1559137   1562091   1564945   1567178  
  8990.000000   1568316   1568087   1566441   1563573   1559870  
  8980.000000   1555841   1552027   1548876   1546723   1545702  
  8970.000000   1545750   1546555   1547671   1548595   1548891  
  8960.000000   1548287   1546735   1544480   1541905   1539480  
  8950.000000   1537534   1536266   1535622   1535413   1535401  
  8940.000000   1535448   1535603   1536065   1537164   1539173  
  8930.000000   1542226   1546171   1550618   1555043   1558883  
  8920.000000   1561721   1563307   1563653   1562883   1561200  
  8910.000000   1558785   1555833   1552556   1549224   1546205  
  8900.000000   1543922   1542784   1543000   1544557   1547140  
  8890.000000   1550258   1553320   1555843   1557567   1558496  
  8880.000000   1558845   1558900   1558922   1559040   1559262  
  8870.000000   1559502   1559685   1559795   1559900   1560105  
  8860.000000   1560464   1560934   1561335   1561434   1561014  
  8850.000000   1559968   1558363   1556424   1554509   1552965  
  8840.000000   1552038   1551786   1552072   1552634   1553181  
  8830.000000   1553508   1553601   1553625   1553899   1554739  
  8820.000000   1556353   1558710   1561524   1564314   1566567  
  8810.000000   1567900   1568236   1567813   1567151   1566833  
  8800.000000   1567336   1568825   1571125   1573751   1576090  
  8790.000000   1577619   1578079   1577604   1576644   1575868  
  8780.000000   1575920   1577263   1580017   1583932   1588441  
  8770.000000   1592795   1596256   1598262   1598573   1597306  
  8760.000000   1594914   1592050   1589435   1587646   1587020  
  8750.000000   1587558   1588977   1590817   1592584   1593943  
  8740.000000   1594761   1595193   1595551   1596245   1597608  
  8730.000000   1599809   1602802   1606291   1609832   1612868  
  8720.000000   1614901   1615563   1614742   1612614   1609637  
  8710.000000   1606468   1603823   1602302   1602227   1603566  
  8700.000000   1605940   1608757   1611382   1613333   1614398  
  8690.000000   1614681   1614526   1614388   1614674   1615608  
  8680.000000   1617203   1619269   1621525   1623673   1625504  
  8670.000000   1626930   1627993   1628834   1629614   1630470  
  8660.000000   1631447   1632514   1633575   1634516   1635274  
  8650.000000   1635842   1636304   1636773   1637355   1638072  
  8640.000000   1638856   1639553   1640015   1640166   1640088  
  8630.000000   1639997   1640194   1640966   1642475   1644714  
  8620.000000   1647508   1650606   1653784   1656914   1659971  
  8610.000000   1662973   1665902   1668629   1670929   1672545  
  8600.000000   1673341   1673365   1672902   1672372   1672203  
  8590.000000   1672670   1673786   1675328   1676928   1678273  
  8580.000000   1679206   1679827   1680408   1681288   1682701  
  8570.000000   1684701   1687123   1689665   1691992   1693853  
  8560.000000   1695156   1695958   1696424   1696746   1697101  
  8550.000000   1697588   1698232   1698964   1699664   1700170  
  8540.000000   1700339   1700090   1699460   1698640   1697941  
  8530.000000   1697741   1698348   1699908   1702336   1705332  
  8520.000000   1708476   1711359   1713720   1715503   1716843  
  8510.000000   1717967   1719097   1720334   1721662   1722947  
  8500.000000   1724061   1724913   1725520   1725966   1726366  
  8490.000000   1726820   1727362   1728003   1728727   1729579  
  8480.000000   1730640   1732037   1733862   1736140   1738788  
  8470.000000   1741615   1744354   1746728   1748523   1749605  
  8460.000000   1749957   1749649   1748859   1747807   1746741  
  8450.000000   1745889   1745429   1745476   1746039   1747068  
  8440.000000   1748447   1750076   1751861   1753752   1755706  
  8430.000000   1757670   1759558   1761234   1762558   1763405  
  8420.000000   1763753   1763673   1763335   1762947   1762702  
  8410.000000   1762743   1763121   1763831   1764809   1765999  
  8400.000000   1767328   1768734   1770112   1771337   1772260  
  8390.000000   1772753   1772744   1772241   1771342   1770204  
  8380.000000   1768997   1767867   1766900   1766142   1765603  
  8370.000000   1765299   1765238   1765429   1765851   1766443  
  8360.000000   1767094   1767662   1768017   1768066   1767795  
  8350.000000   1767248   1766527   1765747   1765038   1764509  
  8340.000000   1764247   1764306   1764687   1765347   1766169  
  8330.000000   1767008   1767710   1768175   1768388   1768424  
  8320.000000   1768412   1768470   1768629   1768802   1768799  
  8310.000000   1768411   1767515   1766151   1764541   1763032  
  8300.000000   1761970   1761570   1761809   1762436   1763042  
  8290.000000   1763235   1762763   1761620   1760022   1758350  
  8280.000000   1756986   1756214   1756113   1756568   1757336  
  8270.000000   1758131   1758715   1758914   1758630   1757812  
  8260.000000   1756449   1754576   1752287   1749771   1747307  
  8250.000000   1745231   1743853   1743363   1743748   1744795  
  8240.000000   1746130   1747346   1748097   1748215   1747717  
  8230.000000   1746791   1745705   1744708   1743958   1743482  
  8220.000000   1743203   1742987   1742697   1742233   1741538  
  8210.000000   1740606   1739458   1738152   1736755   1735358  
  8200.000000   1734046   1732894   1731927   1731112   1730348  
  8190.000000   1729512   1728495   1727273   1725912   1724561  
  8180.000000   1723379   1722481   1721864   1721410   1720920  
  8170.000000   1720184   1719078   1717601   1715888   1714132  
  8160.000000   1712509   1711104   1709877   1708712   1707468  
  8150.000000   1706078   1704584   1703143   1701956   1701194  
  8140.000000   1700898   1700966   1701169   1701230   1700915  
  8130.000000   1700090   1698763   1697043   1695101   1693099  
  8120.000000   1691161   1689357   1687724   1686285   1685069  
  8110.000000   1684109   1683423   1682998   1682771   1682643  
  8100.000000   1682491   1682204   1681710   1680986   1680073  
  8090.000000   1679038   1677973   1676949   1676008   1675159  
  8080.000000   1674373   1673622   1672878   1672147   1671461  
  8070.000000   1670863   1670387   1670014   1669666   1669193  
  8060.000000   1668416   1667173   1665395   1663143   1660623  
  8050.000000   1658152   1656065   1654644   1654017   1654154  
  8040.000000   1654859   1655860   1656868   1657655   1658085  
  8030.000000   1658109   1657739   1657002   1655933   1654553  
  8020.000000   1652918   1651111   1649274   1647563   1646128  
  8010.000000   1645058   1644349   1643924   1643639   1643365  
  8000.000000   1643011   1642565   1642080   1641643   1641329  
  7990.000000   1641165   1641123   1641120   1641076   1640917  
  7980.000000   1640629   1640228   1639759   1639259   1638738  
  7970.000000   1638181   1637564   1636888   1636197   1635583  
  7960.000000   1635160   1635022   1635190   1635596   1636084  
  7950.000000   1636459   1636548   1636267   1635659   1634874  
  7940.000000   1634126   1633600   1633394   1633470   1633677  
  7930.000000   1633805   1633672   1633192   1632415   1631506  
  7920.000000   1630683   1630144   1629989   1630212   1630695  
  7910.000000   1631279   1631818   1632225   1632488   1632638  
  7900.000000   1632716   1632727   1632628   1632341   1631795  
  7890.000000   1630963   1629900   1628730   1627628   1626765  
  7880.000000   1626258   1626146   1626378   1626846   1627411  
  7870.000000   1627952   1628385   1628681   1628852   1628940  
  7860.000000   1628996   1629058   1629149   1629261   1629371  
  7850.000000   1629440   1629433   1629328   1629122   1628839  
  7840.000000   1628513   1628183   1627869   1627573   1627269  
  7830.000000   1626926   1626512   1626028   1625499   1624982  
  7820.000000   1624531   1624187   1623945   1623765   1623573  
  7810.000000   1623307   1622933   1622464   1621957   1621478  
  7800.000000   1621071   1620728   1620381   1619923   1619247  
  7790.000000   1618297   1617095   1615748   1614418   1613282  
  7780.000000   1612467   1612023   1611907   1612003   1612163  
  7770.000000   1612241   1612143   1611825   1611306   1610637  
  7760.000000   1609896   1609155   1608480   1607918   1607499  
  7750.000000   1607238   1607132   1607164   1607299   1607492  
  7740.000000   1607682   1607807   1607799   1607603   1607182  
  7730.000000   1606526   1605662   1604656   1603596   1602583  
  7720.000000   1601702   1601007   1600506   1600163   1599915  
  7710.000000   1599685   1599410   1599038   1598539   1597899  
  7700.000000   1597121   1596225   1595260   1594314   1593504  
  7690.000000   1592968   1592826   1593140   1593886   1594939  
  7680.000000   1596097   1597124   1597813   1598031   1597752  
  7670.000000   1597045   1596054   1594951   1593901   1593035  
  7660.000000   1592431   1592119   1592077   1592245   1592528  
  7650.000000   1592816   1593003   1593008   1592799   1592397  
  7640.000000   1591874   1591327   1590854   1590518   1590346  
  7630.000000   1590319   1590403   1590562   1590778   1591048  
  7620.000000   1591374   1591742   1592118   1592445   1592663  
  7610.000000   1592730   1592643   1592434   1592173   1591929  
  7600.000000   1591761   1591691   1591710   1591783   1591867  
  7590.000000   1591927   1591941   1591914   1591864   1591825  
  7580.000000   1591838   1591938   1592159   1592511   1592989  
  7570.000000   1593547   1594125   1594635   1595008   1595192  
  7560.000000   1595193   1595058   1594892   1594816   1594959  
  7550.000000   1595414   1596224   1597358   1598723   1600179  
  7540.000000   1601582   1602807   1603793   1604544   1605137  
  7530.000000   1605676   1606273   1606991   1607841   1608771  
  7520.000000   1609713   1610598   1611410   1612177   1612972  
  7510.000000   1613869   1614914   1616107   1617411   1618768  
  7500.000000   1620144   1621531   1622960   1624457   1626032  
  7490.000000   1627638   1629195   1630607   1631820   1632842  
  7480.000000   1633768   1634734   1635881   1637288   1638954  
  7470.000000   1640782   1642633   1644361   1645879   1647171  
  7460.000000   1648295   1649347   1650441   1651669   1653095  
  7450.000000   1654747   1656628   1658715   1660966   1663309  
  7440.000000   1665666   1667958   1670146   1672226   1674250  
  7430.000000   1676281   1678385   1680572   1682803   1684986  
  7420.000000   1687029   1688873   1690535   1692106   1693723  
  7410.000000   1695520   1697581   1699911   1702443   1705069  
  7400.000000   1707682   1710206   1712615   1714916   1717127  
  7390.000000   1719258   1721303   1723246   1725080   1726825  
  7380.000000   1728530   1730267   1732107   1734103   1736269  
  7370.000000   1738585   1740993   1743417   1745766   1747949  
  7360.000000   1749893   1751553   1752932   1754082   1755106  
  7350.000000   1756138   1757314   1758736   1760446   1762418  
  7340.000000   1764571   1766805   1769026   1771171   1773208  
  7330.000000   1775133   1776957   1778699   1780386   1782054  
  7320.000000   1783746   1785501   1787340   1789253   1791189  
  7310.000000   1793069   1794808   1796354   1797699   1798891  
  7300.000000   1800010   1801140   1802340   1803630   1804984  
  7290.000000   1806365   1807726   1809043   1810301   1811499  
  7280.000000   1812634   1813703   1814706   1815652   1816570  
  7270.000000   1817498   1818471   1819498   1820556   1821594  
  7260.000000   1822558   1823415   1824183   1824926   1825741  
  7250.000000   1826718   1827914   1829322   1830893   1832532  
  7240.000000   1834165   1835728   1837209   1838610   1839957  
  7230.000000   1841258   1842543   1843834   1845194   1846692  
  7220.000000   1848419   1850431   1852755   1855344   1858123  
  7210.000000   1860984   1863853   1866680   1869477   1872265  
  7200.000000   1875082   1877930   1880811   1883702   1886622  
  7190.000000   1889604   1892730   1896067   1899662   1903483  
  7180.000000   1907439   1911386   1915194   1918772   1922116  
  7170.000000   1925280   1928385   1931538   1934834   1938294  
  7160.000000   1941908   1945615   1949371   1953133   1956904  
  7150.000000   1960698   1964570   1968571   1972772   1977218  
  7140.000000   1981948   1986944   1992171   1997540   2002974  
  7130.000000   2008384   2013743   2019049   2024362   2029740  
  7120.000000   2035256   2040924   2046744   2052655   2058610  
  7110.000000   2064548   2070459   2076343   2082236   2088165  
  7100.000000   2094175   2100289   2106543   2112954   2119544  
  7090.000000   2126301   2133195   2140156   2147107   2153970  
  7080.000000   2160707   2167319   2173866   2180423   2187069  
  7070.000000   2193840   2200731   2207680   2214616   2221467  
  7060.000000   2228198   2234812   2241351   2247869   2254424  
  7050.000000   2261054   2267773   2274570   2281415   2288267  
  7040.000000   2295082   2301828   2308489   2315080   2321624  
  7030.000000   2328163   2334716   2341285   2347830   2354296  
  7020.000000   2360616   2366749   2372682   2378446   2384073  
  7010.000000   2389607   2395050   2400395   2405613   2410704  
  7000.000000   2415688   2420634   2425600   2430641   2435736  
  6990.000000   2440823   2445781   2450509   2454936   2459079  
  6980.000000   2463009   2466849   2470696   2474627   2478641  
  6970.000000   2482713   2486785   2490825   2494799   2498701  
  6960.000000   2502503   2506179   2509668   2512935   2515958  
  6950.000000   2518775   2521450   2524072   2526697   2529348  
  6940.000000   2531978   2534524   2536908   2539103   2541112  
  6930.000000   2543000   2544833   2546682   2548573   2550512  
  6920.000000   2552469   2554419   2556331   2558188   2559962  
  6910.000000   2561627   2563142   2564483   2565638   2566642  
  6900.000000   2567558   2568474   2569472   2570608   2571889  
  6890.000000   2573288   2574741   2576182   2577547   2578797  
  6880.000000   2579911   2580891   2581758   2582551   2583320  
  6870.000000   2584120   2584991   2585951   2586980   2588038  
  6860.000000   2589070   2590038   2590931   2591776   2592617  
  6850.000000   2593493   2594417   2595364   2596287   2597139  
  6840.000000   2597900   2598602   2599307   2600099   2601031  
  6830.000000   2602116   2603307   2604521   2605659   2606647  
  6820.000000   2607443   2608049   2608491   2608812   2609052  
  6810.000000   2609251   2609437   2609645   2609892   2610186  
  6800.000000   2610509   2610836   2611125   2611361   2611543  
  6790.000000   2611705   2611884   2612111   2612372   2612618  
  6780.000000   2612769   2612750   2612523   2612115   2611604  
  6770.000000   2611107   2610726   2610527   2610519   2610662  
  6760.000000   2610893   2611149   2611382   2611567   2611684  
  6750.000000   2611723   2611667   2611513   2611274   2610987  
  6740.000000   2610710   2610495   2610376   2610344   2610353  
  6730.000000   2610340   2610242   2610038   2609741   2609409  
  6720.000000   2609101   2608874   2608745   2608707   2608720  
  6710.000000   2608744   2608739   2608680   2608547   2608325  
  6700.000000   2607998   2607557   2606998   2606332   2605579  
  6690.000000   2604767   2603916   2603043   2602158   2601274  
  6680.000000   2600407   2599588   2598836   2598164   2597551  
  6670.000000   2596953   2596305   2595553   2594671   2593679  
  6660.000000   2592626   2591583   2590595   2589682   2588814  
  6650.000000   2587943   2587012   2585990   2584873   2583687  
  6640.000000   2582459   2581214   2579950   2578653   2577299  
  6630.000000   2575877   2574386   2572844   2571265   2569663  
  6620.000000   2568036   2566385   2564711   2563036   2561392  
  6610.000000   2559824   2558357   2556998   2555715   2554459  
  6600.000000   2553170   2551806   2550350   2548815   2547232  
  6590.000000   2545636   2544051   2542480   2540913   2539331  
  6580.000000   2537717   2536061   2534371   2532663   2530963  
  6570.000000   2529300   2527702   2526188   2524765   2523423  
  6560.000000   2522142   2520890   2519640   2518373   2517089  
  6550.000000   2515796   2514513   2513248   2512000   2510751  
  6540.000000   2509479   2508166   2506810   2505425   2504038  
  6530.000000   2502675   2501352   2500068   2498815   2497579  
  6520.000000   2496353   2495138   2493938   2492755   2491584  
  6510.000000   2490407   2489209   2487986   2486752   2485541  
  6500.000000   2484392   2483336   2482383   2481514   2480690  
  6490.000000   2479870   2479026   2478151   2477256   2476360  
  6480.000000   2475470   2474579   2473665   2472701   2471675  
  6470.000000   2470594   2469483   2468374   2467294   2466249  
  6460.000000   2465229   2464212   2463178   2462119   2461041  
  6450.000000   2459958   2458889   2457844   2456828   2455838  
  6440.000000   2454878   2453951   2453065   2452223   2451420  
  6430.000000   2450641   2449874   2449108   2448352   2447624  
  6420.000000   2446951   2446346   2445811   2445320   2444843  
  6410.000000   2444346   2443821   2443276   2442745   2442259  
  6400.000000   2441842   2441492   2441190   2440906   2440619  
  6390.000000   2440325   2440039   2439784   2439580   2439437  
  6380.000000   2439345   2439284   2439231   2439167   2439077  
  6370.000000   2438953   2438782   2438553   2438259   2437902  
  6360.000000   2437500   2437086   2436690   2436335   2436011  
  6350.000000   2435685   2435304   2434821   2434208   2433475  
  6340.000000   2432655   2431805   2430971   2430188   2429462  
  6330.000000   2428791   2428159   2427560   2426990   2426450  
  6320.000000   2425927   2425403   2424844   2424226   2423529  
  6310.000000   2422760   2421934   2421076   2420189   2419265  
  6300.000000   2418270   2417172   2415947   2414608   2413188  
  6290.000000   2411746   2410328   2408969   2407662   2406383  
  6280.000000   2405080   2403715   2402252   2400689   2399032  
  6270.000000   2397309   2395541   2393758   2391976   2390210  
  6260.000000   2388455   2386702   2384922   2383085   2381160  
  6250.000000   2379138   2377030   2374882   2372749   2370693  
  6240.000000   2368753   2366939   2365225   2363566   2361906  
  6230.000000   2360199   2358419   2356559   2354627   2352639  
  6220.000000   2350614   2348568   2346522   2344495   2342508  
  6210.000000   2340579   2338714   2336912   2335158   2333434  
  6200.000000   2331725   2330019   2328317   2326619   2324929  
  6190.000000   2323247   2321570   2319893   2318221   2316560  
  6180.000000   2314925   2313328   2311777   2310270   2308801  
  6170.000000   2307354   2305921   2304494   2303071   2301653  
  6160.000000   2300238   2298822   2297400   2295965   2294517  
  6150.000000   2293057   2291593   2290128   2288666   2287207  
  6140.000000   2285755   2284316   2282905   2281539   2280233  
  6130.000000   2278991   2277805   2276655   2275518   2274376  
  6120.000000   2273229   2272086   2270970   2269899   2268884  
  6110.000000   2267918   2266986   2266068   2265152   2264234  
  6100.000000   2263324   2262430   2261566   2260733   2259935  
  6090.000000   2259170   2258454   2257797   2257226   2256752  
  6080.000000   2256386   2256114   2255919   2255771   2255654  
  6070.000000   2255556   2255487   2255456   2255489   2255594  
  6060.000000   2255789   2256067   2256433   2256872   2257383  
  6050.000000   2257944   2258550   2259185   2259855   2260567  
  6040.000000   2261360   2262265   2263328   2264567   2265988  
  6030.000000   2267557   2269237   2270972   2272730   2274488  
  6020.000000   2276259   2278057   2279914   2281836   2283831  
  6010.000000   2285877   2287957   2290041   2292119   2294178  
  6000.000000   2296225   2298258   2300297   2302349   2304442  
  5990.000000   2306593   2308835   2311188   2313674   2316298  
  5980.000000   2319064   2321959   2324982   2328118   2331368  
  5970.000000   2334716   2338156   2341661   2345213   2348775  
  5960.000000   2352334   2355864   2359369   2362841   2366296  
  5950.000000   2369734   2373171   2376617   2380097   2383634  
  5940.000000   2387261   2391002   2394871   2398866   2402964  
  5930.000000   2407128   2411313   2415476   2419578   2423593  
  5920.000000   2427502   2431294   2434961   2438501   2441909  
  5910.000000   2445188   2448339   2451369   2454285   2457105  
  5900.000000   2459846   2462543   2465222   2467924   2470665  
  5890.000000   2473458   2476284   2479121   2481931   2484688  
  5880.000000   2487372   2489986   2492534   2495028   2497466  
  5870.000000   2499836   2502123   2504309   2506397   2508406  
  5860.000000   2510377   2512357   2514393   2516517   2518746  
  5850.000000   2521079   2523508   2526021   2528611   2531266  
  5840.000000   2533979   2536737   2539529   2542343   2545173  
  5830.000000   2548018   2550879   2553753   2556629   2559490  
  5820.000000   2562315   2565086   2567794   2570443   2573039  
  5810.000000   2575593   2578095   2580538   2582887   2585132  
  5800.000000   2587249   2589265   2591187   2593069   2594912  
  5790.000000   2596738   2598497   2600147   2601585   2602731  
  5780.000000   2603467   2603721   2603420   2602552   2601131  
  5770.000000   2599244   2596998   2594549   2592030   2589570  
  5760.000000   2587232   2585054   2583018   2581109   2579296  
  5750.000000   2577580   2575961   2574456   2573068   2571789  
  5740.000000   2570604   2569488   2568430   2567422   2566473  
  5730.000000   2565582   2564755   2563972   2563223   2562487  
  5720.000000   2561767   2561070   2560421   2559837   2559330  
  5710.000000   2558888   2558497   2558129   2557774   2557430  
  5700.000000   2557113   2556837   2556615   2556443   2556309  
  5690.000000   2556201   2556107   2556034   2555987   2555979  
  5680.000000   2555998   2556029   2556024   2555939   2555717  
  5670.000000   2555323   2554719   2553886   2552800   2551455  
  5660.000000   2549847   2548003   2545965   2543810   2541611  
  5650.000000   2539445   2537354   2535358   2533446   2531601  
  5640.000000   2529807   2528067   2526392   2524800   2523303  
  5630.000000   2521897   2520568   2519292   2518059   2516859  
  5620.000000   2515703   2514597   2513548   2512545   2511578  
  5610.000000   2510627   2509690   2508772   2507890   2507061  
  5600.000000   2506292   2505576   2504890   2504211   2503519  
  5590.000000   2502805   2502073   2501328   2500569   2499785  
  5580.000000   2498959   2498075   2497125   2496120   2495079  
  5570.000000   2494025   2492970   2491920   2490860   2489784  
  5560.000000   2488685   2487572   2486460   2485366   2484296  
  5550.000000   2483241   2482178   2481086   2479951   2478778  
  5540.000000   2477586   2476401   2475244   2474124   2473038  
  5530.000000   2471977   2470934   2469910   2468913   2467946  
  5520.000000   2467006   2466077   2465136   2464160   2463136  
  5510.000000   2462066   2460961   2459837   2458702   2457554  
  5500.000000   2456383   2455187   2453967   2452742   2451532  
  5490.000000   2450357   2449211   2448076   2446912   2445689  
  5480.000000   2444380   2442991   2441535   2440040   2438518  
  5470.000000   2436969   2435374   2433711   2431957   2430110  
  5460.000000   2428171   2426157   2424073   2421927   2419718  
  5450.000000   2417461   2415177   2412909   2410701   2408585  
  5440.000000   2406573   2404651   2402790   2400961   2399153  
  5430.000000   2397366   2395615   2393902   2392226   2390559  
  5420.000000   2388893   2387224   2385599   2384080   2382755  
  5410.000000   2381667   2380829   2380179   2379641   2379120  
  5400.000000   2378581   2378012   2377472   2377018   2376716  
  5390.000000   2376580   2376609   2376759   2377018   2377375  
  5380.000000   2377874   2378546   2379440   2380544   2381844  
  5370.000000   2383268   2384783   2386337   2387956   2389642  
  5360.000000   2391467   2393441   2395628   2398022   2400683  
  5350.000000   2403610   2406885   2410516   2414580   2419055  
  5340.000000   2423982   2429303   2435057   2441192   2447766  
  5330.000000   2454736   2462159   2469972   2478226   2486861  
  5320.000000   2495966   2505531   2515694   2526468   2537985  
  5310.000000   2550208   2563208   2576887   2591285   2606314  
  5300.000000   2622052   2638470   2655701   2673754   2692763  
  5290.000000   2712698   2733612   2755373   2777918   2801046  
  5280.000000   2824686   2848717   2873197   2898164   2923787  
  5270.000000   2950132   2977260   3005052   3033323   3061796  
  5260.000000   3090235   3118488   3146522   3174413   3202245  
  5250.000000   3230093   3257884   3285502   3312683   3339258  
  5240.000000   3365019   3389972   3414096   3437556   3460387  
  5230.000000   3482721   3504482   3525666   3546081   3565677  
  5220.000000   3584295   3601994   3618750   3634747   3650040  
  5210.000000   3664819   3679070   3692860   3706036   3718573  
  5200.000000   3730296   3741239   3751329   3760697   3769329  
  5190.000000   3777346   3784690   3791416   3797433   3802801  
  5180.000000   3807471   3811557   3815045   3818040   3820489  
  5170.000000   3822438   3823807   3824642   3824902   3824683  
  5160.000000   3823986   3822907   3821421   3819576   3817315  
  5150.000000   3814677   3811633   3808252   3804533   3800542  
  5140.000000   3796262   3791725   3786905   3781842   3776546  
  5130.000000   3771095   3765523   3759898   3754223   3748514  
  5120.000000   3742744   3736913   3731010   3725059   3719073  
  5110.000000   3713078   3707070   3701048   3694999   3688924  
  5100.000000   3682838   3676778   3670785   3664894   3659120  
  5090.000000   3653457   3647881   3642365   3636889   3631444  
  5080.000000   3626031   3620655   3615307   3609976   3604638  
  5070.000000   3599275   3593868   3588418   3582921   3577386  
  5060.000000   3571802   3566158   3560431   3554609   3548675  
  5050.000000   3542643   3536516   3530319   3524054   3517731  
  5040.000000   3511337   3504872   3498333   3491732   3485086  
  5030.000000   3478420   3471753   3465100   3458468   3451857  
  5020.000000   3445275   3438729   3432238   3425816   3419490  
  5010.000000   3413264   3407154   3401154   3395276   3389516  
  5000.000000   3383905   3378449   3373192   3368141   3363332  
  4990.000000   3358754   3354423   3350306   3346409   3342693  
  4980.000000   3339174   3335829   3332702   3329796   3327184  
  4970.000000   3324878   3322950   3321390   3320241   3319459  
  4960.000000   3319063   3319002   3319306   3319944   3320971  
  4950.000000   3322368   3324189   3326398   3329027   3332018  
  4940.000000   3335394   3339102   3343178   3347585   3352366  
  4930.000000   3357484   3362973   3368787   3374956   3381437  
  4920.000000   3388267   3395412   3402905   3410710   3418845  
  4910.000000   3427272   3436004   3445014   3454316   3463887  
  4900.000000   3473725   3483788   3494042   3504425   3514885  
  4890.000000   3525370   3535829   3546229   3556523   3566680  
  4880.000000   3576643   3586386   3595850   3605024   3613858  
  4870.000000   3622355   3630460   3638172   3645428   3652228  
  4860.000000   3658523   3664344   3669678   3674591   3679091  
  4850.000000   3683251   3687075   3690625   3693897   3696946  
  4840.000000   3699773   3702438   3704946   3707351   3709654  
  4830.000000   3711890   3714051   3716157   3718195   3720178  
  4820.000000   3722095   3723959   3725770   3727546   3729300  
  4810.000000   3731054   3732822   3734617   3736441   3738291  
  4800.000000   3740159   3742040   3743935   3745850   3747793  
  4790.000000   3749775   3751799   3753862   3755956   3758072  
  4780.000000   3760201   3762340   3764485   3766634   3768773  
  4770.000000   3770890   3772958   3774962   3776879   3778708  
  4760.000000   3780437   3782074   3783606   3785032   3786328  
  4750.000000   3787484   3788476   3789307   3789972   3790490  
  4740.000000   3790870   3791136   3791297   3791377   3791383  
  4730.000000   3791339   3791253   3791143   3791004   3790835  
  4720.000000   3790617   3790335   3789976   3789540   3789041  
  4710.000000   3788503   3787965   3787455   3787006   3786636  
  4700.000000   3786364   3786199   3786159   3786260   3786523  
  4690.000000   3786962   3787588   3788393   3789362   3790459  
  4680.000000   3791647   3792874   3794106   3795296   3796429  
  4670.000000   3797480   3798460   3799371   3800246   3801105  
  4660.000000   3801993   3802939   3803990   3805173   3806524  
  4650.000000   3808058   3809793   3811724   3813850   3816150  
  4640.000000   3818612   3821215   3823942   3826775   3829691  
  4630.000000   3832662   3835649   3838609   3841497   3844277  
  4620.000000   3846915   3849394   3851696   3853810   3855714  
  4610.000000   3857393   3858819   3859993   3860913   3861622  
  4600.000000   3862157   3862594   3862972   3863350   3863729  
  4590.000000   3864118   3864473   3864767   3864942   3864968  
  4580.000000   3864797   3864414   3863795   3862953   3861896  
  4570.000000   3860669   3859307   3857869   3856388   3854899  
  4560.000000   3853404   3851903   3850376   3848817   3847215  
  4550.000000   3845580   3843924   3842263   3840606   3838957  
  4540.000000   3837315   3835676   3834051   3832447   3830891  
  4530.000000   3829395   3827987   3826660   3825428   3824268  
  4520.000000   3823198   3822201   3821320   3820552   3819959  
  4510.000000   3819537   3819356   3819411   3819786   3820491  
  4500.000000   3821632   3823229   3825397   3828140   3831553  
  4490.000000   3835615   3840400   3845872   3852101   3859040  
  4480.000000   3866751   3875172   3884338   3894170   3904687  
  4470.000000   3915802   3927529   3939787   3952580   3965819  
  4460.000000   3979485   3993472   4007733   4022160   4036703  
  4450.000000   4051279   4065866   4080426   4094969   4109497  
  4440.000000   4124026   4138570   4153117   4167666   4182167  
  4430.000000   4196601   4210892   4225017   4238890   4252496  
  4420.000000   4265744   4278633   4291076   4303081   4314561  
  4410.000000   4325519   4335855   4345550   4354493   4362660  
  4400.000000   4369969   4376445   4382082   4386991   4391250  
  4390.000000   4395031   4398448   4401673   4404802   4407959  
  4380.000000   4411192   4414571   4418106   4421836   4425763  
  4370.000000   4429920   4434317   4438981   4443921   4449139  
  4360.000000   4454612   4460309   4466168   4472135   4478123  
  4350.000000   4484084   4489927   4495638   4501154   4506514  
  4340.000000   4511695   4516752   4521630   4526274   4530457  
  4330.000000   4533902   4536196   4536962   4535865   4532791  
  4320.000000   4527839   4521399   4514023   4506393   4499109  
  4310.000000   4492671   4487327   4483152   4480023   4477754  
  4300.000000   4476118   4474941   4474097   4473512   4473156  
  4290.000000   4472993   4473019   4473201   4473549   4474051  
  4280.000000   4474733   4475603   4476664   4477911   4479307  
  4270.000000   4480818   4482370   4483894   4485255   4486304  
  4260.000000   4486821   4486591   4485393   4483094   4479647  
  4250.000000   4475164   4469856   4464049   4458069   4452243  
  4240.000000   4446780   4441820   4437358   4433341   4429638  
  4230.000000   4426135   4422712   4419293   4415832   4412306  
  4220.000000   4408731   4405119   4401527   4397993   4394600  
  4210.000000   4391397   4388459   4385809   4383480   4381445  
  4200.000000   4379686   4378140   4376776   4375534   4374403  
  4190.000000   4373341   4372366   4371448   4370619   4369854  
  4180.000000   4369195   4368626   4368212   4367962   4367971  
  4170.000000   4368277   4368995   4370167   4371893   4374181  
  4160.000000   4377083   4380550   4384585   4389100   4394087  
  4150.000000   4399461   4405241   4411372   4417906   4424810  
  4140.000000   4432153   4439908   4448144   4456825   4466008  
  4130.000000   4475644   4485771   4496330   4507348   4518769  
  4120.000000   4530625   4542879   4555582   4568722   4582360  
  4110.000000   4596490   4611157   4626330   4642005   4658103  
  4100.000000   4674567   4691287   4708194   4725199   4742265  
  4090.000000   4759358   4776476   4793619   4810793   4828011  
  4080.000000   4845271   4862598   4879979   4897432   4914900  
  4070.000000   4932347   4949641   4966697   4983352   4999542  
  4060.000000   5015158   5030217   5044671   5058585   5071915  
  4050.000000   5084729   5096971   5108718   5119917   5130652  
  4040.000000   5140842   5150533   5159593   5168029   5175698  
  4030.000000   5182633   5188734   5194067   5198565   5202283  
  4020.000000   5205128   5207160   5208362   5208835   5208556  
  4010.000000   5207688   5206314   5204468   5201940   5198790  
  4000.000000   5195321  
##END= 
