##TITLE= Sample 058 By ssteindl date Dienstag, November 20 2018
##JCAMP-DX= 4.24
##DATA TYPE= INFRARED SPECTRUM
##ORIGIN= Exported PE Spectrum Data File
##OWNER= Sandra Steindl
##DATE= 18/11/20
##TIME= 13:08:44.00
##SPECTROMETER/DATA SYSTEM= PERKIN-ELMER Frontier FT-IR/NIR IR
##INSTRUMENT PARAMETERS=
  APODIZATION=stark
  DETECTOR=INGAAS
##RESOLUTION= 16.000000
##DELTAX= -2.000000
##XUNITS= 1/CM
##YUNITS= A
##XFACTOR= 1.00
##YFACTOR= 0.00000011920928955078
##FIRSTX= 10000.00
##LASTX= 4000.00
##NPOINTS= 3001
##FIRSTY= 0.217617
##MAXY= 0.669707
##MINY= 0.186575
##XYDATA= (X++(Y..Y))
 10000.000000   1825505   1827433   1829856   1832625   1834071  
  9990.000000   1832162   1826181   1816985   1806164   1795383  
  9980.000000   1786022   1778789   1773482   1769369   1765781  
  9970.000000   1762517   1759812   1758148   1757816   1758654  
  9960.000000   1760019   1761107   1761386   1760854   1760134  
  9950.000000   1760045   1761283   1763890   1767288   1770396  
  9940.000000   1772167   1771960   1769856   1766525   1763006  
  9930.000000   1760211   1758696   1758512   1759331   1760706  
  9920.000000   1762193   1763570   1764705   1765671   1766583  
  9910.000000   1767746   1769531   1772358   1776458   1781628  
  9900.000000   1787127   1791642   1793676   1791939   1785899  
  9890.000000   1776056   1763906   1751592   1741219   1734343  
  9880.000000   1731522   1732400   1735900   1740693   1745512  
  9870.000000   1749381   1751673   1752061   1750488   1747124  
  9860.000000   1742431   1737086   1731988   1727991   1725785  
  9850.000000   1725656   1727459   1730700   1734661   1738649  
  9840.000000   1742050   1744446   1745596   1745392   1743924  
  9830.000000   1741392   1738181   1734698   1731344   1728328  
  9820.000000   1725699   1723363   1721261   1719524   1718472  
  9810.000000   1718588   1720166   1723190   1727127   1731129  
  9800.000000   1734312   1736130   1736639   1736399   1736217  
  9790.000000   1736629   1737636   1738565   1738464   1736512  
  9780.000000   1732558   1727258   1721864   1717767   1715853  
  9770.000000   1716280   1718401   1721265   1724020   1726363  
  9760.000000   1728509   1730942   1733933   1737220   1739976  
  9750.000000   1741128   1739874   1736077   1730435   1724180  
  9740.000000   1718628   1714639   1712350   1711253   1710513  
  9730.000000   1709449   1707784   1705714   1703666   1702014  
  9720.000000   1700857   1700013   1699196   1698225   1697196  
  9710.000000   1696398   1696185   1696667   1697672   1698731  
  9700.000000   1699390   1699387   1698860   1698233   1698016  
  9690.000000   1698514   1699651   1701034   1702154   1702726  
  9680.000000   1702876   1703127   1704160   1706445   1709942  
  9670.000000   1714035   1717676   1719781   1719598   1717002  
  9660.000000   1712558   1707334   1702571   1699305   1698057  
  9650.000000   1698739   1700678   1702896   1704384   1704451  
  9640.000000   1702890   1700050   1696659   1693615   1691633  
  9630.000000   1691060   1691742   1693131   1694503   1695239  
  9620.000000   1695031   1693950   1692326   1690552   1688876  
  9610.000000   1687302   1685637   1683610   1681062   1678015  
  9600.000000   1674686   1671375   1668344   1665764   1663694  
  9590.000000   1662200   1661354   1661289   1662048   1663513  
  9580.000000   1665313   1666884   1667675   1667319   1665848  
  9570.000000   1663610   1661164   1658945   1657113   1655437  
  9560.000000   1653505   1650955   1647772   1644387   1641555  
  9550.000000   1640062   1640368   1642406   1645590   1649058  
  9540.000000   1651999   1653930   1654794   1654871   1654570  
  9530.000000   1654227   1654010   1653951   1654065   1654413  
  9520.000000   1655113   1656191   1657474   1658509   1658684  
  9510.000000   1657459   1654608   1650406   1645546   1640964  
  9500.000000   1637496   1635651   1635470   1636622   1638565  
  9490.000000   1640776   1642858   1644553   1645682   1646064  
  9480.000000   1645545   1644053   1641726   1638929   1636216  
  9470.000000   1634134   1633045   1632985   1633677   1634698  
  9460.000000   1635666   1636418   1636992   1637553   1638190  
  9450.000000   1638828   1639198   1638979   1637982   1636286  
  9440.000000   1634279   1632497   1631416   1631214   1631692  
  9430.000000   1632366   1632668   1632199   1630847   1628818  
  9420.000000   1626511   1624364   1622712   1621722   1621398  
  9410.000000   1621642   1622301   1623178   1624057   1624685  
  9400.000000   1624854   1624440   1623491   1622214   1620923  
  9390.000000   1619905   1619307   1619088   1619052   1618990  
  9380.000000   1618781   1618512   1618397   1618721   1619629  
  9370.000000   1621045   1622660   1624008   1624696   1624449  
  9360.000000   1623266   1621262   1618664   1615637   1612313  
  9350.000000   1608834   1605440   1602566   1600737   1600503  
  9340.000000   1602193   1605852   1611130   1617389   1623774  
  9330.000000   1629423   1633607   1635832   1635933   1634005  
  9320.000000   1630478   1625975   1621293   1617166   1614115  
  9310.000000   1612278   1611397   1610970   1610437   1609484  
  9300.000000   1608098   1606676   1605732   1605746   1606826  
  9290.000000   1608699   1610814   1612583   1613686   1614127  
  9280.000000   1614212   1614254   1614357   1614289   1613576  
  9270.000000   1611748   1608629   1604524   1600198   1596610  
  9260.000000   1594530   1594233   1595358   1597103   1598505  
  9250.000000   1598838   1597830   1595743   1593230   1591011  
  9240.000000   1589634   1589269   1589799   1590841   1591955  
  9230.000000   1592694   1592775   1592080   1590712   1588954  
  9220.000000   1587228   1586068   1585983   1587323   1590117  
  9210.000000   1594041   1598512   1602856   1606486   1609053  
  9200.000000   1610464   1610871   1610517   1609655   1608465  
  9190.000000   1607091   1605696   1604466   1603571   1603071  
  9180.000000   1602848   1602598   1601896   1600349   1597764  
  9170.000000   1594284   1590369   1586651   1583704   1581891  
  9160.000000   1581294   1581783   1583083   1584937   1587140  
  9150.000000   1589566   1592084   1594500   1596577   1598063  
  9140.000000   1598820   1598827   1598206   1597103   1595645  
  9130.000000   1593867   1591764   1589382   1586897   1584686  
  9120.000000   1583191   1582785   1583533   1585155   1587065  
  9110.000000   1588569   1589111   1588472   1586861   1584779  
  9100.000000   1582800   1581328   1580485   1580145   1580051  
  9090.000000   1580011   1579989   1580131   1580651   1581659  
  9080.000000   1583065   1584552   1585710   1586126   1585550  
  9070.000000   1583926   1581458   1578493   1575464   1572811  
  9060.000000   1570947   1570234   1570874   1572889   1576020  
  9050.000000   1579797   1583595   1586807   1589003   1590029  
  9040.000000   1590045   1589380   1588409   1587370   1586343  
  9030.000000   1585245   1583970   1582504   1580998   1579738  
  9020.000000   1579005   1578984   1579638   1580749   1581930  
  9010.000000   1582811   1583120   1582778   1581881   1580664  
  9000.000000   1579450   1578551   1578217   1578555   1579512  
  8990.000000   1580827   1582080   1582771   1582482   1581035  
  8980.000000   1578580   1575600   1572745   1570661   1569749  
  8970.000000   1570056   1571276   1572890   1574381   1575383  
  8960.000000   1575765   1575575   1574950   1573988   1572719  
  8950.000000   1571141   1569335   1567506   1565981   1565105  
  8940.000000   1565108   1565986   1567482   1569191   1570722  
  8930.000000   1571846   1572548   1572968   1573306   1573657  
  8920.000000   1573988   1574140   1573985   1573517   1572915  
  8910.000000   1572485   1572531   1573224   1574506   1576134  
  8900.000000   1577773   1579161   1580198   1580949   1581563  
  8890.000000   1582143   1582698   1583114   1583259   1583069  
  8880.000000   1582635   1582183   1581980   1582223   1582948  
  8870.000000   1584042   1585296   1586548   1587744   1588962  
  8860.000000   1590333   1591925   1593668   1595326   1596589  
  8850.000000   1597170   1596954   1596027   1594681   1593284  
  8840.000000   1592189   1591623   1591666   1592270   1593287  
  8830.000000   1594548   1595877   1597145   1598262   1599210  
  8820.000000   1600055   1600930   1602001   1603376   1605055  
  8810.000000   1606867   1608530   1609717   1610213   1609999  
  8800.000000   1609309   1608548   1608165   1608481   1609588  
  8790.000000   1611327   1613364   1615327   1616933   1618080  
  8780.000000   1618833   1619384   1619953   1620731   1621828  
  8770.000000   1623284   1625063   1627071   1629152   1631095  
  8760.000000   1632665   1633672   1634022   1633784   1633158  
  8750.000000   1632433   1631871   1631623   1631676   1631878  
  8740.000000   1632033   1631977   1631664   1631158   1630591  
  8730.000000   1630080   1629682   1629387   1629181   1629093  
  8720.000000   1629255   1629841   1631025   1632843   1635183  
  8710.000000   1637758   1640237   1642328   1643921   1645092  
  8700.000000   1646086   1647193   1648658   1650606   1653039  
  8690.000000   1655869   1658979   1662247   1665555   1668763  
  8680.000000   1671705   1674188   1676059   1677261   1677888  
  8670.000000   1678159   1678360   1678745   1679454   1680513  
  8660.000000   1681837   1683348   1684997   1686839   1688950  
  8650.000000   1691379   1694055   1696750   1699167   1700985  
  8640.000000   1702026   1702250   1701819   1700991   1700072  
  8630.000000   1699336   1699002   1699291   1700414   1702602  
  8620.000000   1705988   1710571   1716094   1722071   1727819  
  8610.000000   1732645   1736035   1737772   1738009   1737160  
  8600.000000   1735804   1734450   1733450   1732913   1732775  
  8590.000000   1732887   1733094   1733338   1733635   1734112  
  8580.000000   1734885   1736090   1737785   1739973   1742560  
  8570.000000   1745372   1748193   1750762   1752869   1754365  
  8560.000000   1755262   1755676   1755824   1755915   1756108  
  8550.000000   1756446   1756873   1757301   1757690   1758115  
  8540.000000   1758743   1759800   1761451   1763729   1766469  
  8530.000000   1769368   1772070   1774289   1775893   1776925  
  8520.000000   1777565   1778036   1778522   1779101   1779767  
  8510.000000   1780444   1781077   1781630   1782117   1782559  
  8500.000000   1782972   1783350   1783677   1783977   1784343  
  8490.000000   1784947   1785991   1787650   1789993   1792939  
  8480.000000   1796254   1799617   1802714   1805317   1807335  
  8470.000000   1808808   1809870   1810674   1811333   1811895  
  8460.000000   1812358   1812715   1812986   1813244   1813588  
  8450.000000   1814123   1814897   1815888   1816978   1818010  
  8440.000000   1818826   1819326   1819499   1819425   1819264  
  8430.000000   1819195   1819376   1819898   1820774   1821944  
  8420.000000   1823299   1824723   1826124   1827459   1828731  
  8410.000000   1829984   1831271   1832628   1834048   1835478  
  8400.000000   1836842   1838054   1839057   1839837   1840432  
  8390.000000   1840917   1841363   1841834   1842342   1842883  
  8380.000000   1843425   1843962   1844501   1845093   1845769  
  8370.000000   1846548   1847367   1848124   1848665   1848874  
  8360.000000   1848687   1848144   1847364   1846501   1845667  
  8350.000000   1844893   1844105   1843165   1841939   1840370  
  8340.000000   1838530   1836603   1834829   1833419   1832483  
  8330.000000   1831986   1831788   1831688   1831535   1831263  
  8320.000000   1830929   1830659   1830598   1830858   1831484  
  8310.000000   1832469   1833775   1835361   1837198   1839230  
  8300.000000   1841352   1843361   1844979   1845909   1845930  
  8290.000000   1844984   1843211   1840938   1838588   1836589  
  8280.000000   1835235   1834644   1834721   1835235   1835883  
  8270.000000   1836382   1836504   1836115   1835159   1833671  
  8260.000000   1831763   1829612   1827456   1825556   1824158  
  8250.000000   1823428   1823396   1823945   1824825   1825746  
  8240.000000   1826443   1826764   1826689   1826311   1825790  
  8230.000000   1825264   1824809   1824408   1823988   1823467  
  8220.000000   1822808   1822049   1821284   1820648   1820229  
  8210.000000   1820068   1820100   1820209   1820233   1820043  
  8200.000000   1819552   1818747   1817665   1816375   1814942  
  8190.000000   1813412   1811800   1810100   1808306   1806420  
  8180.000000   1804467   1802488   1800532   1798651   1796882  
  8170.000000   1795257   1793790   1792493   1791362   1790391  
  8160.000000   1789553   1788818   1788146   1787500   1786859  
  8150.000000   1786213   1785575   1784952   1784347   1783728  
  8140.000000   1783040   1782201   1781143   1779833   1778296  
  8130.000000   1776624   1774947   1773414   1772145   1771207  
  8120.000000   1770590   1770221   1769970   1769688   1769234  
  8110.000000   1768501   1767435   1766046   1764410   1762650  
  8100.000000   1760920   1759367   1758098   1757152   1756482  
  8090.000000   1755982   1755514   1754964   1754277   1753474  
  8080.000000   1752628   1751827   1751117   1750473   1749808  
  8070.000000   1748994   1747942   1746620   1745102   1743524  
  8060.000000   1742043   1740770   1739726   1738840   1737982  
  8050.000000   1737035   1735951   1734783   1733672   1732785  
  8040.000000   1732253   1732106   1732266   1732557   1732780  
  8030.000000   1732760   1732411   1731738   1730828   1729803  
  8020.000000   1728782   1727846   1727037   1726367   1725834  
  8010.000000   1725433   1725161   1725004   1724921   1724846  
  8000.000000   1724682   1724337   1723736   1722866   1721777  
  7990.000000   1720589   1719467   1718570   1718013   1717816  
  7980.000000   1717898   1718078   1718133   1717848   1717100  
  7970.000000   1715886   1714339   1712693   1711209   1710116  
  7960.000000   1709537   1709482   1709852   1710492   1711234  
  7950.000000   1711943   1712528   1712935   1713126   1713066  
  7940.000000   1712723   1712083   1711183   1710106   1708990  
  7930.000000   1707980   1707199   1706693   1706432   1706315  
  7920.000000   1706210   1706009   1705650   1705152   1704590  
  7910.000000   1704074   1703713   1703585   1703727   1704115  
  7900.000000   1704683   1705312   1705866   1706195   1706182  
  7890.000000   1705764   1704964   1703896   1702747   1701729  
  7880.000000   1701031   1700763   1700932   1701452   1702173  
  7870.000000   1702944   1703641   1704205   1704629   1704934  
  7860.000000   1705147   1705264   1705270   1705124   1704806  
  7850.000000   1704309   1703664   1702928   1702172   1701486  
  7840.000000   1700946   1700641   1700627   1700944   1701573  
  7830.000000   1702444   1703420   1704331   1705000   1705295  
  7820.000000   1705159   1704621   1703783   1702787   1701766  
  7810.000000   1700819   1699989   1699288   1698694   1698193  
  7800.000000   1697769   1697414   1697097   1696771   1696361  
  7790.000000   1695789   1694993   1693952   1692701   1691324  
  7780.000000   1689943   1688686   1687664   1686945   1686548  
  7770.000000   1686438   1686532   1686712   1686843   1686798  
  7760.000000   1686480   1685847   1684926   1683799   1682602  
  7750.000000   1681468   1680514   1679792   1679294   1678955  
  7740.000000   1678673   1678353   1677925   1677373   1676727  
  7730.000000   1676064   1675473   1675032   1674783   1674713  
  7720.000000   1674755   1674798   1674726   1674447   1673932  
  7710.000000   1673218   1672406   1671621   1670969   1670500  
  7700.000000   1670188   1669947   1669667   1669259   1668700  
  7690.000000   1668042   1667396   1666885   1666592   1666525  
  7680.000000   1666609   1666713   1666700   1666475   1666023  
  7670.000000   1665406   1664743   1664162   1663768   1663599  
  7660.000000   1663628   1663767   1663902   1663921   1663754  
  7650.000000   1663384   1662856   1662260   1661710   1661307  
  7640.000000   1661121   1661166   1661404   1661762   1662155  
  7630.000000   1662519   1662828   1663103   1663392   1663749  
  7620.000000   1664208   1664767   1665388   1666003   1666540  
  7610.000000   1666926   1667116   1667081   1666828   1666385  
  7600.000000   1665818   1665209   1664665   1664292   1664181  
  7590.000000   1664387   1664920   1665750   1666811   1668029  
  7580.000000   1669334   1670671   1671998   1673270   1674451  
  7570.000000   1675495   1676378   1677082   1677631   1678052  
  7560.000000   1678391   1678673   1678912   1679111   1679282  
  7550.000000   1679472   1679764   1680266   1681072   1682219  
  7540.000000   1683667   1685289   1686913   1688363   1689530  
  7530.000000   1690386   1691012   1691547   1692153   1692954  
  7520.000000   1694031   1695399   1697036   1698880   1700862  
  7510.000000   1702889   1704867   1706687   1708267   1709557  
  7500.000000   1710590   1711463   1712342   1713401   1714781  
  7490.000000   1716547   1718689   1721124   1723739   1726420  
  7480.000000   1729082   1731668   1734149   1736489   1738666  
  7470.000000   1740648   1742440   1744069   1745612   1747157  
  7460.000000   1748807   1750640   1752713   1755052   1757660  
  7450.000000   1760519   1763590   1766801   1770044   1773181  
  7440.000000   1776083   1778655   1780895   1782882   1784767  
  7430.000000   1786715   1788856   1791234   1793804   1796459  
  7420.000000   1799087   1801630   1804097   1806559   1809097  
  7410.000000   1811764   1814539   1817346   1820080   1822660  
  7400.000000   1825075   1827377   1829668   1832043   1834557  
  7390.000000   1837200   1839905   1842584   1845161   1847597  
  7380.000000   1849893   1852076   1854182   1856240   1858271  
  7370.000000   1860299   1862354   1864474   1866692   1869016  
  7360.000000   1871427   1873873   1876294   1878643   1880903  
  7350.000000   1883097   1885271   1887473   1889733   1892054  
  7340.000000   1894421   1896814   1899225   1901655   1904102  
  7330.000000   1906553   1908973   1911318   1913550   1915668  
  7320.000000   1917705   1919733   1921818   1924001   1926256  
  7310.000000   1928510   1930651   1932593   1934293   1935790  
  7300.000000   1937172   1938550   1940005   1941561   1943170  
  7290.000000   1944746   1946187   1947424   1948434   1949250  
  7280.000000   1949936   1950582   1951273   1952086   1953070  
  7270.000000   1954252   1955628   1957165   1958805   1960466  
  7260.000000   1962079   1963581   1964950   1966179   1967301  
  7250.000000   1968342   1969348   1970342   1971372   1972476  
  7240.000000   1973729   1975191   1976929   1978956   1981260  
  7230.000000   1983765   1986390   1989041   1991678   1994287  
  7220.000000   1996918   1999625   2002488   2005547   2008842  
  7210.000000   2012359   2016087   2019962   2023926   2027881  
  7200.000000   2031755   2035467   2039006   2042394   2045739  
  7190.000000   2049163   2052817   2056789   2061120   2065753  
  7180.000000   2070595   2075520   2080450   2085344   2090235  
  7170.000000   2095169   2100217   2105401   2110732   2116167  
  7160.000000   2121681   2127227   2132807   2138411   2144067  
  7150.000000   2149776   2155569   2161453   2167471   2173645  
  7140.000000   2180013   2186571   2193312   2200188   2207170  
  7130.000000   2214229   2221393   2228695   2236199   2243914  
  7120.000000   2251821   2259813   2267772   2275558   2283113  
  7110.000000   2290432   2297616   2304792   2312110   2319663  
  7100.000000   2327503   2335611   2343953   2352473   2361143  
  7090.000000   2369936   2378838   2387815   2396822   2405796  
  7080.000000   2414689   2423461   2432114   2440664   2449152  
  7070.000000   2457599   2466028   2474435   2482813   2491154  
  7060.000000   2499456   2507724   2515962   2524178   2532377  
  7050.000000   2540574   2548782   2557028   2565323   2573670  
  7040.000000   2582036   2590373   2598615   2606710   2614622  
  7030.000000   2622351   2629914   2637341   2644648   2651852  
  7020.000000   2658953   2665974   2672944   2679925   2686960  
  7010.000000   2694091   2701292   2708514   2715657   2722641  
  7000.000000   2729400   2735934   2742268   2748464   2754554  
  6990.000000   2760555   2766431   2772145   2777645   2782933  
  6980.000000   2788023   2792982   2797862   2802730   2807599  
  6970.000000   2812487   2817355   2822178   2826889   2831436  
  6960.000000   2835744   2839765   2843465   2846865   2850017  
  6950.000000   2853021   2855964   2858922   2861903   2864884  
  6940.000000   2867801   2870621   2873331   2875991   2878676  
  6930.000000   2881480   2884439   2887543   2890699   2893790  
  6920.000000   2896688   2899303   2901591   2903568   2905286  
  6910.000000   2906829   2908278   2909726   2911244   2912896  
  6900.000000   2914697   2916626   2918611   2920559   2922370  
  6890.000000   2923987   2925401   2926668   2927871   2929097  
  6880.000000   2930393   2931771   2933201   2934653   2936111  
  6870.000000   2937592   2939131   2940758   2942465   2944205  
  6860.000000   2945896   2947452   2948818   2949987   2951000  
  6850.000000   2951926   2952829   2953753   2954711   2955707  
  6840.000000   2956745   2957846   2959034   2960324   2961693  
  6830.000000   2963083   2964398   2965550   2966478   2967184  
  6820.000000   2967715   2968157   2968585   2969052   2969559  
  6810.000000   2970087   2970599   2971080   2971526   2971959  
  6800.000000   2972389   2972818   2973221   2973571   2973833  
  6790.000000   2974003   2974086   2974108   2974089   2974046  
  6780.000000   2973978   2973887   2973774   2973654   2973539  
  6770.000000   2973437   2973329   2973181   2972946   2972597  
  6760.000000   2972135   2971604   2971072   2970609   2970251  
  6750.000000   2969992   2969780   2969540   2969206   2968740  
  6740.000000   2968143   2967443   2966674   2965864   2965024  
  6730.000000   2964157   2963266   2962372   2961505   2960705  
  6720.000000   2959993   2959375   2958827   2958317   2957805  
  6710.000000   2957267   2956683   2956050   2955351   2954577  
  6700.000000   2953712   2952756   2951729   2950675   2949640  
  6690.000000   2948661   2947733   2946817   2945833   2944707  
  6680.000000   2943382   2941859   2940180   2938435   2936715  
  6670.000000   2935097   2933613   2932264   2931009   2929798  
  6660.000000   2928573   2927288   2925906   2924410   2922798  
  6650.000000   2921092   2919329   2917556   2915811   2914111  
  6640.000000   2912444   2910778   2909071   2907300   2905465  
  6630.000000   2903604   2901762   2899981   2898273   2896619  
  6620.000000   2894969   2893276   2891505   2889655   2887749  
  6610.000000   2885829   2883924   2882052   2880205   2878372  
  6600.000000   2876540   2874706   2872873   2871037   2869183  
  6590.000000   2867286   2865319   2863274   2861170   2859063  
  6580.000000   2857017   2855092   2853313   2851661   2850081  
  6570.000000   2848504   2846876   2845167   2843388   2841565  
  6560.000000   2839737   2837929   2836160   2834440   2832788  
  6550.000000   2831225   2829775   2828446   2827222   2826055  
  6540.000000   2824885   2823651   2822328   2820924   2819485  
  6530.000000   2818068   2816723   2815464   2814281   2813136  
  6520.000000   2811999   2810848   2809690   2808539   2807415  
  6510.000000   2806326   2805268   2804234   2803223   2802251  
  6500.000000   2801342   2800519   2799782   2799105   2798432  
  6490.000000   2797697   2796850   2795871   2794780   2793626  
  6480.000000   2792470   2791357   2790308   2789316   2788351  
  6470.000000   2787384   2786390   2785359   2784292   2783203  
  6460.000000   2782102   2781006   2779928   2778879   2777868  
  6450.000000   2776889   2775930   2774961   2773955   2772884  
  6440.000000   2771742   2770541   2769311   2768089   2766910  
  6430.000000   2765800   2764773   2763833   2762985   2762224  
  6420.000000   2761546   2760934   2760363   2759795   2759196  
  6410.000000   2758541   2757826   2757066   2756292   2755531  
  6400.000000   2754807   2754125   2753484   2752881   2752319  
  6390.000000   2751807   2751355   2750963   2750613   2750273  
  6380.000000   2749901   2749465   2748952   2748372   2747757  
  6370.000000   2747139   2746543   2745972   2745415   2744853  
  6360.000000   2744272   2743672   2743059   2742447   2741838  
  6350.000000   2741231   2740617   2739993   2739363   2738748  
  6340.000000   2738168   2737642   2737166   2736717   2736257  
  6330.000000   2735749   2735157   2734469   2733680   2732796  
  6320.000000   2731820   2730757   2729612   2728405   2727165  
  6310.000000   2725934   2724737   2723588   2722455   2721292  
  6300.000000   2720031   2718630   2717073   2715396   2713649  
  6290.000000   2711898   2710171   2708475   2706773   2705027  
  6280.000000   2703202   2701302   2699349   2697391   2695458  
  6270.000000   2693571   2691711   2689852   2687960   2686020  
  6260.000000   2684028   2681999   2679940   2677846   2675692  
  6250.000000   2673450   2671089   2668608   2666024   2663384  
  6240.000000   2660741   2658145   2655626   2653202   2650865  
  6230.000000   2648600   2646382   2644183   2641971   2639721  
  6220.000000   2637410   2635034   2632605   2630154   2627719  
  6210.000000   2625331   2623007   2620739   2618506   2616276  
  6200.000000   2614030   2611764   2609489   2607228   2604998  
  6190.000000   2602806   2600644   2598496   2596346   2594187  
  6180.000000   2592022   2589860   2587708   2585569   2583436  
  6170.000000   2581303   2579165   2577032   2574921   2572855  
  6160.000000   2570853   2568919   2567041   2565192   2563341  
  6150.000000   2561452   2559505   2557487   2555403   2553267  
  6140.000000   2551108   2548956   2546853   2544831   2542919  
  6130.000000   2541125   2539444   2537845   2536295   2534754  
  6120.000000   2533197   2531614   2530018   2528429   2526881  
  6110.000000   2525398   2524003   2522696   2521478   2520329  
  6100.000000   2519233   2518167   2517120   2516079   2515052  
  6090.000000   2514045   2513074   2512149   2511277   2510454  
  6080.000000   2509678   2508944   2508263   2507650   2507135  
  6070.000000   2506730   2506448   2506264   2506146   2506039  
  6060.000000   2505908   2505722   2505495   2505250   2505041  
  6050.000000   2504907   2504897   2505028   2505320   2505774  
  6040.000000   2506397   2507178   2508115   2509179   2510346  
  6030.000000   2511580   2512860   2514172   2515528   2516940  
  6020.000000   2518429   2519992   2521614   2523251   2524867  
  6010.000000   2526423   2527910   2529333   2530728   2532121  
  6000.000000   2533546   2535009   2536516   2538054   2539625  
  5990.000000   2541224   2542868   2544567   2546342   2548207  
  5980.000000   2550184   2552284   2554531   2556931   2559489  
  5970.000000   2562180   2564975   2567820   2570676   2573503  
  5960.000000   2576297   2579060   2581819   2584589   2587387  
  5950.000000   2590210   2593060   2595932   2598842   2601809  
  5940.000000   2604857   2607996   2611221   2614503   2617799  
  5930.000000   2621067   2624274   2627406   2630468   2633470  
  5920.000000   2636425   2639336   2642202   2645018   2647783  
  5910.000000   2650499   2653172   2655800   2658374   2660884  
  5900.000000   2663318   2665683   2668001   2670317   2672679  
  5890.000000   2675128   2677681   2680326   2683026   2685738  
  5880.000000   2688421   2691048   2693611   2696104   2698531  
  5870.000000   2700879   2703142   2705313   2707407   2709450  
  5860.000000   2711493   2713583   2715767   2718067   2720495  
  5850.000000   2723042   2725702   2728469   2731344   2734325  
  5840.000000   2737408   2740579   2743816   2747095   2750394  
  5830.000000   2753700   2757003   2760291   2763539   2766717  
  5820.000000   2769780   2772697   2775441   2778018   2780438  
  5810.000000   2782739   2784936   2787058   2789097   2791068  
  5800.000000   2792950   2794760   2796477   2798111   2799626  
  5790.000000   2801012   2802218   2803230   2804016   2804580  
  5780.000000   2804908   2805002   2804834   2804388   2803632  
  5770.000000   2802574   2801240   2799709   2798067   2796423  
  5760.000000   2794849   2793401   2792092   2790922   2789879  
  5750.000000   2788966   2788188   2787550   2787049   2786657  
  5740.000000   2786336   2786035   2785725   2785389   2785048  
  5730.000000   2784724   2784458   2784266   2784159   2784121  
  5720.000000   2784139   2784191   2784272   2784376   2784508  
  5710.000000   2784666   2784857   2785086   2785366   2785715  
  5700.000000   2786150   2786679   2787294   2787968   2788664  
  5690.000000   2789345   2789984   2790574   2791121   2791637  
  5680.000000   2792125   2792577   2792967   2793268   2793447  
  5670.000000   2793492   2793392   2793153   2792770   2792249  
  5660.000000   2791586   2790800   2789912   2788971   2788022  
  5650.000000   2787117   2786275   2785499   2784764   2784040  
  5640.000000   2783300   2782539   2781763   2780992   2780245  
  5630.000000   2779528   2778839   2778167   2777503   2776846  
  5620.000000   2776199   2775565   2774944   2774323   2773688  
  5610.000000   2773029   2772347   2771661   2770996   2770375  
  5600.000000   2769803   2769263   2768717   2768128   2767463  
  5590.000000   2766717   2765899   2765035   2764143   2763233  
  5580.000000   2762295   2761316   2760281   2759192   2758061  
  5570.000000   2756914   2755768   2754638   2753521   2752411  
  5560.000000   2751297   2750176   2749047   2747911   2746764  
  5550.000000   2745598   2744403   2743173   2741915   2740648  
  5540.000000   2739400   2738195   2737046   2735947   2734885  
  5530.000000   2733846   2732823   2731825   2730865   2729953  
  5520.000000   2729081   2728220   2727330   2726373   2725326  
  5510.000000   2724199   2723019   2721830   2720664   2719541  
  5500.000000   2718451   2717380   2716297   2715190   2714041  
  5490.000000   2712846   2711588   2710251   2708806   2707244  
  5480.000000   2705562   2703791   2701970   2700149   2698353  
  5470.000000   2696590   2694836   2693062   2691232   2689337  
  5460.000000   2687376   2685367   2683317   2681230   2679095  
  5450.000000   2676903   2674652   2672360   2670061   2667793  
  5440.000000   2665588   2663455   2661389   2659368   2657381  
  5430.000000   2655418   2653490   2651605   2649780   2648011  
  5420.000000   2646313   2644686   2643164   2641776   2640570  
  5410.000000   2639559   2638751   2638104   2637586   2637144  
  5400.000000   2636774   2636474   2636287   2636232   2636345  
  5390.000000   2636607   2637019   2637545   2638201   2638990  
  5380.000000   2639971   2641163   2642606   2644269   2646140  
  5370.000000   2648151   2650297   2652538   2654919   2657438  
  5360.000000   2660162   2663081   2666255   2669666   2673391  
  5350.000000   2677438   2681911   2686823   2692263   2698198  
  5340.000000   2704676   2711632   2719120   2727090   2735615  
  5330.000000   2744644   2754234   2764297   2774876   2785890  
  5320.000000   2797433   2809493   2822235   2835676   2849976  
  5310.000000   2865096   2881121   2897942   2915604   2934008  
  5300.000000   2953243   2973273   2994241   3016149   3039139  
  5290.000000   3063169   3088290   3114354   3141291   3168888  
  5280.000000   3197065   3225691   3254818   3284476   3314817  
  5270.000000   3345895   3377743   3410231   3443153   3476239  
  5260.000000   3509246   3542040   3574572   3606915   3639102  
  5250.000000   3671173   3702989   3734408   3765132   3795017  
  5240.000000   3823870   3851754   3878668   3904816   3930221  
  5230.000000   3955022   3979108   4002479   4024922   4046415  
  5220.000000   4066799   4086172   4104507   4122012   4138715  
  5210.000000   4154803   4170219   4185023   4199034   4212239  
  5200.000000   4224466   4235784   4246141   4255707   4264479  
  5190.000000   4272597   4279989   4286705   4292624   4297793  
  5180.000000   4302145   4305797   4308739   4311099   4312841  
  5170.000000   4314043   4314635   4314683   4314151   4313143  
  5160.000000   4311655   4309785   4307498   4304837   4301734  
  5150.000000   4298220   4294257   4289920   4285216   4280231  
  5140.000000   4274965   4269473   4263733   4257782   4251611  
  5130.000000   4245276   4238784   4232186   4225479   4218682  
  5120.000000   4211775   4204768   4197654   4190463   4183208  
  5110.000000   4175925   4168623   4161328   4154045   4146798  
  5100.000000   4139603   4132487   4125460   4118529   4111674  
  5090.000000   4104872   4098089   4091309   4084515   4077715  
  5080.000000   4070910   4064106   4057288   4050443   4043537  
  5070.000000   4036558   4029484   4022325   4015080   4007767  
  5060.000000   4000384   3992942   3985429   3977851   3970196  
  5050.000000   3962476   3954681   3946820   3938881   3930871  
  5040.000000   3922787   3914645   3906458   3898251   3890037  
  5030.000000   3881829   3873619   3865402   3857171   3848928  
  5020.000000   3840693   3832491   3824360   3816321   3808395  
  5010.000000   3800577   3792870   3785256   3777752   3770361  
  5000.000000   3763128   3756074   3749251   3742662   3736341  
  4990.000000   3730270   3724471   3718925   3713669   3708689  
  4980.000000   3704033   3699682   3695671   3691965   3688589  
  4970.000000   3685501   3682732   3680253   3678111   3676286  
  4960.000000   3674830   3673717   3672991   3672614   3672621  
  4950.000000   3672965   3673675   3674703   3676078   3677759  
  4940.000000   3679787   3682135   3684858   3687938   3691428  
  4930.000000   3695299   3699586   3704235   3709260   3714593  
  4920.000000   3720238   3726134   3732292   3738670   3745296  
  4910.000000   3752151   3759280   3766674   3774372   3782355  
  4900.000000   3790633   3799164   3807928   3816878   3825993  
  4890.000000   3835238   3844601   3854055   3863575   3873120  
  4880.000000   3882638   3892078   3901380   3910505   3919413  
  4870.000000   3928090   3936512   3944680   3952580   3960226  
  4860.000000   3967611   3974764   3981690   3988426   3994974  
  4850.000000   4001367   4007596   4013689   4019637   4025471  
  4840.000000   4031189   4036824   4042370   4047849   4053240  
  4830.000000   4058554   4063759   4068860   4073825   4078653  
  4820.000000   4083313   4087801   4092088   4096175   4100049  
  4810.000000   4103727   4107215   4110547   4113737   4116824  
  4800.000000   4119822   4122767   4125664   4128534   4131368  
  4790.000000   4134167   4136904   4139575   4142158   4144669  
  4780.000000   4147113   4149530   4151935   4154356   4156779  
  4770.000000   4159191   4161541   4163791   4165885   4167800  
  4760.000000   4169506   4171012   4172313   4173434   4174377  
  4750.000000   4175170   4175809   4176317   4176678   4176904  
  4740.000000   4176965   4176862   4176569   4176097   4175438  
  4730.000000   4174624   4173664   4172592   4171407   4170123  
  4720.000000   4168719   4167193   4165530   4163740   4161831  
  4710.000000   4159836   4157777   4155690   4153592   4151504  
  4700.000000   4149435   4147399   4145403   4143463   4141585  
  4690.000000   4139778   4138041   4136366   4134739   4133139  
  4680.000000   4131550   4129946   4128314   4126634   4124898  
  4670.000000   4123093   4121227   4119304   4117352   4115400  
  4660.000000   4113498   4111686   4110017   4108522   4107229  
  4650.000000   4106136   4105241   4104516   4103940   4103484  
  4640.000000   4103138   4102890   4102751   4102721   4102810  
  4630.000000   4103007   4103298   4103646   4104015   4104362  
  4620.000000   4104660   4104887   4105044   4105140   4105194  
  4610.000000   4105223   4105244   4105269   4105304   4105358  
  4600.000000   4105435   4105544   4105685   4105863   4106069  
  4590.000000   4106297   4106526   4106744   4106929   4107067  
  4580.000000   4107141   4107143   4107063   4106901   4106654  
  4570.000000   4106334   4105945   4105500   4105003   4104463  
  4560.000000   4103874   4103238   4102547   4101805   4101008  
  4550.000000   4100161   4099265   4098321   4097331   4096297  
  4540.000000   4095229   4094139   4093054   4091992   4090986  
  4530.000000   4090042   4089182   4088393   4087697   4087079  
  4520.000000   4086579   4086197   4085999   4085991   4086250  
  4510.000000   4086776   4087648   4088863   4090510   4092593  
  4500.000000   4095213   4098375   4102178   4106618   4111780  
  4490.000000   4117650   4124297   4131687   4139859   4148739  
  4480.000000   4158316   4168466   4179140   4190205   4201616  
  4470.000000   4213272   4225162   4237224   4249466   4261839  
  4460.000000   4274343   4286926   4299573   4312233   4324880  
  4450.000000   4337469   4349976   4362371   4374643   4386791  
  4440.000000   4398823   4410776   4422669   4434557   4446450  
  4430.000000   4458391   4470357   4482366   4494351   4506300  
  4420.000000   4518106   4529731   4541046   4552000   4562458  
  4410.000000   4572376   4581625   4590172   4597908   4604822  
  4400.000000   4610837   4615982   4620237   4623686   4626370  
  4390.000000   4628421   4629923   4631027   4631827   4632461  
  4380.000000   4633010   4633583   4634245   4635083   4636160  
  4370.000000   4637555   4639331   4641545   4644237   4647416  
  4360.000000   4651070   4655145   4659579   4664284   4669184  
  4350.000000   4674205   4679294   4684424   4689576   4694761  
  4340.000000   4699976   4705224   4710456   4715600   4720505  
  4330.000000   4724990   4728824   4731805   4733769   4734675  
  4320.000000   4734587   4733726   4732372   4730875   4729518  
  4310.000000   4728540   4728029   4728008   4728375   4729034  
  4300.000000   4729845   4730724   4731589   4732404   4733131  
  4290.000000   4733752   4734248   4734619   4734878   4735060  
  4280.000000   4735204   4735361   4735553   4735806   4736103  
  4270.000000   4736440   4736777   4737091   4737317   4737395  
  4260.000000   4737216   4736675   4735646   4734051   4731850  
  4250.000000   4729091   4725876   4722379   4718776   4715253  
  4240.000000   4711929   4708891   4706138   4703648   4701346  
  4230.000000   4699164   4697024   4694861   4692619   4690251  
  4220.000000   4687732   4685047   4682217   4679277   4676301  
  4210.000000   4673364   4670559   4667951   4665599   4663513  
  4200.000000   4661693   4660089   4658665   4657349   4656109  
  4190.000000   4654888   4653693   4652505   4651379   4650327  
  4180.000000   4649438   4648738   4648325   4648221   4648518  
  4170.000000   4649232   4650451   4652180   4654498   4657389  
  4160.000000   4660907   4665002   4669700   4674926   4680703  
  4150.000000   4686953   4693706   4700891   4708549   4716622  
  4140.000000   4725165   4734141   4743631   4753615   4764177  
  4130.000000   4775289   4787000   4799246   4812038   4825295  
  4120.000000   4839024   4853166   4867750   4882747   4898195  
  4110.000000   4914066   4930378   4947080   4964156   4981527  
  4100.000000   4999156   5016960   5034898   5052915   5071002  
  4090.000000   5089149   5107375   5125702   5144148   5162728  
  4080.000000   5181434   5200264   5219179   5238165   5257160  
  4070.000000   5276141   5295025   5313785   5332331   5350656  
  4060.000000   5368682   5386423   5403799   5420819   5437378  
  4050.000000   5453479   5469007   5483984   5498305   5512015  
  4040.000000   5524997   5537285   5548746   5559419   5569195  
  4030.000000   5578163   5586249   5593552   5599979   5605560  
  4020.000000   5610122   5613675   5616129   5617558   5617907  
  4010.000000   5617366   5616049   5614041   5611148   5607495  
  4000.000000   5603459  
##END= 
