##TITLE= Sample 019 By ssteindl date Dienstag, November 20 2018
##JCAMP-DX= 4.24
##DATA TYPE= INFRARED SPECTRUM
##ORIGIN= Exported PE Spectrum Data File
##OWNER= Sandra Steindl
##DATE= 18/11/20
##TIME= 10:15:38.00
##SPECTROMETER/DATA SYSTEM= PERKIN-ELMER Frontier FT-IR/NIR IR
##INSTRUMENT PARAMETERS=
  APODIZATION=stark
  DETECTOR=INGAAS
##RESOLUTION= 16.000000
##DELTAX= -2.000000
##XUNITS= 1/CM
##YUNITS= A
##XFACTOR= 1.00
##YFACTOR= 0.00000011920928955078
##FIRSTX= 10000.00
##LASTX= 4000.00
##NPOINTS= 3001
##FIRSTY= 0.186763
##MAXY= 0.585401
##MINY= 0.162409
##XYDATA= (X++(Y..Y))
 10000.000000   1566679   1565048   1563111   1560637   1557953  
  9990.000000   1555745   1554448   1554282   1555317   1557579  
  9980.000000   1560838   1564705   1568738   1572457   1575336  
  9970.000000   1576745   1576119   1572953   1567107   1558822  
  9960.000000   1548913   1538541   1529037   1521546   1516740  
  9950.000000   1514744   1515126   1517212   1520302   1523971  
  9940.000000   1528071   1532643   1537663   1542855   1547658  
  9930.000000   1551349   1553363   1553487   1552075   1549862  
  9920.000000   1547804   1546638   1546685   1547695   1548975  
  9910.000000   1549684   1549076   1546813   1542956   1538012  
  9900.000000   1532721   1527958   1524525   1523025   1523703  
  9890.000000   1526348   1530259   1534341   1537356   1538278  
  9880.000000   1536647   1532780   1527703   1522856   1519593  
  9870.000000   1518741   1520324   1523609   1527396   1530472  
  9860.000000   1531980   1531630   1529668   1526633   1523142  
  9850.000000   1519607   1516243   1513030   1509888   1506711  
  9840.000000   1503466   1500206   1497087   1494439   1492712  
  9830.000000   1492508   1494317   1498386   1504425   1511567  
  9820.000000   1518508   1523812   1526429   1525962   1522889  
  9810.000000   1518272   1513409   1509290   1506329   1504331  
  9800.000000   1502761   1501158   1499385   1497774   1496841  
  9790.000000   1497074   1498550   1500925   1503526   1505645  
  9780.000000   1506810   1506871   1505983   1504381   1502248  
  9770.000000   1499648   1496635   1493432   1490513   1488554  
  9760.000000   1488170   1489605   1492517   1495996   1498838  
  9750.000000   1499976   1498851   1495610   1490997   1486067  
  9740.000000   1481806   1478862   1477455   1477469   1478611  
  9730.000000   1480539   1482882   1485187   1486890   1487375  
  9720.000000   1486156   1483093   1478535   1473273   1468334  
  9710.000000   1464601   1462565   1462142   1462843   1463996  
  9700.000000   1465064   1465803   1466214   1466421   1466458  
  9690.000000   1466244   1465656   1464708   1463701   1463160  
  9680.000000   1463676   1465542   1468561   1471974   1474716  
  9670.000000   1475813   1474766   1471780   1467668   1463554  
  9660.000000   1460450   1458927   1458990   1460195   1461891  
  9650.000000   1463494   1464627   1465138   1464992   1464204  
  9640.000000   1462797   1460891   1458756   1456820   1455569  
  9630.000000   1455318   1456093   1457520   1458992   1459881  
  9620.000000   1459779   1458672   1456876   1454927   1453333  
  9610.000000   1452430   1452328   1452952   1454149   1455731  
  9600.000000   1457503   1459177   1460403   1460763   1459989  
  9590.000000   1458053   1455316   1452415   1450075   1448823  
  9580.000000   1448788   1449725   1451158   1452727   1454319  
  9570.000000   1456207   1458769   1462293   1466644   1471240  
  9560.000000   1475193   1477628   1478035   1476405   1473197  
  9550.000000   1469060   1464550   1459960   1455339   1450710  
  9540.000000   1446243   1442362   1439582   1438283   1438417  
  9530.000000   1439440   1440442   1440509   1439121   1436376  
  9520.000000   1432980   1429895   1427981   1427595   1428590  
  9510.000000   1430415   1432495   1434456   1436263   1438097  
  9500.000000   1440125   1442326   1444404   1445969   1446738  
  9490.000000   1446775   1446504   1446519   1447293   1448881  
  9480.000000   1450874   1452529   1453093   1452102   1449535  
  9470.000000   1445805   1441548   1437423   1433893   1431244  
  9460.000000   1429563   1428927   1429326   1430736   1432917  
  9450.000000   1435463   1437777   1439276   1439585   1438650  
  9440.000000   1436774   1434353   1431712   1428828   1425421  
  9430.000000   1421095   1415678   1409429   1403086   1397705  
  9420.000000   1394293   1393474   1395193   1398759   1403041  
  9410.000000   1406877   1409422   1410323   1409752   1408189  
  9400.000000   1406262   1404483   1403202   1402521   1402386  
  9390.000000   1402602   1402944   1403174   1403116   1402698  
  9380.000000   1401966   1401114   1400367   1399929   1399845  
  9370.000000   1399979   1400071   1399844   1399176   1398144  
  9360.000000   1397022   1396130   1395687   1395675   1395863  
  9350.000000   1395918   1395606   1394927   1394135   1393634  
  9340.000000   1393784   1394751   1396423   1398473   1400502  
  9330.000000   1402204   1403477   1404393   1405097   1405674  
  9320.000000   1406079   1406173   1405819   1405023   1403966  
  9310.000000   1402968   1402326   1402206   1402525   1403004  
  9300.000000   1403226   1402843   1401680   1399820   1397538  
  9290.000000   1395182   1393038   1391259   1389851   1388719  
  9280.000000   1387720   1386721   1385657   1384524   1383414  
  9270.000000   1382450   1381763   1381423   1381395   1381537  
  9260.000000   1381639   1381500   1381048   1380375   1379779  
  9250.000000   1379666   1380407   1382128   1384592   1387222  
  9240.000000   1389310   1390243   1389763   1388046   1385676  
  9230.000000   1383411   1381921   1381539   1382197   1383513  
  9220.000000   1385004   1386284   1387171   1387726   1388126  
  9210.000000   1388585   1389184   1389923   1390744   1391638  
  9200.000000   1392661   1393855   1395200   1396513   1397492  
  9190.000000   1397762   1397016   1395163   1392400   1389204  
  9180.000000   1386159   1383821   1382535   1382426   1383370  
  9170.000000   1385089   1387221   1389409   1391350   1392775  
  9160.000000   1393458   1393238   1392080   1390102   1387563  
  9150.000000   1384819   1382275   1380335   1379321   1379421  
  9140.000000   1380619   1382738   1385411   1388125   1390253  
  9130.000000   1391208   1390631   1388480   1385111   1381150  
  9120.000000   1377378   1374460   1372745   1372174   1372363  
  9110.000000   1372825   1373200   1373417   1373684   1374361  
  9100.000000   1375738   1377837   1380326   1382609   1384058  
  9090.000000   1384256   1383188   1381249   1379134   1377591  
  9080.000000   1377182   1378106   1380134   1382713   1385112  
  9070.000000   1386645   1386824   1385504   1382905   1379554  
  9060.000000   1376133   1373310   1371571   1371073   1371614  
  9050.000000   1372687   1373676   1374068   1373626   1372466  
  9040.000000   1370969   1369673   1369039   1369327   1370507  
  9030.000000   1372310   1374369   1376314   1377895   1378950  
  9020.000000   1379419   1379250   1378405   1376878   1374759  
  9010.000000   1372270   1369750   1367598   1366154   1365625  
  9000.000000   1366002   1367113   1368670   1370382   1371998  
  8990.000000   1373347   1374322   1374836   1374837   1374297  
  8980.000000   1373276   1371917   1370454   1369146   1368236  
  8970.000000   1367870   1368085   1368813   1369908   1371204  
  8960.000000   1372510   1373655   1374463   1374806   1374625  
  8950.000000   1373996   1373132   1372353   1371972   1372187  
  8940.000000   1372981   1374107   1375160   1375719   1375512  
  8930.000000   1374503   1372894   1371012   1369183   1367600  
  8920.000000   1366304   1365215   1364248   1363387   1362718  
  8910.000000   1362384   1362495   1363068   1364013   1365176  
  8900.000000   1366434   1367737   1369138   1370688   1372380  
  8890.000000   1374040   1375404   1376176   1376218   1375623  
  8880.000000   1374750   1374097   1374115   1375045   1376813  
  8870.000000   1379099   1381463   1383555   1385225   1386547  
  8860.000000   1387701   1388841   1389967   1390928   1391494  
  8850.000000   1391490   1390928   1390019   1389128   1388596  
  8840.000000   1388586   1389027   1389623   1390024   1389953  
  8830.000000   1389359   1388429   1387526   1387057   1387300  
  8820.000000   1388319   1389916   1391707   1393239   1394137  
  8810.000000   1394213   1393537   1392430   1391393   1390964  
  8800.000000   1391567   1393368   1396223   1399661   1403028  
  8790.000000   1405642   1407043   1407103   1406090   1404546  
  8780.000000   1403120   1402366   1402590   1403806   1405785  
  8770.000000   1408198   1410734   1413205   1415529   1417715  
  8760.000000   1419768   1421676   1423379   1424808   1425909  
  8750.000000   1426660   1427077   1427176   1426958   1426423  
  8740.000000   1425595   1424577   1423540   1422709   1422267  
  8730.000000   1422292   1422693   1423238   1423631   1423633  
  8720.000000   1423171   1422371   1421536   1421010   1421074  
  8710.000000   1421823   1423170   1424875   1426667   1428320  
  8700.000000   1429736   1430930   1432025   1433167   1434498  
  8690.000000   1436085   1437933   1439957   1442022   1443945  
  8680.000000   1445565   1446768   1447560   1448081   1448600  
  8670.000000   1449433   1450836   1452895   1455476   1458252  
  8660.000000   1460816   1462834   1464169   1464951   1465512  
  8650.000000   1466279   1467578   1469543   1472050   1474802  
  8640.000000   1477440   1479682   1481412   1482660   1483546  
  8630.000000   1484184   1484621   1484838   1484783   1484462  
  8620.000000   1483979   1483555   1483467   1483959   1485155  
  8610.000000   1487008   1489308   1491737   1493963   1495709  
  8600.000000   1496833   1497325   1497326   1497067   1496853  
  8590.000000   1496981   1497690   1499108   1501219   1503874  
  8580.000000   1506816   1509762   1512471   1514804   1516745  
  8570.000000   1518349   1519700   1520821   1521697   1522250  
  8560.000000   1522443   1522307   1521993   1521751   1521833  
  8550.000000   1522463   1523696   1525486   1527653   1530033  
  8540.000000   1532495   1535000   1537545   1540077   1542444  
  8530.000000   1544338   1545394   1545262   1543800   1541136  
  8520.000000   1537727   1534233   1531356   1529656   1529402  
  8510.000000   1530555   1532789   1535668   1538749   1541726  
  8500.000000   1544426   1546813   1548920   1550798   1552485  
  8490.000000   1553984   1555321   1556511   1557617   1558653  
  8480.000000   1559623   1560459   1561072   1561373   1561309  
  8470.000000   1560930   1560367   1559844   1559574   1559771  
  8460.000000   1560568   1562035   1564130   1566725   1569609  
  8450.000000   1572493   1575039   1576900   1577825   1577709  
  8440.000000   1576684   1575077   1573377   1572086   1571591  
  8430.000000   1572062   1573407   1575358   1577551   1579705  
  8420.000000   1581654   1583421   1585110   1586849   1588666  
  8410.000000   1590466   1592055   1593209   1593777   1593733  
  8400.000000   1593184   1592342   1591425   1590618   1590000  
  8390.000000   1589585   1589328   1589179   1589083   1588987  
  8380.000000   1588827   1588515   1587965   1587110   1585961  
  8370.000000   1584619   1583285   1582198   1581570   1581521  
  8360.000000   1582054   1583068   1584396   1585877   1587389  
  8350.000000   1588874   1590301   1591640   1592829   1593770  
  8340.000000   1594363   1594533   1594283   1593676   1592831  
  8330.000000   1591860   1590828   1589736   1588538   1587201  
  8320.000000   1585730   1584227   1582840   1581764   1581135  
  8310.000000   1581018   1581342   1581956   1582657   1583265  
  8300.000000   1583666   1583813   1583720   1583410   1582897  
  8290.000000   1582164   1581189   1579973   1578574   1577123  
  8280.000000   1575801   1574793   1574213   1574075   1574265  
  8270.000000   1574588   1574811   1574748   1574316   1573553  
  8260.000000   1572594   1571605   1570723   1570003   1569412  
  8250.000000   1568856   1568235   1567503   1566694   1565922  
  8240.000000   1565313   1564965   1564879   1564963   1565047  
  8230.000000   1564952   1564549   1563798   1562742   1561480  
  8220.000000   1560098   1558647   1557108   1555450   1553656  
  8210.000000   1551788   1549985   1548415   1547200   1546338  
  8200.000000   1545667   1544899   1543704   1541840   1539251  
  8190.000000   1536121   1532826   1529827   1527512   1526081  
  8180.000000   1525490   1525487   1525716   1525831   1525606  
  8170.000000   1524956   1523934   1522657   1521251   1519804  
  8160.000000   1518379   1517021   1515811   1514836   1514191  
  8150.000000   1513913   1513945   1514126   1514218   1513994  
  8140.000000   1513315   1512190   1510780   1509337   1508117  
  8130.000000   1507276   1506822   1506610   1506399   1505943  
  8120.000000   1505077   1503774   1502145   1500401   1498777  
  8110.000000   1497461   1496540   1495991   1495696   1495491  
  8100.000000   1495212   1494745   1494044   1493144   1492140  
  8090.000000   1491162   1490330   1489716   1489321   1489068  
  8080.000000   1488827   1488442   1487784   1486783   1485456  
  8070.000000   1483897   1482255   1480691   1479338   1478272  
  8060.000000   1477503   1476980   1476610   1476284   1475896  
  8050.000000   1475368   1474657   1473766   1472744   1471675  
  8040.000000   1470672   1469837   1469259   1468954   1468887  
  8030.000000   1468944   1468980   1468845   1468438   1467736  
  8020.000000   1466813   1465828   1464987   1464491   1464480  
  8010.000000   1464992   1465939   1467131   1468314   1469235  
  8000.000000   1469712   1469665   1469142   1468284   1467281  
  7990.000000   1466313   1465495   1464866   1464388   1463992  
  7980.000000   1463609   1463215   1462827   1462494   1462254  
  7970.000000   1462099   1461965   1461734   1461286   1460529  
  7960.000000   1459456   1458142   1456745   1455456   1454453  
  7950.000000   1453866   1453738   1454047   1454702   1455589  
  7940.000000   1456580   1457558   1458427   1459100   1459514  
  7930.000000   1459611   1459360   1458745   1457801   1456591  
  7920.000000   1455233   1453875   1452683   1451814   1451370  
  7910.000000   1451393   1451825   1452546   1453388   1454187  
  7900.000000   1454824   1455243   1455458   1455519   1455482  
  7890.000000   1455374   1455193   1454913   1454531   1454074  
  7880.000000   1453633   1453322   1453248   1453454   1453894  
  7870.000000   1454430   1454874   1455055   1454885   1454395  
  7860.000000   1453737   1453133   1452814   1452940   1453562  
  7850.000000   1454608   1455916   1457281   1458516   1459488  
  7840.000000   1460141   1460487   1460585   1460518   1460367  
  7830.000000   1460209   1460102   1460090   1460204   1460453  
  7820.000000   1460822   1461266   1461704   1462041   1462165  
  7810.000000   1461993   1461478   1460643   1459576   1458428  
  7800.000000   1457370   1456563   1456109   1456033   1456266  
  7790.000000   1456676   1457092   1457357   1457355   1457040  
  7780.000000   1456439   1455637   1454753   1453910   1453212  
  7770.000000   1452719   1452439   1452331   1452311   1452284  
  7760.000000   1452164   1451911   1451532   1451090   1450666  
  7750.000000   1450332   1450110   1449957   1449782   1449470  
  7740.000000   1448938   1448162   1447201   1446160   1445162  
  7730.000000   1444290   1443563   1442938   1442341   1441715  
  7720.000000   1441056   1440421   1439913   1439632   1439635  
  7710.000000   1439907   1440369   1440902   1441397   1441776  
  7700.000000   1442016   1442133   1442160   1442134   1442082  
  7690.000000   1442029   1442010   1442069   1442254   1442585  
  7680.000000   1443033   1443498   1443827   1443858   1443471  
  7670.000000   1442641   1441460   1440123   1438879   1437964  
  7660.000000   1437532   1437625   1438155   1438952   1439801  
  7650.000000   1440512   1440958   1441094   1440956   1440624  
  7640.000000   1440203   1439777   1439406   1439103   1438866  
  7630.000000   1438672   1438521   1438422   1438413   1438527  
  7620.000000   1438785   1439167   1439610   1440029   1440339  
  7610.000000   1440498   1440529   1440530   1440641   1441007  
  7600.000000   1441715   1442767   1444065   1445435   1446677  
  7590.000000   1447610   1448123   1448193   1447883   1447311  
  7580.000000   1446620   1445936   1445356   1444940   1444718  
  7570.000000   1444695   1444861   1445191   1445648   1446187  
  7560.000000   1446757   1447314   1447833   1448306   1448755  
  7550.000000   1449219   1449752   1450393   1451170   1452074  
  7540.000000   1453080   1454131   1455170   1456134   1456985  
  7530.000000   1457704   1458304   1458822   1459313   1459838  
  7520.000000   1460456   1461210   1462126   1463203   1464414  
  7510.000000   1465708   1467020   1468276   1469418   1470400  
  7500.000000   1471218   1471897   1472497   1473092   1473758  
  7490.000000   1474551   1475503   1476616   1477870   1479224  
  7480.000000   1480633   1482049   1483434   1484750   1485971  
  7470.000000   1487079   1488081   1488993   1489860   1490727  
  7460.000000   1491656   1492689   1493865   1495192   1496665  
  7450.000000   1498250   1499907   1501575   1503200   1504733  
  7440.000000   1506154   1507482   1508781   1510147   1511695  
  7430.000000   1513526   1515694   1518181   1520901   1523708  
  7420.000000   1526443   1528962   1531175   1533050   1534622  
  7410.000000   1535960   1537153   1538281   1539414   1540607  
  7400.000000   1541903   1543337   1544931   1546695   1548615  
  7390.000000   1550654   1552753   1554848   1556876   1558793  
  7380.000000   1560581   1562251   1563842   1565410   1567019  
  7370.000000   1568714   1570517   1572413   1574347   1576240  
  7360.000000   1578009   1579598   1581000   1582259   1583465  
  7350.000000   1584718   1586098   1587632   1589287   1590991  
  7340.000000   1592664   1594264   1595798   1597327   1598927  
  7330.000000   1600659   1602534   1604508   1606493   1608392  
  7320.000000   1610143   1611729   1613182   1614561   1615920  
  7310.000000   1617291   1618667   1620027   1621350   1622642  
  7300.000000   1623940   1625303   1626787   1628420   1630177  
  7290.000000   1631989   1633754   1635373   1636774   1637932  
  7280.000000   1638876   1639676   1640424   1641209   1642097  
  7270.000000   1643119   1644271   1645520   1646823   1648138  
  7260.000000   1649444   1650727   1652000   1653260   1654512  
  7250.000000   1655732   1656909   1658025   1659110   1660215  
  7240.000000   1661443   1662894   1664660   1666777   1669231  
  7230.000000   1671948   1674834   1677786   1680742   1683657  
  7220.000000   1686526   1689330   1692063   1694688   1697191  
  7210.000000   1699559   1701834   1704080   1706396   1708858  
  7200.000000   1711518   1714363   1717347   1720399   1723468  
  7190.000000   1726535   1729636   1732824   1736165   1739690  
  7180.000000   1743397   1747232   1751131   1755019   1758857  
  7170.000000   1762623   1766338   1770024   1773726   1777461  
  7160.000000   1781252   1785092   1788984   1792911   1796875  
  7150.000000   1800875   1804938   1809096   1813403   1817898  
  7140.000000   1822615   1827535   1832619   1837779   1842939  
  7130.000000   1848029   1853042   1858005   1863007   1868134  
  7120.000000   1873474   1879054   1884858   1890807   1896808  
  7110.000000   1902753   1908581   1914253   1919786   1925216  
  7100.000000   1930611   1936033   1941546   1947183   1952964  
  7090.000000   1958871   1964879   1970951   1977065   1983215  
  7080.000000   1989424   1995721   2002132   2008652   2015244  
  7070.000000   2021832   2028334   2034682   2040851   2046864  
  7060.000000   2052783   2058678   2064604   2070577   2076572  
  7050.000000   2082542   2088433   2094214   2099882   2105465  
  7040.000000   2111002   2116537   2122093   2127685   2133307  
  7030.000000   2138954   2144605   2150249   2155863   2161439  
  7020.000000   2166965   2172453   2177910   2183361   2188800  
  7010.000000   2194206   2199518   2204656   2209531   2214093  
  7000.000000   2218328   2222292   2226069   2229780   2233510  
  6990.000000   2237332   2241255   2245276   2249350   2253441  
  6980.000000   2257497   2261480   2265336   2269027   2272517  
  6970.000000   2275805   2278912   2281897   2284818   2287737  
  6960.000000   2290672   2293622   2296550   2299434   2302253  
  6950.000000   2305034   2307799   2310587   2313393   2316188  
  6940.000000   2318896   2321447   2323773   2325855   2327705  
  6930.000000   2329374   2330914   2332381   2333805   2335220  
  6920.000000   2336644   2338108   2339629   2341220   2342855  
  6910.000000   2344493   2346066   2347523   2348832   2350007  
  6900.000000   2351091   2352144   2353214   2354322   2355459  
  6890.000000   2356602   2357730   2358847   2359972   2361139  
  6880.000000   2362365   2363650   2364957   2366241   2367459  
  6870.000000   2368596   2369657   2370674   2371670   2372654  
  6860.000000   2373604   2374483   2375249   2375878   2376373  
  6850.000000   2376767   2377105   2377439   2377808   2378242  
  6840.000000   2378753   2379349   2380023   2380763   2381538  
  6830.000000   2382308   2383028   2383669   2384222   2384710  
  6820.000000   2385180   2385683   2386252   2386890   2387566  
  6810.000000   2388225   2388812   2389290   2389647   2389905  
  6800.000000   2390092   2390243   2390373   2390492   2390588  
  6790.000000   2390654   2390678   2390660   2390592   2390477  
  6780.000000   2390313   2390111   2389884   2389663   2389475  
  6770.000000   2389345   2389276   2389252   2389236   2389183  
  6760.000000   2389058   2388840   2388533   2388159   2387751  
  6750.000000   2387339   2386949   2386600   2386306   2386076  
  6740.000000   2385916   2385821   2385778   2385765   2385758  
  6730.000000   2385747   2385728   2385720   2385744   2385816  
  6720.000000   2385937   2386086   2386223   2386307   2386305  
  6710.000000   2386207   2386019   2385765   2385470   2385152  
  6700.000000   2384819   2384472   2384103   2383707   2383274  
  6690.000000   2382798   2382268   2381681   2381038   2380362  
  6680.000000   2379681   2379037   2378453   2377939   2377464  
  6670.000000   2376980   2376423   2375754   2374960   2374073  
  6660.000000   2373145   2372238   2371386   2370590   2369817  
  6650.000000   2369021   2368158   2367213   2366199   2365151  
  6640.000000   2364103   2363077   2362071   2361068   2360042  
  6630.000000   2358982   2357889   2356783   2355686   2354620  
  6620.000000   2353590   2352587   2351589   2350571   2349506  
  6610.000000   2348376   2347164   2345863   2344470   2342999  
  6600.000000   2341468   2339911   2338360   2336840   2335362  
  6590.000000   2333917   2332482   2331032   2329545   2328018  
  6580.000000   2326462   2324904   2323374   2321902   2320505  
  6570.000000   2319194   2317970   2316825   2315742   2314700  
  6560.000000   2313672   2312625   2311534   2310377   2309142  
  6550.000000   2307829   2306443   2304995   2303499   2301975  
  6540.000000   2300453   2298969   2297565   2296275   2295109  
  6530.000000   2294053   2293059   2292063   2291002   2289835  
  6520.000000   2288553   2287187   2285790   2284418   2283117  
  6510.000000   2281907   2280783   2279719   2278683   2277644  
  6500.000000   2276579   2275476   2274334   2273159   2271968  
  6490.000000   2270781   2269618   2268491   2267395   2266310  
  6480.000000   2265208   2264063   2262870   2261654   2260456  
  6470.000000   2259331   2258315   2257414   2256598   2255813  
  6460.000000   2255003   2254127   2253176   2252165   2251121  
  6450.000000   2250060   2248986   2247884   2246742   2245564  
  6440.000000   2244384   2243253   2242224   2241323   2240544  
  6430.000000   2239836   2239140   2238402   2237609   2236788  
  6420.000000   2236002   2235314   2234769   2234371   2234091  
  6410.000000   2233880   2233696   2233512   2233320   2233116  
  6400.000000   2232895   2232633   2232306   2231890   2231393  
  6390.000000   2230848   2230314   2229848   2229490   2229243  
  6380.000000   2229074   2228934   2228771   2228563   2228310  
  6370.000000   2228039   2227776   2227537   2227312   2227077  
  6360.000000   2226802   2226469   2226080   2225655   2225218  
  6350.000000   2224794   2224388   2223993   2223592   2223169  
  6340.000000   2222710   2222215   2221687   2221138   2220573  
  6330.000000   2220007   2219445   2218900   2218371   2217856  
  6320.000000   2217334   2216780   2216161   2215454   2214648  
  6310.000000   2213755   2212798   2211808   2210800   2209783  
  6300.000000   2208743   2207661   2206517   2205308   2204036  
  6290.000000   2202724   2201389   2200053   2198725   2197412  
  6280.000000   2196111   2194825   2193549   2192283   2191019  
  6270.000000   2189750   2188469   2187176   2185876   2184580  
  6260.000000   2183302   2182051   2180823   2179608   2178385  
  6250.000000   2177137   2175855   2174539   2173197   2171839  
  6240.000000   2170469   2169087   2167686   2166261   2164815  
  6230.000000   2163357   2161899   2160457   2159038   2157645  
  6220.000000   2156275   2154927   2153604   2152313   2151057  
  6210.000000   2149836   2148639   2147446   2146237   2144995  
  6200.000000   2143720   2142421   2141121   2139841   2138599  
  6190.000000   2137399   2136239   2135110   2134004   2132913  
  6180.000000   2131831   2130757   2129689   2128633   2127600  
  6170.000000   2126609   2125681   2124831   2124051   2123312  
  6160.000000   2122560   2121731   2120775   2119667   2118424  
  6150.000000   2117096   2115748   2114441   2113209   2112055  
  6140.000000   2110960   2109899   2108854   2107829   2106841  
  6130.000000   2105914   2105057   2104261   2103500   2102737  
  6120.000000   2101943   2101097   2100204   2099272   2098322  
  6110.000000   2097367   2096425   2095509   2094640   2093842  
  6100.000000   2093140   2092547   2092066   2091674   2091343  
  6090.000000   2091037   2090737   2090438   2090157   2089910  
  6080.000000   2089719   2089581   2089487   2089411   2089339  
  6070.000000   2089263   2089202   2089177   2089225   2089363  
  6060.000000   2089602   2089926   2090318   2090748   2091205  
  6050.000000   2091674   2092170   2092699   2093293   2093968  
  6040.000000   2094759   2095680   2096759   2098002   2099420  
  6030.000000   2100998   2102728   2104575   2106518   2108518  
  6020.000000   2110559   2112614   2114683   2116759   2118859  
  6010.000000   2120990   2123174   2125410   2127708   2130049  
  6000.000000   2132427   2134819   2137229   2139656   2142135  
  5990.000000   2144690   2147362   2150169   2153126   2156218  
  5980.000000   2159436   2162754   2166168   2169666   2173257  
  5970.000000   2176934   2180702   2184538   2188432   2192357  
  5960.000000   2196306   2200267   2204251   2208254   2212288  
  5950.000000   2216346   2220430   2224536   2228672   2232850  
  5940.000000   2237091   2241416   2245838   2250358   2254958  
  5930.000000   2259613   2264281   2268922   2273489   2277944  
  5920.000000   2282244   2286361   2290269   2293963   2297446  
  5910.000000   2300745   2303886   2306906   2309829   2312681  
  5900.000000   2315472   2318221   2320936   2323645   2326362  
  5890.000000   2329114   2331903   2334732   2337580   2340424  
  5880.000000   2343227   2345959   2348586   2351087   2353445  
  5870.000000   2355657   2357736   2359707   2361608   2363480  
  5860.000000   2365361   2367277   2369240   2371251   2373311  
  5850.000000   2375425   2377606   2379871   2382235   2384699  
  5840.000000   2387253   2389868   2392517   2395174   2397835  
  5830.000000   2400508   2403211   2405955   2408741   2411549  
  5820.000000   2414352   2417118   2419831   2422483   2425084  
  5810.000000   2427646   2430173   2432670   2435120   2437529  
  5800.000000   2439888   2442230   2444561   2446924   2449304  
  5790.000000   2451701   2454046   2456283   2458297   2459998  
  5780.000000   2461256   2461978   2462063   2461471   2460187  
  5770.000000   2458289   2455887   2453169   2450306   2447484  
  5760.000000   2444810   2442364   2440141   2438131   2436286  
  5750.000000   2434590   2433018   2431570   2430231   2428983  
  5740.000000   2427796   2426632   2425466   2424276   2423065  
  5730.000000   2421835   2420606   2419388   2418201   2417057  
  5720.000000   2415980   2414982   2414076   2413255   2412499  
  5710.000000   2411773   2411044   2410290   2409515   2408738  
  5700.000000   2407994   2407307   2406682   2406101   2405526  
  5690.000000   2404925   2404274   2403582   2402870   2402179  
  5680.000000   2401527   2400926   2400346   2399746   2399056  
  5670.000000   2398215   2397151   2395814   2394158   2392172  
  5660.000000   2389866   2387299   2384556   2381749   2378983  
  5650.000000   2376341   2373857   2371525   2369302   2367141  
  5640.000000   2365004   2362884   2360799   2358783   2356868  
  5630.000000   2355072   2353402   2351848   2350402   2349050  
  5620.000000   2347790   2346605   2345481   2344389   2343308  
  5610.000000   2342219   2341125   2340040   2338994   2338005  
  5600.000000   2337083   2336213   2335373   2334539   2333699  
  5590.000000   2332855   2332022   2331211   2330421   2329633  
  5580.000000   2328818   2327947   2327005   2326003   2324964  
  5570.000000   2323922   2322898   2321900   2320918   2319933  
  5560.000000   2318930   2317902   2316852   2315787   2314708  
  5550.000000   2313608   2312477   2311309   2310110   2308902  
  5540.000000   2307714   2306576   2305499   2304479   2303497  
  5530.000000   2302533   2301574   2300626   2299702   2298819  
  5520.000000   2297980   2297172   2296366   2295532   2294645  
  5510.000000   2293701   2292704   2291666   2290593   2289483  
  5500.000000   2288324   2287115   2285861   2284590   2283333  
  5490.000000   2282119   2280944   2279788   2278599   2277333  
  5480.000000   2275954   2274462   2272882   2271259   2269631  
  5470.000000   2268018   2266415   2264802   2263149   2261444  
  5460.000000   2259684   2257881   2256050   2254204   2252350  
  5450.000000   2250493   2248640   2246804   2244999   2243238  
  5440.000000   2241527   2239859   2238231   2236639   2235096  
  5430.000000   2233617   2232224   2230914   2229674   2228462  
  5420.000000   2227250   2226010   2224765   2223552   2222446  
  5410.000000   2221495   2220733   2220132   2219659   2219253  
  5400.000000   2218894   2218573   2218335   2218212   2218251  
  5390.000000   2218450   2218807   2219281   2219872   2220568  
  5380.000000   2221415   2222433   2223666   2225094   2226711  
  5370.000000   2228451   2230295   2232195   2234181   2236249  
  5360.000000   2238465   2240838   2243437   2246266   2249403  
  5350.000000   2252857   2256717   2260979   2265703   2270839  
  5340.000000   2276411   2282348   2288691   2295401   2302559  
  5330.000000   2310136   2318203   2326699   2335664   2345021  
  5320.000000   2354840   2365093   2375911   2387308   2399430  
  5310.000000   2412262   2425902   2440276   2455438   2471304  
  5300.000000   2487942   2505301   2523480   2542456   2562329  
  5290.000000   2583050   2604665   2627054   2650177   2673866  
  5280.000000   2698073   2722688   2747755   2773282   2799385  
  5270.000000   2826085   2853404   2881220   2909371   2937641  
  5260.000000   2965856   2993921   3021831   3049664   3077476  
  5250.000000   3105305   3133048   3160572   3187624   3214059  
  5240.000000   3239707   3264608   3288767   3312359   3335424  
  5230.000000   3358082   3380255   3401931   3422924   3443186  
  5220.000000   3462568   3481121   3498815   3515806   3532121  
  5210.000000   3547916   3563153   3577885   3591968   3605386  
  5200.000000   3617990   3629829   3640850   3651191   3660854  
  5190.000000   3669968   3678486   3686467   3693812   3700562  
  5180.000000   3706639   3712124   3716978   3721292   3725018  
  5170.000000   3728217   3730825   3732901   3734406   3735426  
  5160.000000   3735941   3736032   3735660   3734877   3733636  
  5150.000000   3731996   3729948   3727584   3724918   3722026  
  5140.000000   3718885   3715519   3711867   3707939   3703699  
  5130.000000   3699195   3694437   3689495   3684387   3679164  
  5120.000000   3673823   3668396   3662873   3657281   3651615  
  5110.000000   3645894   3640106   3634260   3628342   3622367  
  5100.000000   3616343   3610301   3604263   3598257   3592292  
  5090.000000   3586373   3580490   3574642   3568823   3563040  
  5080.000000   3557297   3551603   3545954   3540345   3534754  
  5070.000000   3529167   3523557   3517906   3512193   3506408  
  5060.000000   3500534   3494573   3488525   3482406   3476227  
  5050.000000   3470008   3463746   3457446   3451084   3444651  
  5040.000000   3438127   3431516   3424824   3418078   3411296  
  5030.000000   3404502   3397706   3390912   3384121   3377335  
  5020.000000   3370566   3363828   3357143   3350524   3343987  
  5010.000000   3337529   3331157   3324863   3318661   3312552  
  5000.000000   3306564   3300706   3295008   3289469   3284111  
  4990.000000   3278920   3273915   3269077   3264426   3259943  
  4980.000000   3255652   3251539   3247636   3243935   3240480  
  4970.000000   3237268   3234345   3231695   3229352   3227279  
  4960.000000   3225496   3223961   3222704   3221700   3220998  
  4950.000000   3220589   3220528   3220796   3221438   3222418  
  4940.000000   3223771   3225461   3227529   3229948   3232765  
  4930.000000   3235951   3239544   3243502   3247850   3252539  
  4920.000000   3257593   3262971   3268702   3274752   3281150  
  4910.000000   3287863   3294911   3302259   3309914   3317840  
  4900.000000   3326031   3334448   3343075   3351873   3360810  
  4890.000000   3369845   3378925   3387996   3396979   3405816  
  4880.000000   3414418   3422745   3430725   3438344   3445542  
  4870.000000   3452316   3458598   3464381   3469592   3474238  
  4860.000000   3478274   3481745   3484645   3487049   3488964  
  4850.000000   3490465   3491552   3492289   3492682   3492805  
  4840.000000   3492686   3492410   3492015   3491576   3491114  
  4830.000000   3490670   3490244   3489847   3489473   3489133  
  4820.000000   3488831   3488589   3488429   3488375   3488448  
  4810.000000   3488654   3488996   3489453   3490003   3490613  
  4800.000000   3491264   3491937   3492639   3493377   3494176  
  4790.000000   3495045   3495998   3497029   3498129   3499278  
  4780.000000   3500467   3501683   3502926   3504192   3505476  
  4770.000000   3506766   3508048   3509305   3510523   3511701  
  4760.000000   3512844   3513968   3515083   3516198   3517304  
  4750.000000   3518390   3519429   3520400   3521282   3522068  
  4740.000000   3522753   3523345   3523853   3524292   3524673  
  4730.000000   3525012   3525318   3525603   3525872   3526124  
  4720.000000   3526362   3526578   3526781   3526975   3527187  
  4710.000000   3527441   3527778   3528228   3528830   3529602  
  4700.000000   3530570   3531737   3533119   3534711   3536522  
  4690.000000   3538539   3540762   3543166   3545740   3548445  
  4680.000000   3551262   3554141   3557057   3559956   3562816  
  4670.000000   3565594   3568290   3570895   3573445   3575966  
  4660.000000   3578520   3581148   3583909   3586836   3589968  
  4650.000000   3593321   3596911   3600732   3604774   3609006  
  4640.000000   3613390   3617879   3622424   3626986   3631530  
  4630.000000   3636036   3640484   3644858   3649126   3653259  
  4620.000000   3657204   3660924   3664368   3667520   3670359  
  4610.000000   3672907   3675168   3677186   3678971   3680567  
  4600.000000   3681973   3683225   3684314   3685276   3686097  
  4590.000000   3686810   3687394   3687868   3688197   3688380  
  4580.000000   3688375   3688172   3687735   3687072   3686172  
  4570.000000   3685069   3683785   3682369   3680852   3679277  
  4560.000000   3677659   3676019   3674353   3672668   3670958  
  4550.000000   3669235   3667502   3665774   3664053   3662343  
  4540.000000   3660636   3658922   3657194   3655449   3653699  
  4530.000000   3651954   3650242   3648572   3646965   3645411  
  4520.000000   3643924   3642485   3641122   3639829   3638664  
  4510.000000   3637640   3636838   3636273   3636031   3636118  
  4500.000000   3636616   3637525   3638928   3640821   3643294  
  4490.000000   3646338   3650040   3654378   3659423   3665132  
  4480.000000   3671554   3678625   3686381   3694754   3703776  
  4470.000000   3713382   3723596   3734340   3745612   3757309  
  4460.000000   3769407   3781795   3794450   3807291   3820318  
  4450.000000   3833488   3846820   3860289   3873907   3887652  
  4440.000000   3901513   3915466   3929477   3943519   3957539  
  4430.000000   3971506   3985348   3999036   4012491   4025696  
  4420.000000   4038575   4051121   4063257   4074967   4086155  
  4410.000000   4096789   4106763   4116053   4124592   4132413  
  4400.000000   4139525   4146033   4152003   4157573   4162815  
  4390.000000   4167849   4172727   4177549   4182352   4187220  
  4380.000000   4192179   4197282   4202529   4207936   4213480  
  4370.000000   4219162   4224958   4230869   4236874   4242961  
  4360.000000   4249089   4255222   4261287   4267250   4273021  
  4350.000000   4278592   4283879   4288915   4293646   4298159  
  4340.000000   4302445   4306605   4310590   4314363   4317659  
  4330.000000   4320154   4321337   4320735   4317920   4312733  
  4320.000000   4305281   4296026   4285642   4274945   4264671  
  4310.000000   4255411   4247474   4240950   4235715   4231571  
  4300.000000   4228290   4225697   4223681   4222163   4221115  
  4290.000000   4220473   4220222   4220296   4220711   4221444  
  4280.000000   4222544   4224012   4225859   4228049   4230522  
  4270.000000   4233205   4236000   4238811   4241491   4243864  
  4260.000000   4245682   4246667   4246531   4245063   4242164  
  4250.000000   4237924   4232579   4226521   4220168   4213951  
  4240.000000   4208168   4203022   4198540   4194673   4191270  
  4230.000000   4188192   4185290   4182466   4179652   4176812  
  4220.000000   4173953   4171075   4168236   4165464   4162847  
  4210.000000   4160424   4158279   4156430   4154919   4153724  
  4200.000000   4152840   4152220   4151846   4151667   4151678  
  4190.000000   4151840   4152166   4152626   4153245   4153997  
  4180.000000   4154910   4155956   4157163   4158502   4160009  
  4170.000000   4161668   4163538   4165631   4168032   4170769  
  4160.000000   4173923   4177500   4181548   4186027   4190945  
  4150.000000   4196235   4201896   4207865   4214166   4220760  
  4140.000000   4227698   4234960   4242607   4250614   4259034  
  4130.000000   4267825   4277029   4286602   4296586   4306951  
  4120.000000   4317749   4328967   4340664   4352833   4365521  
  4110.000000   4378712   4392430   4406625   4421276   4436292  
  4100.000000   4451607   4467113   4482743   4498424   4514138  
  4090.000000   4529874   4545648   4561478   4577365   4593312  
  4080.000000   4609283   4625271   4641221   4657125   4672908  
  4070.000000   4688538   4703898   4718926   4733483   4747527  
  4060.000000   4760960   4773807   4786020   4797672   4808727  
  4050.000000   4819263   4829234   4838716   4847654   4856109  
  4040.000000   4863997   4871348   4878048   4884118   4889468  
  4030.000000   4894167   4898183   4901619   4904459   4906779  
  4020.000000   4908520   4909743   4910443   4910702   4910497  
  4010.000000   4909947   4909112   4907976   4906318   4904142  
  4000.000000   4901695  
##END= 
