##TITLE= Sample 049 By ssteindl date Dienstag, November 20 2018
##JCAMP-DX= 4.24
##DATA TYPE= INFRARED SPECTRUM
##ORIGIN= Exported PE Spectrum Data File
##OWNER= Sandra Steindl
##DATE= 18/11/20
##TIME= 12:14:38.00
##SPECTROMETER/DATA SYSTEM= PERKIN-ELMER Frontier FT-IR/NIR IR
##INSTRUMENT PARAMETERS=
  APODIZATION=stark
  DETECTOR=INGAAS
##RESOLUTION= 16.000000
##DELTAX= -2.000000
##XUNITS= 1/CM
##YUNITS= A
##XFACTOR= 1.00
##YFACTOR= 0.00000011920928955078
##FIRSTX= 10000.00
##LASTX= 4000.00
##NPOINTS= 3001
##FIRSTY= 0.185246
##MAXY= 0.585354
##MINY= 0.163638
##XYDATA= (X++(Y..Y))
 10000.000000   1553955   1554564   1555563   1557273   1559281  
  9990.000000   1560950   1562096   1563048   1564183   1565657  
  9980.000000   1567402   1569042   1569913   1569313   1566840  
  9970.000000   1562610   1557214   1551613   1546808   1543607  
  9960.000000   1542362   1543021   1545117   1548006   1550919  
  9950.000000   1553152   1554128   1553514   1551277   1547688  
  9940.000000   1543274   1538646   1534374   1530759   1527858  
  9930.000000   1525429   1523185   1520880   1518474   1516119  
  9920.000000   1514030   1512399   1511233   1510461   1509996  
  9910.000000   1509933   1510583   1512375   1515634   1520284  
  9900.000000   1525742   1530939   1534643   1535828   1534032  
  9890.000000   1529520   1523190   1516313   1510137   1505582  
  9880.000000   1503031   1502372   1503097   1504521   1505887  
  9870.000000   1506486   1505740   1503282   1499129   1493662  
  9860.000000   1487686   1482122   1477848   1475316   1474516  
  9850.000000   1474984   1476099   1477420   1478856   1480782  
  9840.000000   1483743   1488216   1494269   1501426   1508826  
  9830.000000   1515395   1520285   1522930   1523220   1521289  
  9820.000000   1517477   1512214   1506075   1499850   1494515  
  9810.000000   1491133   1490503   1492908   1497831   1504106  
  9800.000000   1510154   1514568   1516497   1515951   1513695  
  9790.000000   1510900   1508707   1507798   1508309   1509864  
  9780.000000   1511880   1513793   1515227   1516029   1516175  
  9770.000000   1515737   1514820   1513623   1512437   1511597  
  9760.000000   1511382   1511814   1512632   1513300   1513231  
  9750.000000   1512070   1509858   1507152   1504769   1503582  
  9740.000000   1504105   1506394   1510004   1514219   1518287  
  9730.000000   1521598   1523762   1524508   1523667   1521085  
  9720.000000   1516793   1511054   1504501   1498035   1492613  
  9710.000000   1488991   1487427   1487724   1489277   1491486  
  9700.000000   1493921   1496531   1499465   1502833   1506451  
  9690.000000   1509686   1511699   1511663   1509242   1504660  
  9680.000000   1498754   1492617   1487284   1483449   1481336  
  9670.000000   1480863   1481737   1483726   1486587   1490091  
  9660.000000   1493834   1497261   1499735   1500747   1500117  
  9650.000000   1498057   1495112   1491870   1488791   1485986  
  9640.000000   1483363   1480743   1478108   1475674   1473753  
  9630.000000   1472606   1472157   1472045   1471720   1470807  
  9620.000000   1469353   1467888   1467231   1468033   1470427  
  9610.000000   1473785   1476964   1478686   1478140   1475283  
  9600.000000   1470904   1466286   1462668   1460825   1460785  
  9590.000000   1462030   1463800   1465545   1467112   1468681  
  9580.000000   1470488   1472494   1474267   1475057   1474153  
  9570.000000   1471161   1466288   1460233   1454031   1448682  
  9560.000000   1444893   1442996   1442902   1444378   1447031  
  9550.000000   1450542   1454527   1458612   1462364   1465365  
  9540.000000   1467292   1467956   1467337   1465458   1462361  
  9530.000000   1457989   1452351   1445587   1438211   1431071  
  9520.000000   1425193   1421436   1420104   1420820   1422589  
  9510.000000   1424234   1424845   1424178   1422732   1421513  
  9500.000000   1421589   1423598   1427479   1432466   1437442  
  9490.000000   1441348   1443638   1444348   1444024   1443321  
  9480.000000   1442731   1442368   1442016   1441303   1439917  
  9470.000000   1437772   1435048   1432136   1429485   1427511  
  9460.000000   1426450   1426408   1427300   1428931   1430996  
  9450.000000   1433115   1434921   1436099   1436518   1436219  
  9440.000000   1435416   1434383   1433370   1432537   1431962  
  9430.000000   1431695   1431805   1432425   1433659   1435551  
  9420.000000   1437920   1440402   1442453   1443575   1443465  
  9410.000000   1442154   1439970   1437388   1434833   1432510  
  9400.000000   1430380   1428238   1425860   1423156   1420204  
  9390.000000   1417230   1414482   1412128   1410234   1408766  
  9380.000000   1407716   1407099   1406974   1407307   1407917  
  9370.000000   1408458   1408569   1408062   1407099   1406194  
  9360.000000   1406080   1407408   1410467   1414955   1420029  
  9350.000000   1424537   1427449   1428221   1426954   1424315  
  9340.000000   1421224   1418553   1416866   1416360   1416904  
  9330.000000   1418193   1419853   1421507   1422764   1423222  
  9320.000000   1422506   1420400   1416973   1412677   1408248  
  9310.000000   1404507   1402059   1401113   1401430   1402486  
  9300.000000   1403701   1404705   1405436   1406070   1406813  
  9290.000000   1407662   1408362   1408436   1407496   1405388  
  9280.000000   1402392   1399090   1396198   1394271   1393507  
  9270.000000   1393793   1394794   1396248   1398019   1400188  
  9260.000000   1402842   1405936   1409138   1411864   1413487  
  9250.000000   1413513   1411831   1408663   1404547   1400041  
  9240.000000   1395599   1391462   1387708   1384418   1381733  
  9230.000000   1379971   1379458   1380446   1382876   1386398  
  9220.000000   1390407   1394209   1397219   1399027   1399539  
  9210.000000   1398811   1397097   1394652   1391801   1388867  
  9200.000000   1386192   1384114   1382871   1382610   1383301  
  9190.000000   1384861   1387139   1390025   1393369   1396965  
  9180.000000   1400469   1403372   1405117   1405190   1403405  
  9170.000000   1399956   1395503   1390910   1387026   1384415  
  9160.000000   1383228   1383270   1384103   1385354   1386779  
  9150.000000   1388390   1390253   1392413   1394754   1397003  
  9140.000000   1398862   1400078   1400594   1400435   1399682  
  9130.000000   1398329   1396291   1393493   1390009   1386261  
  9120.000000   1382973   1381040   1381119   1383387   1387327  
  9110.000000   1391867   1395666   1397581   1397058   1394270  
  9100.000000   1390007   1385312   1381135   1378033   1376146  
  9090.000000   1375275   1375121   1375429   1376065   1376925  
  9080.000000   1377844   1378576   1378859   1378549   1377716  
  9070.000000   1376701   1376015   1376116   1377191   1379080  
  9060.000000   1381363   1383550   1385273   1386432   1387176  
  9050.000000   1387744   1388269   1388635   1388544   1387642  
  9040.000000   1385760   1383027   1379878   1376900   1374595  
  9030.000000   1373215   1372698   1372806   1373276   1373991  
  9020.000000   1374985   1376369   1378159   1380155   1381948  
  9010.000000   1383070   1383247   1382531   1381348   1380318  
  9000.000000   1380021   1380716   1382214   1383965   1385302  
  8990.000000   1385752   1385227   1384053   1382785   1381969  
  8980.000000   1381877   1382438   1383290   1383988   1384220  
  8970.000000   1383915   1383264   1382556   1382032   1381760  
  8960.000000   1381610   1381371   1380871   1380109   1379270  
  8950.000000   1378661   1378589   1379227   1380542   1382301  
  8940.000000   1384155   1385735   1386762   1387081   1386696  
  8930.000000   1385734   1384428   1383055   1381891   1381175  
  8920.000000   1381061   1381595   1382688   1384147   1385708  
  8910.000000   1387114   1388136   1388644   1388609   1388099  
  8900.000000   1387260   1386270   1385313   1384525   1383983  
  8890.000000   1383661   1383462   1383231   1382840   1382229  
  8880.000000   1381460   1380692   1380134   1379953   1380209  
  8870.000000   1380816   1381611   1382408   1383140   1383856  
  8860.000000   1384746   1386005   1387753   1389918   1392265  
  8850.000000   1394460   1396245   1397555   1398583   1399699  
  8840.000000   1401300   1403636   1406688   1410165   1413596  
  8830.000000   1416518   1418623   1419880   1420476   1420746  
  8820.000000   1420990   1421412   1422054   1422852   1423675  
  8810.000000   1424401   1424914   1425113   1424863   1424044  
  8800.000000   1422575   1420513   1418088   1415704   1413845  
  8790.000000   1412906   1413044   1414086   1415578   1416945  
  8780.000000   1417703   1417647   1416942   1416051   1415576  
  8770.000000   1416013   1417580   1420126   1423198   1426199  
  8760.000000   1428604   1430107   1430716   1430685   1430420  
  8750.000000   1430298   1430569   1431266   1432241   1433225  
  8740.000000   1433960   1434289   1434224   1433953   1433778  
  8730.000000   1434043   1435006   1436770   1439235   1442124  
  8720.000000   1445068   1447695   1449741   1451096   1451832  
  8710.000000   1452148   1452309   1452563   1453089   1453961  
  8700.000000   1455154   1456581   1458108   1459603   1460935  
  8690.000000   1462028   1462852   1463453   1463929   1464390  
  8680.000000   1464939   1465590   1466283   1466865   1467182  
  8670.000000   1467128   1466748   1466230   1465893   1466081  
  8660.000000   1467054   1468904   1471526   1474676   1478057  
  8650.000000   1481422   1484623   1487632   1490484   1493213  
  8640.000000   1495796   1498142   1500154   1501758   1502973  
  8630.000000   1503886   1504634   1505318   1505953   1506476  
  8620.000000   1506780   1506817   1506641   1506457   1506550  
  8610.000000   1507201   1508546   1510540   1512930   1515374  
  8600.000000   1517542   1519254   1520528   1521562   1522636  
  8590.000000   1523976   1525675   1527631   1529603   1531289  
  8580.000000   1532457   1533008   1533009   1532664   1532241  
  8570.000000   1532010   1532158   1532787   1533883   1535365  
  8560.000000   1537090   1538888   1540584   1542021   1543081  
  8550.000000   1543713   1543951   1543905   1543754   1543679  
  8540.000000   1543845   1544331   1545140   1546188   1547349  
  8530.000000   1548495   1549529   1550432   1551243   1552058  
  8520.000000   1552975   1554074   1555380   1556854   1558401  
  8510.000000   1559890   1561204   1562243   1562976   1563412  
  8500.000000   1563625   1563699   1563722   1563754   1563829  
  8490.000000   1563973   1564206   1564584   1565194   1566165  
  8480.000000   1567614   1569618   1572145   1575047   1578048  
  8470.000000   1580793   1582929   1584189   1584489   1583941  
  8460.000000   1582852   1581629   1580690   1580332   1580655  
  8450.000000   1581551   1582749   1583925   1584797   1585231  
  8440.000000   1585272   1585127   1585067   1585346   1586104  
  8430.000000   1587335   1588902   1590583   1592163   1593484  
  8420.000000   1594507   1595285   1595942   1596601   1597350  
  8410.000000   1598208   1599131   1600046   1600883   1601616  
  8400.000000   1602273   1602943   1603729   1604726   1605952  
  8390.000000   1607364   1608828   1610182   1611260   1611951  
  8380.000000   1612230   1612155   1611845   1611433   1611023  
  8370.000000   1610668   1610362   1610079   1609787   1609501  
  8360.000000   1609268   1609186   1609338   1609791   1610534  
  8350.000000   1611501   1612565   1613582   1614408   1614929  
  8340.000000   1615078   1614845   1614276   1613466   1612552  
  8330.000000   1611681   1610980   1610521   1610289   1610200  
  8320.000000   1610114   1609905   1609502   1608932   1608320  
  8310.000000   1607836   1607625   1607740   1608115   1608574  
  8300.000000   1608901   1608921   1608591   1608020   1607453  
  8290.000000   1607172   1607408   1608256   1609638   1611322  
  8280.000000   1612984   1614321   1615131   1615375   1615171  
  8270.000000   1614754   1614395   1614323   1614635   1615267  
  8260.000000   1615998   1616527   1616568   1615945   1614657  
  8250.000000   1612899   1611004   1609345   1608205   1607676  
  8240.000000   1607638   1607803   1607836   1607468   1606599  
  8230.000000   1605339   1603952   1602783   1602115   1602111  
  8220.000000   1602754   1603898   1605318   1606788   1608110  
  8210.000000   1609138   1609751   1609862   1609407   1608383  
  8200.000000   1606856   1604986   1602990   1601104   1599489  
  8190.000000   1598197   1597134   1596130   1594987   1593582  
  8180.000000   1591892   1590004   1588057   1586175   1584407  
  8170.000000   1582707   1580966   1579078   1577016   1574870  
  8160.000000   1572837   1571161   1570045   1569579   1569694  
  8150.000000   1570184   1570751   1571093   1570987   1570333  
  8140.000000   1569181   1567680   1566044   1564457   1563046  
  8130.000000   1561833   1560756   1559689   1558511   1557139  
  8120.000000   1555580   1553929   1552346   1551004   1550026  
  8110.000000   1549445   1549188   1549104   1549023   1548807  
  8100.000000   1548408   1547872   1547322   1546902   1546710  
  8090.000000   1546765   1546979   1547202   1547263   1547035  
  8080.000000   1546466   1545592   1544508   1543325   1542127  
  8070.000000   1540943   1539746   1538472   1537064   1535490  
  8060.000000   1533779   1532012   1530304   1528778   1527530  
  8050.000000   1526618   1526041   1525768   1525733   1525871  
  8040.000000   1526121   1526440   1526792   1527142   1527450  
  8030.000000   1527651   1527677   1527437   1526866   1525915  
  8020.000000   1524591   1522949   1521099   1519187   1517370  
  8010.000000   1515797   1514571   1513750   1513319   1513219  
  8000.000000   1513343   1513569   1513774   1513855   1513745  
  7990.000000   1513410   1512868   1512163   1511375   1510580  
  7980.000000   1509858   1509252   1508775   1508408   1508107  
  7970.000000   1507832   1507559   1507300   1507088   1506972  
  7960.000000   1506983   1507116   1507316   1507491   1507534  
  7950.000000   1507357   1506920   1506246   1505413   1504531  
  7940.000000   1503710   1503025   1502506   1502132   1501848  
  7930.000000   1501582   1501267   1500859   1500343   1499742  
  7920.000000   1499109   1498523   1498068   1497817   1497798  
  7910.000000   1497990   1498305   1498624   1498820   1498806  
  7900.000000   1498566   1498150   1497664   1497207   1496841  
  7890.000000   1496549   1496247   1495815   1495157   1494248  
  7880.000000   1493163   1492060   1491133   1490551   1490401  
  7870.000000   1490667   1491232   1491929   1492588   1493082  
  7860.000000   1493356   1493419   1493327   1493151   1492948  
  7850.000000   1492759   1492598   1492476   1492403   1492402  
  7840.000000   1492492   1492686   1492961   1493260   1493477  
  7830.000000   1493487   1493170   1492443   1491299   1489811  
  7820.000000   1488127   1486437   1484922   1483724   1482903  
  7810.000000   1482453   1482303   1482367   1482555   1482802  
  7800.000000   1483047   1483237   1483297   1483156   1482760  
  7790.000000   1482107   1481271   1480379   1479578   1478973  
  7780.000000   1478574   1478279   1477904   1477260   1476228  
  7770.000000   1474819   1473179   1471536   1470112   1469037  
  7760.000000   1468305   1467787   1467298   1466688   1465910  
  7750.000000   1465048   1464267   1463756   1463629   1463893  
  7740.000000   1464437   1465078   1465630   1465949   1465971  
  7730.000000   1465693   1465154   1464406   1463503   1462506  
  7720.000000   1461492   1460556   1459794   1459272   1458994  
  7710.000000   1458886   1458814   1458624   1458193   1457474  
  7700.000000   1456512   1455422   1454360   1453459   1452807  
  7690.000000   1452424   1452282   1452321   1452480   1452712  
  7680.000000   1452984   1453271   1453544   1453772   1453918  
  7670.000000   1453955   1453874   1453684   1453416   1453113  
  7660.000000   1452823   1452588   1452434   1452364   1452351  
  7650.000000   1452345   1452278   1452084   1451717   1451171  
  7640.000000   1450484   1449735   1449023   1448437   1448042  
  7630.000000   1447852   1447845   1447962   1448140   1448309  
  7620.000000   1448422   1448436   1448335   1448117   1447819  
  7610.000000   1447510   1447301   1447308   1447633   1448317  
  7600.000000   1449325   1450537   1451791   1452913   1453783  
  7590.000000   1454354   1454676   1454857   1455033   1455315  
  7580.000000   1455760   1456360   1457065   1457806   1458524  
  7570.000000   1459189   1459795   1460358   1460895   1461419  
  7560.000000   1461933   1462433   1462921   1463399   1463884  
  7550.000000   1464383   1464909   1465453   1466009   1466561  
  7540.000000   1467105   1467649   1468229   1468900   1469734  
  7530.000000   1470793   1472117   1473692   1475451   1477275  
  7520.000000   1479026   1480570   1481834   1482808   1483575  
  7510.000000   1484262   1485020   1485956   1487130   1488516  
  7500.000000   1490047   1491622   1493168   1494646   1496065  
  7490.000000   1497466   1498896   1500387   1501956   1503596  
  7480.000000   1505302   1507070   1508918   1510858   1512904  
  7470.000000   1515037   1517223   1519396   1521502   1523494  
  7460.000000   1525372   1527157   1528911   1530693   1532560  
  7450.000000   1534539   1536637   1538846   1541155   1543572  
  7440.000000   1546118   1548829   1551734   1554834   1558089  
  7430.000000   1561405   1564648   1567673   1570366   1572673  
  7420.000000   1574624   1576322   1577919   1579567   1581374  
  7410.000000   1583381   1585555   1587816   1590071   1592250  
  7400.000000   1594323   1596298   1598202   1600061   1601886  
  7390.000000   1603675   1605432   1607177   1608962   1610858  
  7380.000000   1612935   1615231   1617735   1620380   1623073  
  7370.000000   1625713   1628227   1630578   1632770   1634828  
  7360.000000   1636789   1638684   1640543   1642405   1644314  
  7350.000000   1646325   1648485   1650815   1653286   1655829  
  7340.000000   1658345   1660744   1662962   1664993   1666873  
  7330.000000   1668669   1670448   1672258   1674113   1675999  
  7320.000000   1677885   1679743   1681547   1683291   1684970  
  7310.000000   1686592   1688156   1689674   1691153   1692610  
  7300.000000   1694055   1695496   1696922   1698317   1699646  
  7290.000000   1700882   1701996   1702982   1703838   1704580  
  7280.000000   1705221   1705784   1706295   1706782   1707278  
  7270.000000   1707810   1708394   1709029   1709702   1710393  
  7260.000000   1711096   1711822   1712612   1713511   1714567  
  7250.000000   1715786   1717150   1718591   1720043   1721440  
  7240.000000   1722776   1724073   1725414   1726869   1728509  
  7230.000000   1730341   1732357   1734499   1736732   1739020  
  7220.000000   1741374   1743808   1746362   1749054   1751909  
  7210.000000   1754921   1758100   1761427   1764900   1768481  
  7200.000000   1772137   1775798   1779418   1782938   1786366  
  7190.000000   1789719   1793077   1796511   1800107   1803902  
  7180.000000   1807916   1812126   1816514   1821057   1825759  
  7170.000000   1830620   1835647   1840806   1846055   1851308  
  7160.000000   1856498   1861559   1866484   1871284   1876026  
  7150.000000   1880770   1885599   1890559   1895692   1900995  
  7140.000000   1906462   1912056   1917758   1923539   1929410  
  7130.000000   1935378   1941487   1947757   1954224   1960873  
  7120.000000   1967690   1974610   1981596   1988592   1995595  
  7110.000000   2002609   2009680   2016846   2024162   2031651  
  7100.000000   2039337   2047209   2055251   2063405   2071604  
  7090.000000   2079746   2087742   2095505   2103010   2110280  
  7080.000000   2117412   2124530   2131768   2139212   2146889  
  7070.000000   2154760   2162742   2170751   2178730   2186660  
  7060.000000   2194552   2202420   2210258   2218033   2225692  
  7050.000000   2233189   2240506   2247668   2254726   2261744  
  7040.000000   2268763   2275801   2282842   2289874   2296884  
  7030.000000   2303893   2310918   2317981   2325054   2332089  
  7020.000000   2338996   2345705   2352168   2358403   2364462  
  7010.000000   2370432   2376370   2382311   2388226   2394075  
  7000.000000   2399791   2405345   2410712   2415914   2420957  
  6990.000000   2425866   2430638   2435291   2439824   2444268  
  6980.000000   2448630   2452929   2457134   2461217   2465118  
  6970.000000   2468815   2472299   2475627   2478861   2482089  
  6960.000000   2485346   2488650   2491955   2495215   2498363  
  6950.000000   2501371   2504209   2506876   2509350   2511625  
  6940.000000   2513686   2515565   2517317   2519047   2520855  
  6930.000000   2522822   2524949   2527168   2529342   2531328  
  6920.000000   2533010   2534360   2535419   2536302   2537129  
  6910.000000   2538009   2538995   2540106   2541330   2542654  
  6900.000000   2544066   2545554   2547081   2548591   2549998  
  6890.000000   2551221   2552209   2552968   2553571   2554130  
  6880.000000   2554765   2555560   2556542   2557682   2558905  
  6870.000000   2560131   2561293   2562361   2563336   2564240  
  6860.000000   2565102   2565948   2566792   2567642   2568493  
  6850.000000   2569332   2570138   2570887   2571559   2572152  
  6840.000000   2572683   2573190   2573713   2574286   2574911  
  6830.000000   2575568   2576213   2576811   2577344   2577839  
  6820.000000   2578338   2578903   2579568   2580333   2581150  
  6810.000000   2581949   2582644   2583175   2583504   2583632  
  6800.000000   2583574   2583370   2583053   2582670   2582260  
  6790.000000   2581870   2581531   2581264   2581051   2580863  
  6780.000000   2580640   2580343   2579938   2579439   2578873  
  6770.000000   2578289   2577719   2577183   2576670   2576160  
  6760.000000   2575628   2575058   2574438   2573763   2573017  
  6750.000000   2572183   2571239   2570188   2569054   2567897  
  6740.000000   2566786   2565782   2564905   2564124   2563360  
  6730.000000   2562511   2561487   2560244   2558797   2557222  
  6720.000000   2555629   2554133   2552822   2551742   2550885  
  6710.000000   2550201   2549606   2549008   2548316   2547467  
  6700.000000   2546431   2545223   2543885   2542488   2541092  
  6690.000000   2539743   2538452   2537206   2535975   2534739  
  6680.000000   2533488   2532235   2530990   2529761   2528521  
  6670.000000   2527236   2525853   2524346   2522715   2521006  
  6660.000000   2519276   2517590   2515973   2514422   2512891  
  6650.000000   2511333   2509707   2508006   2506244   2504450  
  6640.000000   2502641   2500813   2498941   2496995   2494958  
  6630.000000   2492847   2490703   2488590   2486558   2484643  
  6620.000000   2482840   2481123   2479451   2477790   2476113  
  6610.000000   2474412   2472677   2470897   2469054   2467125  
  6600.000000   2465095   2462959   2460732   2458442   2456129  
  6590.000000   2453832   2451588   2449429   2447377   2445446  
  6580.000000   2443631   2441915   2440266   2438648   2437038  
  6570.000000   2435430   2433841   2432299   2430832   2429442  
  6560.000000   2428101   2426754   2425342   2423820   2422187  
  6550.000000   2420481   2418772   2417130   2415603   2414193  
  6540.000000   2412868   2411568   2410243   2408863   2407432  
  6530.000000   2405980   2404550   2403178   2401887   2400686  
  6520.000000   2399575   2398547   2397598   2396712   2395872  
  6510.000000   2395046   2394203   2393312   2392362   2391353  
  6500.000000   2390306   2389244   2388190   2387157   2386152  
  6490.000000   2385179   2384246   2383363   2382538   2381770  
  6480.000000   2381037   2380309   2379546   2378723   2377834  
  6470.000000   2376893   2375926   2374956   2373986   2372996  
  6460.000000   2371952   2370822   2369590   2368269   2366893  
  6450.000000   2365509   2364154   2362850   2361598   2360385  
  6440.000000   2359198   2358028   2356872   2355729   2354594  
  6430.000000   2353456   2352303   2351129   2349946   2348777  
  6420.000000   2347659   2346615   2345653   2344753   2343878  
  6410.000000   2342986   2342052   2341074   2340082   2339116  
  6400.000000   2338220   2337419   2336717   2336092   2335513  
  6390.000000   2334941   2334343   2333697   2332992   2332230  
  6380.000000   2331424   2330598   2329782   2329004   2328280  
  6370.000000   2327612   2326982   2326363   2325728   2325068  
  6360.000000   2324385   2323699   2323024   2322363   2321697  
  6350.000000   2320993   2320216   2319352   2318409   2317424  
  6340.000000   2316443   2315503   2314613   2313760   2312907  
  6330.000000   2312026   2311097   2310129   2309141   2308156  
  6320.000000   2307175   2306186   2305153   2304053   2302871  
  6310.000000   2301626   2300342   2299056   2297775   2296494  
  6300.000000   2295175   2293789   2292311   2290750   2289122  
  6290.000000   2287459   2285771   2284053   2282273   2280401  
  6280.000000   2278411   2276310   2274120   2271891   2269657  
  6270.000000   2267451   2265273   2263120   2260972   2258824  
  6260.000000   2256662   2254483   2252270   2250004   2247654  
  6250.000000   2245208   2242665   2240054   2237421   2234818  
  6240.000000   2232277   2229807   2227383   2224965   2222509  
  6230.000000   2219988   2217392   2214739   2212049   2209348  
  6220.000000   2206651   2203967   2201298   2198647   2196021  
  6210.000000   2193425   2190864   2188335   2185830   2183336  
  6200.000000   2180846   2178356   2175870   2173394   2170936  
  6190.000000   2168502   2166100   2163738   2161435   2159203  
  6180.000000   2157055   2154982   2152964   2150959   2148926  
  6170.000000   2146833   2144671   2142461   2140240   2138056  
  6160.000000   2135942   2133913   2131958   2130050   2128161  
  6150.000000   2126267   2124360   2122437   2120508   2118577  
  6140.000000   2116647   2114717   2112796   2110891   2109024  
  6130.000000   2107211   2105473   2103813   2102233   2100718  
  6120.000000   2099258   2097837   2096449   2095087   2093753  
  6110.000000   2092445   2091171   2089933   2088748   2087623  
  6100.000000   2086572   2085598   2084706   2083884   2083128  
  6090.000000   2082427   2081782   2081188   2080650   2080158  
  6080.000000   2079713   2079296   2078906   2078530   2078182  
  6070.000000   2077865   2077605   2077408   2077294   2077264  
  6060.000000   2077327   2077479   2077727   2078061   2078481  
  6050.000000   2078965   2079503   2080072   2080675   2081311  
  6040.000000   2082009   2082785   2083667   2084655   2085750  
  6030.000000   2086938   2088215   2089579   2091048   2092630  
  6020.000000   2094331   2096122   2097957   2099769   2101498  
  6010.000000   2103103   2104582   2105964   2107299   2108631  
  6000.000000   2109991   2111378   2112777   2114163   2115527  
  5990.000000   2116869   2118209   2119567   2120957   2122381  
  5980.000000   2123832   2125303   2126802   2128347   2129964  
  5970.000000   2131674   2133480   2135364   2137292   2139226  
  5960.000000   2141147   2143048   2144943   2146844   2148754  
  5950.000000   2150652   2152504   2154270   2155932   2157498  
  5940.000000   2159016   2160553   2162180   2163946   2165869  
  5930.000000   2167930   2170085   2172284   2174482   2176652  
  5920.000000   2178782   2180874   2182937   2184974   2186991  
  5910.000000   2188985   2190953   2192887   2194779   2196621  
  5900.000000   2198409   2200146   2201844   2203529   2205229  
  5890.000000   2206975   2208787   2210676   2212639   2214661  
  5880.000000   2216721   2218791   2220843   2222843   2224765  
  5870.000000   2226580   2228281   2229870   2231380   2232853  
  5860.000000   2234347   2235905   2237570   2239351   2241258  
  5850.000000   2243285   2245436   2247715   2250134   2252697  
  5840.000000   2255401   2258225   2261145   2264132   2267166  
  5830.000000   2270236   2273335   2276454   2279568   2282639  
  5820.000000   2285610   2288432   2291060   2293480   2295684  
  5810.000000   2297695   2299517   2301169   2302636   2303928  
  5800.000000   2305028   2305958   2306719   2307346   2307833  
  5790.000000   2308199   2308419   2308496   2308409   2308172  
  5780.000000   2307781   2307254   2306582   2305763   2304778  
  5770.000000   2303629   2302329   2300926   2299484   2298080  
  5760.000000   2296776   2295613   2294600   2293725   2292968  
  5750.000000   2292310   2291750   2291292   2290952   2290728  
  5740.000000   2290617   2290589   2290621   2290675   2290738  
  5730.000000   2290792   2290843   2290889   2290947   2291023  
  5720.000000   2291139   2291306   2291543   2291857   2292252  
  5710.000000   2292713   2293225   2293765   2294325   2294900  
  5700.000000   2295503   2296149   2296853   2297622   2298454  
  5690.000000   2299337   2300257   2301200   2302151   2303095  
  5680.000000   2304010   2304873   2305655   2306336   2306901  
  5670.000000   2307351   2307698   2307964   2308165   2308319  
  5660.000000   2308428   2308497   2308524   2308514   2308467  
  5650.000000   2308389   2308275   2308128   2307939   2307713  
  5640.000000   2307454   2307179   2306904   2306642   2306394  
  5630.000000   2306151   2305897   2305620   2305314   2304988  
  5620.000000   2304659   2304345   2304055   2303791   2303540  
  5610.000000   2303293   2303037   2302772   2302495   2302211  
  5600.000000   2301913   2301589   2301220   2300794   2300302  
  5590.000000   2299753   2299158   2298534   2297885   2297212  
  5580.000000   2296499   2295739   2294923   2294056   2293143  
  5570.000000   2292191   2291196   2290150   2289038   2287857  
  5560.000000   2286615   2285341   2284073   2282848   2281689  
  5550.000000   2280600   2279562   2278553   2277552   2276549  
  5540.000000   2275548   2274564   2273605   2272677   2271775  
  5530.000000   2270890   2270016   2269152   2268303   2267471  
  5520.000000   2266651   2265832   2264995   2264124   2263209  
  5510.000000   2262255   2261271   2260270   2259258   2258237  
  5500.000000   2257198   2256139   2255059   2253973   2252891  
  5490.000000   2251823   2250759   2249681   2248555   2247360  
  5480.000000   2246085   2244742   2243353   2241949   2240541  
  5470.000000   2239131   2237694   2236206   2234641   2232994  
  5460.000000   2231262   2229459   2227592   2225667   2223682  
  5450.000000   2221641   2219555   2217448   2215348   2213278  
  5440.000000   2211251   2209262   2207303   2205366   2203460  
  5430.000000   2201600   2199813   2198109   2196491   2194936  
  5420.000000   2193430   2191955   2190533   2189193   2187992  
  5410.000000   2186956   2186106   2185412   2184846   2184363  
  5400.000000   2183960   2183636   2183438   2183383   2183504  
  5390.000000   2183777   2184190   2184700   2185311   2186022  
  5380.000000   2186888   2187933   2189204   2190685   2192373  
  5370.000000   2194212   2196196   2198287   2200518   2202880  
  5360.000000   2205425   2208141   2211078   2214223   2217653  
  5350.000000   2221378   2225496   2230015   2235010   2240438  
  5340.000000   2246336   2252639   2259398   2266575   2274253  
  5330.000000   2282398   2291078   2300225   2309885   2319984  
  5320.000000   2330606   2341728   2353489   2365887   2379054  
  5310.000000   2392944   2407638   2423044   2439233   2456140  
  5300.000000   2473876   2492426   2511932   2532388   2553910  
  5290.000000   2576437   2599996   2624434   2649683   2675546  
  5280.000000   2701959   2728812   2756164   2784045   2812599  
  5270.000000   2841865   2871859   2902434   2933369   2964385  
  5260.000000   2995229   3025762   3055930   3085806   3115430  
  5250.000000   3144852   3173952   3202608   3230542   3257623  
  5240.000000   3283659   3308711   3332764   3356015   3378483  
  5230.000000   3400313   3421409   3441793   3461272   3479834  
  5220.000000   3497322   3513819   3529276   3543874   3557621  
  5210.000000   3570697   3583057   3594784   3605734   3615922  
  5200.000000   3625196   3633626   3641152   3647925   3653933  
  5190.000000   3659312   3664004   3668072   3671415   3674085  
  5180.000000   3676014   3677303   3677935   3678022   3677539  
  5170.000000   3676563   3675046   3673056   3670568   3667679  
  5160.000000   3664389   3660795   3656882   3652707   3648228  
  5150.000000   3643484   3638439   3633144   3627582   3621797  
  5140.000000   3615768   3609525   3603048   3596374   3589510  
  5130.000000   3582517   3575416   3568260   3561052   3553815  
  5120.000000   3546534   3539223   3531874   3524512   3517142  
  5110.000000   3509783   3502428   3495077   3487712   3480331  
  5100.000000   3472926   3465513   3458099   3450706   3443341  
  5090.000000   3436019   3428740   3421514   3414334   3407200  
  5080.000000   3400091   3392986   3385847   3378650   3371366  
  5070.000000   3363991   3356526   3348990   3341393   3333749  
  5060.000000   3326049   3318290   3310457   3302556   3294594  
  5050.000000   3286600   3278596   3270611   3262656   3254736  
  5040.000000   3246844   3238974   3231119   3223279   3215458  
  5030.000000   3207658   3199887   3192144   3184438   3176772  
  5020.000000   3169167   3161634   3154204   3146887   3139710  
  5010.000000   3132674   3125802   3119090   3112565   3106224  
  5000.000000   3100098   3094171   3088463   3082940   3077614  
  4990.000000   3072452   3067486   3062708   3058183   3053924  
  4980.000000   3050003   3046421   3043229   3040399   3037956  
  4970.000000   3035856   3034120   3032709   3031651   3030912  
  4960.000000   3030526   3030457   3030738   3031328   3032258  
  4950.000000   3033484   3035037   3036873   3039021   3041442  
  4940.000000   3044169   3047174   3050497   3054115   3058068  
  4930.000000   3062324   3066910   3071781   3076949   3082363  
  4920.000000   3088030   3093904   3099999   3106282   3112778  
  4910.000000   3119472   3126396   3133537   3140915   3148501  
  4900.000000   3156287   3164225   3172298   3180469   3188741  
  4890.000000   3197107   3205581   3214163   3222845   3231598  
  4880.000000   3240382   3249152   3257867   3266501   3275032  
  4870.000000   3283454   3291752   3299918   3307926   3315769  
  4860.000000   3323429   3330918   3338237   3345410   3352435  
  4850.000000   3359327   3366065   3372658   3379088   3385383  
  4840.000000   3391548   3397627   3403623   3409565   3415424  
  4830.000000   3421197   3426836   3432327   3437632   3442749  
  4820.000000   3447654   3452355   3456832   3461098   3465142  
  4810.000000   3468988   3472641   3476138   3479487   3482721  
  4800.000000   3485838   3488862   3491785   3494631   3497396  
  4790.000000   3500105   3502749   3505342   3507860   3510301  
  4780.000000   3512634   3514856   3516946   3518910   3520736  
  4770.000000   3522437   3523998   3525432   3526722   3527882  
  4760.000000   3528898   3529784   3530524   3531131   3531581  
  4750.000000   3531887   3532028   3532020   3531851   3531537  
  4740.000000   3531063   3530438   3529636   3528659   3527484  
  4730.000000   3526122   3524566   3522844   3520968   3518971  
  4720.000000   3516865   3514679   3512419   3510108   3507754  
  4710.000000   3505381   3502998   3500631   3498282   3495966  
  4700.000000   3493675   3491410   3489153   3486896   3484619  
  4690.000000   3482312   3479959   3477549   3475067   3472503  
  4680.000000   3469847   3467091   3464233   3461274   3458229  
  4670.000000   3455114   3451965   3448812   3445700   3442662  
  4660.000000   3439732   3436927   3434266   3431752   3429396  
  4650.000000   3427196   3425164   3423300   3421613   3420092  
  4640.000000   3418740   3417534   3416468   3415520   3414684  
  4630.000000   3413940   3413280   3412678   3412119   3411573  
  4620.000000   3411027   3410461   3409882   3409291   3408707  
  4610.000000   3408134   3407584   3407048   3406525   3406007  
  4600.000000   3405502   3405026   3404609   3404282   3404078  
  4590.000000   3404011   3404083   3404275   3404555   3404883  
  4580.000000   3405222   3405539   3405815   3406042   3406223  
  4570.000000   3406369   3406487   3406583   3406651   3406679  
  4560.000000   3406641   3406517   3406286   3405940   3405487  
  4550.000000   3404943   3404336   3403692   3403036   3402382  
  4540.000000   3401746   3401133   3400560   3400032   3399579  
  4530.000000   3399205   3398947   3398806   3398823   3398995  
  4520.000000   3399375   3399960   3400812   3401920   3403349  
  4510.000000   3405081   3407189   3409664   3412602   3416011  
  4500.000000   3420001   3424587   3429867   3435836   3442570  
  4490.000000   3450041   3458297   3467286   3477022   3487409  
  4480.000000   3498409   3509883   3521760   3533899   3546245  
  4470.000000   3558701   3571260   3583876   3596574   3609336  
  4460.000000   3622181   3635092   3648068   3661078   3674095  
  4450.000000   3687080   3699990   3712795   3725462   3737991  
  4440.000000   3750372   3762639   3774786   3786850   3798801  
  4430.000000   3810658   3822359   3833910   3845234   3856338  
  4420.000000   3867133   3877622   3887697   3897349   3906445  
  4410.000000   3914962   3922756   3929798   3935954   3941212  
  4400.000000   3945476   3948776   3951083   3952487   3953023  
  4390.000000   3952825   3951966   3950587   3948769   3946646  
  4380.000000   3944305   3941877   3939472   3937227   3935264  
  4370.000000   3933703   3932646   3932156   3932285   3933028  
  4360.000000   3934386   3936309   3938771   3941704   3945074  
  4350.000000   3948814   3952893   3957262   3961909   3966811  
  4340.000000   3971972   3977370   3982974   3988701   3994425  
  4330.000000   3999967   4005125   4009694   4013511   4016497  
  4320.000000   4018660   4020122   4021066   4021737   4022341  
  4310.000000   4023073   4024016   4025218   4026619   4028163  
  4300.000000   4029734   4031268   4032673   4033918   4034954  
  4290.000000   4035773   4036353   4036704   4036826   4036751  
  4280.000000   4036500   4036123   4035648   4035127   4034574  
  4270.000000   4034028   4033482   4032943   4032370   4031724  
  4260.000000   4030926   4029902   4028563   4026858   4024758  
  4250.000000   4022295   4019542   4016618   4013650   4010772  
  4240.000000   4008081   4005641   4003462   4001528   3999785  
  4230.000000   3998181   3996652   3995146   3993616   3992020  
  4220.000000   3990327   3988512   3986575   3984529   3982419  
  4210.000000   3980298   3978234   3976279   3974474   3972824  
  4200.000000   3971321   3969924   3968597   3967287   3965975  
  4190.000000   3964626   3963253   3961845   3960452   3959084  
  4180.000000   3957818   3956684   3955778   3955138   3954870  
  4170.000000   3955007   3955652   3956824   3958606   3960987  
  4160.000000   3964019   3967647   3971893   3976675   3982014  
  4150.000000   3987837   3994189   4001018   4008386   4016246  
  4140.000000   4024656   4033559   4043002   4052928   4063382  
  4130.000000   4074312   4085762   4097681   4110103   4122971  
  4120.000000   4136311   4150064   4164250   4178814   4193772  
  4110.000000   4209071   4224724   4240682   4256951   4273487  
  4100.000000   4290295   4307335   4324611   4342093   4359781  
  4090.000000   4377652   4395697   4413891   4432214   4450643  
  4080.000000   4469154   4487740   4506376   4525061   4543754  
  4070.000000   4562437   4581037   4599528   4617833   4635955  
  4060.000000   4653838   4671512   4688912   4706052   4722824  
  4050.000000   4739221   4755119   4770541   4785385   4799702  
  4040.000000   4813377   4826434   4838710   4850200   4860739  
  4030.000000   4870362   4878953   4886590   4893184   4898789  
  4020.000000   4903268   4906672   4908935   4910160   4910307  
  4010.000000   4909576   4908076   4905908   4902906   4899210  
  4000.000000   4895160  
##END= 
