##TITLE= Sample 001 By ssteindl date Dienstag, November 20 2018
##JCAMP-DX= 4.24
##DATA TYPE= INFRARED SPECTRUM
##ORIGIN= Exported PE Spectrum Data File
##OWNER= Sandra Steindl
##DATE= 18/11/20
##TIME= 13:16:35.00
##SPECTROMETER/DATA SYSTEM= PERKIN-ELMER Frontier FT-IR/NIR IR
##INSTRUMENT PARAMETERS=
  APODIZATION=stark
  DETECTOR=INGAAS
##RESOLUTION= 16.000000
##DELTAX= -2.000000
##XUNITS= 1/CM
##YUNITS= A
##XFACTOR= 1.00
##YFACTOR= 0.00000011920928955078
##FIRSTX= 10000.00
##LASTX= 4000.00
##NPOINTS= 3001
##FIRSTY= 0.194736
##MAXY= 0.635473
##MINY= 0.169072
##XYDATA= (X++(Y..Y))
 10000.000000   1633568   1634814   1634990   1632852   1628545  
  9990.000000   1623083   1617102   1610807   1604576   1598997  
  9980.000000   1594414   1590853   1588212   1586252   1584627  
  9970.000000   1582959   1581063   1578900   1576581   1574263  
  9960.000000   1572127   1570338   1569103   1568685   1569406  
  9950.000000   1571547   1575247   1580371   1586499   1592938  
  9940.000000   1598877   1603517   1606260   1606794   1605188  
  9930.000000   1601819   1597350   1592552   1588218   1584989  
  9920.000000   1583231   1582959   1583772   1585032   1585973  
  9910.000000   1586071   1585139   1583499   1581798   1580804  
  9900.000000   1581086   1582768   1585495   1588488   1590884  
  9890.000000   1591945   1591361   1589247   1586111   1582617  
  9880.000000   1579405   1576939   1575465   1575050   1575618  
  9870.000000   1577027   1579052   1581446   1583912   1586198  
  9860.000000   1588106   1589566   1590614   1591350   1591879  
  9850.000000   1592220   1592304   1591988   1591129   1589687  
  9840.000000   1587753   1585594   1583534   1581910   1580906  
  9830.000000   1580547   1580641   1580863   1580818   1580120  
  9820.000000   1578538   1575991   1572664   1568886   1565109  
  9810.000000   1561739   1559047   1557123   1555877   1555199  
  9800.000000   1555051   1555608   1557187   1560134   1564552  
  9790.000000   1570142   1576142   1581479   1585072   1586159  
  9780.000000   1584566   1580744   1575647   1570388   1565910  
  9770.000000   1562716   1560820   1559856   1559291   1558643  
  9760.000000   1557555   1555862   1553484   1550476   1546960  
  9750.000000   1543234   1539754   1537101   1535859   1536357  
  9740.000000   1538554   1541893   1545476   1548262   1549448  
  9730.000000   1548691   1546245   1542832   1539392   1536774  
  9720.000000   1535489   1535650   1537013   1539165   1541667  
  9710.000000   1544175   1546452   1548332   1549644   1550189  
  9700.000000   1549754   1548180   1545471   1541812   1537621  
  9690.000000   1533419   1529765   1527099   1525659   1525438  
  9680.000000   1526187   1527501   1528932   1530118   1530877  
  9670.000000   1531238   1531390   1531595   1532069   1532924  
  9660.000000   1534154   1535671   1537389   1539255   1541267  
  9650.000000   1543403   1545545   1547423   1548629   1548744  
  9640.000000   1547490   1544899   1541323   1537389   1533779  
  9630.000000   1531047   1529445   1528910   1529122   1529670  
  9620.000000   1530158   1530305   1529936   1528965   1527380  
  9610.000000   1525233   1522713   1520128   1517914   1516501  
  9600.000000   1516170   1516933   1518464   1520252   1521754  
  9590.000000   1522668   1523015   1523120   1523415   1524168  
  9580.000000   1525316   1526376   1526658   1525470   1522485  
  9570.000000   1517841   1512187   1506443   1501525   1498104  
  9560.000000   1496422   1496377   1497556   1499500   1501763  
  9550.000000   1504075   1506286   1508369   1510323   1512104  
  9540.000000   1513613   1514633   1514926   1514184   1512220  
  9530.000000   1508943   1504560   1499509   1494468   1490156  
  9520.000000   1487136   1485670   1485620   1486605   1488116  
  9510.000000   1489799   1491501   1493335   1495500   1498163  
  9500.000000   1501297   1504651   1507822   1510371   1511960  
  9490.000000   1512416   1511727   1510002   1507412   1504186  
  9480.000000   1500614   1497052   1493883   1491400   1489697  
  9470.000000   1488539   1487394   1485579   1482535   1478127  
  9460.000000   1472767   1467380   1463116   1460990   1461547  
  9450.000000   1464692   1469766   1475740   1481564   1486380  
  9440.000000   1489718   1491444   1491717   1490851   1489257  
  9430.000000   1487405   1485784   1484853   1484928   1486095  
  9420.000000   1488163   1490706   1493180   1495077   1496018  
  9410.000000   1495817   1494439   1491950   1488487   1484259  
  9400.000000   1479622   1475118   1471450   1469373   1469412  
  9390.000000   1471694   1475756   1480717   1485466   1489061  
  9380.000000   1490972   1491182   1490130   1488388   1486468  
  9370.000000   1484527   1482471   1480028   1477054   1473637  
  9360.000000   1470139   1467088   1464981   1464182   1464760  
  9350.000000   1466589   1469326   1472596   1475987   1479118  
  9340.000000   1481644   1483282   1483906   1483566   1482528  
  9330.000000   1481149   1479771   1478550   1477423   1476126  
  9320.000000   1474369   1472002   1469140   1466183   1463633  
  9310.000000   1461900   1461068   1460890   1460885   1460596  
  9300.000000   1459792   1458610   1457478   1456913   1457245  
  9290.000000   1458458   1460186   1461872   1463025   1463374  
  9280.000000   1462971   1462054   1460924   1459738   1458487  
  9270.000000   1457033   1455266   1453208   1451077   1449199  
  9260.000000   1447896   1447352   1447546   1448320   1449437  
  9250.000000   1450721   1452052   1453401   1454746   1456046  
  9240.000000   1457222   1458194   1458952   1459566   1460149  
  9230.000000   1460738   1461225   1461329   1460711   1459111  
  9220.000000   1456498   1453156   1449611   1446485   1444247  
  9210.000000   1443083   1442837   1443141   1443576   1443843  
  9200.000000   1443837   1443620   1443328   1443043   1442755  
  9190.000000   1442372   1441840   1441203   1440649   1440423  
  9180.000000   1440723   1441594   1442902   1444380   1445733  
  9170.000000   1446756   1447402   1447751   1447941   1448050  
  9160.000000   1448075   1447923   1447503   1446792   1445880  
  9150.000000   1444955   1444232   1443897   1444033   1444655  
  9140.000000   1445679   1447028   1448589   1450266   1451913  
  9130.000000   1453350   1454378   1454830   1454643   1453844  
  9120.000000   1452565   1450936   1449059   1446947   1444571  
  9110.000000   1441926   1439105   1436378   1434113   1432711  
  9100.000000   1432420   1433294   1435135   1437568   1440120  
  9090.000000   1442363   1444002   1444866   1444907   1444130  
  9080.000000   1442647   1440624   1438325   1436064   1434174  
  9070.000000   1432906   1432339   1432363   1432721   1433142  
  9060.000000   1433436   1433574   1433650   1433807   1434105  
  9050.000000   1434458   1434647   1434432   1433702   1432559  
  9040.000000   1431327   1430441   1430274   1430959   1432285  
  9030.000000   1433787   1434905   1435194   1434473   1432850  
  9020.000000   1430683   1428387   1426306   1424588   1423215  
  9010.000000   1422061   1421005   1420000   1419113   1418486  
  9000.000000   1418282   1418614   1419487   1420822   1422449  
  8990.000000   1424165   1425755   1427044   1427954   1428501  
  8980.000000   1428818   1429077   1429463   1430040   1430738  
  8970.000000   1431314   1431464   1430901   1429502   1427382  
  8960.000000   1424893   1422549   1420854   1420199   1420738  
  8950.000000   1422391   1424867   1427782   1430737   1433396  
  8940.000000   1435494   1436865   1437463   1437343   1436686  
  8930.000000   1435736   1434809   1434144   1433888   1433995  
  8920.000000   1434298   1434555   1434552   1434222   1433654  
  8910.000000   1433123   1432939   1433412   1434703   1436826  
  8900.000000   1439614   1442785   1445998   1448887   1451135  
  8890.000000   1452478   1452787   1452042   1450383   1448070  
  8880.000000   1445470   1442973   1440911   1439536   1438974  
  8870.000000   1439276   1440374   1442171   1444480   1447083  
  8860.000000   1449684   1451958   1453614   1454441   1454401  
  8850.000000   1453574   1452180   1450444   1448599   1446794  
  8840.000000   1445155   1443789   1442858   1442549   1443020  
  8830.000000   1444332   1446367   1448848   1451386   1453639  
  8820.000000   1455436   1456845   1458142   1459654   1461622  
  8810.000000   1464040   1466661   1469050   1470791   1471624  
  8800.000000   1471580   1470929   1470084   1469432   1469206  
  8790.000000   1469445   1470006   1470700   1471356   1471934  
  8780.000000   1472489   1473162   1474101   1475411   1477122  
  8770.000000   1479160   1481358   1483453   1485130   1486074  
  8760.000000   1486073   1485111   1483449   1481605   1480246  
  8750.000000   1479991   1481186   1483766   1487237   1490823  
  8740.000000   1493729   1495376   1495611   1494698   1493236  
  8730.000000   1491880   1491148   1491232   1492038   1493278  
  8720.000000   1494660   1496024   1497383   1498914   1500822  
  8710.000000   1503274   1506287   1509739   1513401   1516985  
  8700.000000   1520227   1522867   1524739   1525724   1525832  
  8690.000000   1525192   1524077   1522865   1521963   1521729  
  8680.000000   1522369   1523927   1526274   1529182   1532379  
  8670.000000   1535619   1538708   1541487   1543831   1545614  
  8660.000000   1546780   1547347   1547490   1547500   1547746  
  8650.000000   1548573   1550193   1552643   1555759   1559271  
  8640.000000   1562855   1566273   1569376   1572121   1574486  
  8630.000000   1576442   1577933   1578882   1579265   1579126  
  8620.000000   1578639   1578032   1577538   1577307   1577371  
  8610.000000   1577666   1578070   1578515   1579018   1579713  
  8600.000000   1580775   1582363   1584531   1587201   1590172  
  8590.000000   1593180   1595988   1598436   1600472   1602129  
  8580.000000   1603496   1604675   1605756   1606809   1607899  
  8570.000000   1609081   1610389   1611820   1613301   1614711  
  8560.000000   1615886   1616697   1617086   1617112   1616937  
  8550.000000   1616780   1616833   1617203   1617875   1618731  
  8540.000000   1619605   1620368   1620978   1621513   1622121  
  8530.000000   1622972   1624165   1625709   1627496   1629361  
  8520.000000   1631131   1632682   1633971   1635001   1635809  
  8510.000000   1636403   1636771   1636870   1636685   1636245  
  8500.000000   1635666   1635110   1634751   1634715   1635052  
  8490.000000   1635730   1636676   1637818   1639130   1640637  
  8480.000000   1642391   1644421   1646689   1649087   1651465  
  8470.000000   1653704   1655776   1657758   1659812   1662094  
  8460.000000   1664670   1667442   1670146   1672424   1673953  
  8450.000000   1674554   1674263   1673337   1672172   1671189  
  8440.000000   1670684   1670797   1671477   1672583   1673907  
  8430.000000   1675307   1676686   1678036   1679347   1680600  
  8420.000000   1681714   1682578   1683080   1683141   1682756  
  8410.000000   1681987   1680972   1679870   1678840   1678007  
  8400.000000   1677450   1677199   1677227   1677469   1677832  
  8390.000000   1678218   1678546   1678776   1678925   1679069  
  8380.000000   1679319   1679784   1680547   1681619   1682963  
  8370.000000   1684473   1686021   1687473   1688723   1689710  
  8360.000000   1690415   1690882   1691206   1691526   1691980  
  8350.000000   1692683   1693666   1694868   1696106   1697152  
  8340.000000   1697778   1697866   1697446   1696711   1695952  
  8330.000000   1695453   1695364   1695638   1696024   1696170  
  8320.000000   1695758   1694646   1692934   1690974   1689238  
  8310.000000   1688178   1688042   1688806   1690189   1691753  
  8300.000000   1693056   1693776   1693803   1693222   1692263  
  8290.000000   1691179   1690181   1689382   1688825   1688504  
  8280.000000   1688415   1688546   1688885   1689386   1689954  
  8270.000000   1690464   1690771   1690801   1690572   1690228  
  8260.000000   1689979   1690041   1690543   1691483   1692707  
  8250.000000   1693958   1694936   1695404   1695235   1694451  
  8240.000000   1693187   1691648   1690033   1688502   1687139  
  8230.000000   1685962   1684934   1683995   1683068   1682102  
  8220.000000   1681050   1679913   1678698   1677466   1676282  
  8210.000000   1675238   1674395   1673781   1673358   1673029  
  8200.000000   1672662   1672106   1671247   1670013   1668407  
  8190.000000   1666475   1664309   1661999   1659639   1657311  
  8180.000000   1655101   1653103   1651415   1650145   1649363  
  8170.000000   1649112   1649356   1650013   1650936   1651959  
  8160.000000   1652912   1653638   1654015   1653937   1653344  
  8150.000000   1652198   1650524   1648403   1645993   1643510  
  8140.000000   1641184   1639218   1637718   1636691   1636022  
  8130.000000   1635542   1635065   1634461   1633681   1632752  
  8120.000000   1631740   1630702   1629655   1628564   1627386  
  8110.000000   1626093   1624735   1623414   1622278   1621445  
  8100.000000   1620953   1620729   1620596   1620336   1619758  
  8090.000000   1618778   1617448   1615946   1614510   1613367  
  8080.000000   1612655   1612393   1612476   1612722   1612916  
  8070.000000   1612873   1612466   1611657   1610486   1609056  
  8060.000000   1607512   1605996   1604624   1603440   1602415  
  8050.000000   1601445   1600400   1599171   1597728   1596141  
  8040.000000   1594567   1593203   1592204   1591630   1591413  
  8030.000000   1591384   1591340   1591118   1590664   1590030  
  8020.000000   1589351   1588762   1588338   1588056   1587810  
  8010.000000   1587463   1586917   1586154   1585246   1584314  
  8000.000000   1583467   1582755   1582145   1581540   1580832  
  7990.000000   1579946   1578881   1577694   1576478   1575314  
  7980.000000   1574240   1573249   1572314   1571423   1570600  
  7970.000000   1569916   1569455   1569274   1569370   1569666  
  7960.000000   1570029   1570305   1570380   1570184   1569728  
  7950.000000   1569060   1568257   1567382   1566492   1565622  
  7940.000000   1564813   1564118   1563599   1563317   1563307  
  7930.000000   1563560   1564013   1564560   1565079   1565453  
  7920.000000   1565608   1565508   1565174   1564653   1564026  
  7910.000000   1563375   1562789   1562344   1562099   1562090  
  7900.000000   1562313   1562735   1563280   1563861   1564381  
  7890.000000   1564768   1564978   1565007   1564878   1564626  
  7880.000000   1564284   1563866   1563372   1562798   1562148  
  7870.000000   1561455   1560773   1560175   1559726   1559464  
  7860.000000   1559377   1559411   1559474   1559479   1559364  
  7850.000000   1559124   1558802   1558478   1558234   1558117  
  7840.000000   1558127   1558204   1558258   1558186   1557919  
  7830.000000   1557425   1556719   1555861   1554927   1554012  
  7820.000000   1553203   1552589   1552235   1552188   1552442  
  7810.000000   1552946   1553584   1554202   1554633   1554744  
  7800.000000   1554467   1553818   1552893   1551828   1550769  
  7790.000000   1549821   1549038   1548417   1547916   1547496  
  7780.000000   1547119   1546780   1546477   1546220   1545995  
  7770.000000   1545782   1545546   1545257   1544893   1544444  
  7760.000000   1543901   1543250   1542462   1541513   1540392  
  7750.000000   1539128   1537794   1536500   1535361   1534458  
  7740.000000   1533805   1533335   1532919   1532412   1531702  
  7730.000000   1530756   1529632   1528461   1527402   1526587  
  7720.000000   1526088   1525883   1525894   1525996   1526077  
  7710.000000   1526044   1525853   1525489   1524976   1524348  
  7700.000000   1523663   1522990   1522416   1522027   1521894  
  7690.000000   1522043   1522436   1522984   1523556   1524033  
  7680.000000   1524334   1524447   1524420   1524326   1524228  
  7670.000000   1524137   1524011   1523766   1523320   1522629  
  7660.000000   1521717   1520669   1519607   1518652   1517880  
  7650.000000   1517313   1516918   1516629   1516379   1516112  
  7640.000000   1515797   1515415   1514967   1514462   1513938  
  7630.000000   1513454   1513104   1512987   1513183   1513718  
  7620.000000   1514545   1515546   1516568   1517463   1518140  
  7610.000000   1518573   1518817   1518948   1519046   1519137  
  7600.000000   1519212   1519221   1519129   1518927   1518655  
  7590.000000   1518391   1518223   1518234   1518470   1518953  
  7580.000000   1519684   1520658   1521866   1523281   1524848  
  7570.000000   1526459   1527974   1529237   1530137   1530631  
  7560.000000   1530780   1530715   1530612   1530619   1530832  
  7550.000000   1531262   1531857   1532534   1533225   1533904  
  7540.000000   1534590   1535323   1536137   1537030   1537966  
  7530.000000   1538876   1539713   1540449   1541129   1541829  
  7520.000000   1542666   1543736   1545108   1546788   1548730  
  7510.000000   1550842   1553024   1555175   1557235   1559166  
  7500.000000   1560976   1562681   1564319   1565912   1567486  
  7490.000000   1569044   1570601   1572167   1573776   1575467  
  7480.000000   1577288   1579273   1581432   1583741   1586146  
  7470.000000   1588568   1590938   1593198   1595339   1597382  
  7460.000000   1599385   1601410   1603518   1605743   1608092  
  7450.000000   1610540   1613053   1615591   1618126   1620644  
  7440.000000   1623147   1625644   1628145   1630650   1633148  
  7430.000000   1635619   1638044   1640416   1642749   1645078  
  7420.000000   1647447   1649891   1652418   1654997   1657561  
  7410.000000   1660029   1662332   1664447   1666403   1668280  
  7400.000000   1670180   1672192   1674365   1676693   1679128  
  7390.000000   1681599   1684049   1686446   1688786   1691081  
  7380.000000   1693341   1695560   1697723   1699811   1701835  
  7370.000000   1703833   1705882   1708059   1710427   1713002  
  7360.000000   1715744   1718578   1721414   1724186   1726868  
  7350.000000   1729484   1732089   1734738   1737465   1740254  
  7340.000000   1743049   1745760   1748294   1750581   1752590  
  7330.000000   1754353   1755947   1757500   1759143   1761002  
  7320.000000   1763133   1765531   1768106   1770727   1773234  
  7310.000000   1775505   1777468   1779140   1780581   1781891  
  7300.000000   1783146   1784399   1785659   1786920   1788174  
  7290.000000   1789431   1790704   1792004   1793305   1794559  
  7280.000000   1795682   1796611   1797318   1797844   1798285  
  7270.000000   1798768   1799402   1800237   1801250   1802357  
  7260.000000   1803454   1804455   1805328   1806091   1806811  
  7250.000000   1807552   1808380   1809315   1810372   1811538  
  7240.000000   1812818   1814204   1815709   1817319   1819033  
  7230.000000   1820827   1822714   1824702   1826843   1829157  
  7220.000000   1831664   1834315   1837048   1839762   1842406  
  7210.000000   1844968   1847537   1850241   1853239   1856626  
  7200.000000   1860424   1864537   1868823   1873104   1877263  
  7190.000000   1881239   1885075   1888845   1892661   1896588  
  7180.000000   1900668   1904878   1909187   1913541   1917919  
  7170.000000   1922301   1926705   1931141   1935646   1940235  
  7160.000000   1944938   1949756   1954686   1959693   1964744  
  7150.000000   1969794   1974841   1979906   1985075   1990440  
  7140.000000   1996105   2002098   2008402   2014900   2021467  
  7130.000000   2027957   2034309   2040509   2046643   2052815  
  7120.000000   2059154   2065731   2072582   2079670   2086944  
  7110.000000   2094331   2101792   2109292   2116838   2124428  
  7100.000000   2132086   2139811   2147611   2155466   2163356  
  7090.000000   2171237   2179076   2186837   2194524   2202165  
  7080.000000   2209831   2217596   2225526   2233638   2241900  
  7070.000000   2250226   2258523   2266711   2274761   2282693  
  7060.000000   2290565   2298433   2306336   2314277   2322238  
  7050.000000   2330204   2338174   2346178   2354246   2362404  
  7040.000000   2370623   2378843   2386963   2394904   2402605  
  7030.000000   2410074   2417348   2424488   2431527   2438469  
  7020.000000   2445268   2451882   2458272   2464453   2470468  
  7010.000000   2476400   2482308   2488240   2494186   2500134  
  7000.000000   2506041   2511904   2517713   2523496   2529255  
  6990.000000   2535003   2540704   2546338   2551855   2557235  
  6980.000000   2562447   2567474   2572276   2576819   2581054  
  6970.000000   2584967   2588555   2591877   2594997   2598015  
  6960.000000   2600994   2603996   2607030   2610109   2613208  
  6950.000000   2616324   2619424   2622485   2625455   2628289  
  6940.000000   2630935   2633384   2635647   2637780   2639841  
  6930.000000   2641890   2643948   2646018   2648071   2650097  
  6920.000000   2652088   2654071   2656063   2658071   2660055  
  6910.000000   2661947   2663657   2665119   2666312   2667278  
  6900.000000   2668107   2668909   2669774   2670759   2671876  
  6890.000000   2673120   2674471   2675933   2677502   2679178  
  6880.000000   2680927   2682691   2684387   2685936   2687289  
  6870.000000   2688437   2689416   2690283   2691094   2691889  
  6860.000000   2692688   2693502   2694341   2695233   2696199  
  6850.000000   2697261   2698401   2699581   2700732   2701797  
  6840.000000   2702735   2703549   2704268   2704938   2705596  
  6830.000000   2706256   2706907   2707529   2708106   2708640  
  6820.000000   2709142   2709629   2710100   2710550   2710960  
  6810.000000   2711329   2711674   2712039   2712471   2713006  
  6800.000000   2713632   2714296   2714907   2715376   2715641  
  6790.000000   2715695   2715579   2715371   2715145   2714960  
  6780.000000   2714838   2714783   2714779   2714821   2714896  
  6770.000000   2715002   2715117   2715214   2715250   2715191  
  6760.000000   2715014   2714717   2714312   2713809   2713210  
  6750.000000   2712514   2711716   2710840   2709934   2709082  
  6740.000000   2708364   2707847   2707538   2707399   2707337  
  6730.000000   2707251   2707053   2706694   2706161   2705468  
  6720.000000   2704629   2703659   2702566   2701372   2700118  
  6710.000000   2698873   2697705   2696665   2695751   2694919  
  6700.000000   2694079   2693152   2692088   2690897   2689636  
  6690.000000   2688386   2687210   2686126   2685104   2684085  
  6680.000000   2683008   2681847   2680610   2679343   2678087  
  6670.000000   2676874   2675693   2674517   2673303   2672027  
  6660.000000   2670680   2669276   2667828   2666342   2664802  
  6650.000000   2663188   2661479   2659677   2657804   2655900  
  6640.000000   2653998   2652126   2650285   2648467   2646659  
  6630.000000   2644864   2643095   2641378   2639730   2638155  
  6620.000000   2636631   2635118   2633566   2631933   2630190  
  6610.000000   2628326   2626347   2624270   2622126   2619958  
  6600.000000   2617814   2615748   2613797   2611976   2610264  
  6590.000000   2608614   2606960   2605251   2603462   2601606  
  6580.000000   2599726   2597877   2596101   2594413   2592803  
  6570.000000   2591237   2589683   2588116   2586524   2584904  
  6560.000000   2583252   2581558   2579814   2578021   2576205  
  6550.000000   2574410   2572697   2571122   2569713   2568459  
  6540.000000   2567318   2566227   2565132   2564001   2562833  
  6530.000000   2561641   2560448   2559260   2558070   2556855  
  6520.000000   2555602   2554306   2552988   2551680   2550416  
  6510.000000   2549218   2548092   2547027   2546006   2545016  
  6500.000000   2544050   2543107   2542182   2541265   2540338  
  6490.000000   2539381   2538381   2537341   2536276   2535211  
  6480.000000   2534167   2533156   2532175   2531210   2530247  
  6470.000000   2529276   2528295   2527312   2526334   2525367  
  6460.000000   2524410   2523460   2522512   2521563   2520611  
  6450.000000   2519655   2518686   2517697   2516680   2515631  
  6440.000000   2514560   2513480   2512410   2511360   2510332  
  6430.000000   2509311   2508279   2507218   2506126   2505010  
  6420.000000   2503891   2502792   2501731   2500721   2499771  
  6410.000000   2498891   2498098   2497407   2496831   2496360  
  6400.000000   2495966   2495601   2495211   2494754   2494214  
  6390.000000   2493605   2492965   2492336   2491752   2491222  
  6380.000000   2490737   2490265   2489771   2489223   2488596  
  6370.000000   2487879   2487069   2486180   2485239   2484296  
  6360.000000   2483407   2482631   2482005   2481533   2481174  
  6350.000000   2480858   2480499   2480032   2479421   2478674  
  6340.000000   2477831   2476943   2476049   2475174   2474315  
  6330.000000   2473467   2472621   2471786   2470969   2470186  
  6320.000000   2469425   2468669   2467874   2467009   2466049  
  6310.000000   2464998   2463871   2462699   2461493   2460261  
  6300.000000   2458985   2457653   2456249   2454783   2453261  
  6290.000000   2451701   2450098   2448442   2446704   2444876  
  6280.000000   2442955   2440977   2438985   2437030   2435129  
  6270.000000   2433275   2431417   2429497   2427455   2425271  
  6260.000000   2422954   2420554   2418127   2415725   2413367  
  6250.000000   2411047   2408728   2406368   2403927   2401394  
  6240.000000   2398769   2396086   2393382   2390704   2388091  
  6230.000000   2385566   2383131   2380762   2378419   2376052  
  6220.000000   2373615   2371082   2368451   2365746   2363009  
  6210.000000   2360283   2357607   2355000   2352471   2350015  
  6200.000000   2347625   2345290   2343002   2340747   2338503  
  6190.000000   2336249   2333965   2331643   2329293   2326935  
  6180.000000   2324603   2322320   2320100   2317938   2315819  
  6170.000000   2313720   2311629   2309536   2307447   2305367  
  6160.000000   2303302   2301254   2299228   2297232   2295282  
  6150.000000   2293402   2291616   2289935   2288354   2286844  
  6140.000000   2285364   2283863   2282301   2280652   2278913  
  6130.000000   2277092   2275219   2273320   2271433   2269591  
  6120.000000   2267829   2266169   2264627   2263199   2261871  
  6110.000000   2260617   2259415   2258245   2257108   2256006  
  6100.000000   2254952   2253946   2252991   2252069   2251177  
  6090.000000   2250305   2249471   2248688   2247984   2247366  
  6080.000000   2246838   2246377   2245969   2245588   2245240  
  6070.000000   2244929   2244686   2244524   2244463   2244488  
  6060.000000   2244594   2244750   2244952   2245188   2245475  
  6050.000000   2245819   2246247   2246761   2247381   2248103  
  6040.000000   2248939   2249885   2250953   2252132   2253426  
  6030.000000   2254822   2256322   2257918   2259622   2261428  
  6020.000000   2263337   2265323   2267358   2269399   2271417  
  6010.000000   2273386   2275311   2277195   2279061   2280906  
  6000.000000   2282728   2284502   2286211   2287848   2289435  
  5990.000000   2291010   2292633   2294351   2296197   2298175  
  5980.000000   2300273   2302465   2304730   2307060   2309459  
  5970.000000   2311931   2314477   2317085   2319737   2322404  
  5960.000000   2325073   2327726   2330363   2332974   2335555  
  5950.000000   2338086   2340555   2342952   2345290   2347596  
  5940.000000   2349915   2352290   2354757   2357335   2360021  
  5930.000000   2362805   2365668   2368595   2371567   2374564  
  5920.000000   2377557   2380509   2383384   2386153   2388811  
  5910.000000   2391369   2393861   2396316   2398758   2401195  
  5900.000000   2403618   2406019   2408393   2410757   2413135  
  5890.000000   2415561   2418050   2420605   2423200   2425796  
  5880.000000   2428351   2430832   2433224   2435523   2437742  
  5870.000000   2439887   2441974   2444011   2446016   2448011  
  5860.000000   2450028   2452097   2454249   2456499   2458860  
  5850.000000   2461334   2463925   2466633   2469464   2472411  
  5840.000000   2475467   2478606   2481807   2485042   2488297  
  5830.000000   2491564   2494840   2498118   2501376   2504583  
  5820.000000   2507695   2510679   2513508   2516190   2518730  
  5810.000000   2521157   2523470   2525672   2527725   2529614  
  5800.000000   2531303   2532805   2534120   2535295   2536335  
  5790.000000   2537268   2538064   2538714   2539165   2539397  
  5780.000000   2539365   2539060   2538451   2537535   2536305  
  5770.000000   2534791   2533035   2531124   2529145   2527198  
  5760.000000   2525350   2523649   2522100   2520693   2519411  
  5750.000000   2518247   2517204   2516294   2515526   2514889  
  5740.000000   2514368   2513922   2513531   2513167   2512841  
  5730.000000   2512556   2512342   2512202   2512148   2512164  
  5720.000000   2512246   2512377   2512559   2512790   2513077  
  5710.000000   2513416   2513807   2514241   2514716   2515233  
  5700.000000   2515802   2516431   2517126   2517880   2518675  
  5690.000000   2519490   2520298   2521083   2521831   2522536  
  5680.000000   2523186   2523773   2524277   2524683   2524976  
  5670.000000   2525153   2525210   2525155   2524981   2524689  
  5660.000000   2524270   2523730   2523080   2522352   2521582  
  5650.000000   2520813   2520066   2519356   2518670   2517997  
  5640.000000   2517317   2516627   2515932   2515245   2514577  
  5630.000000   2513938   2513328   2512743   2512182   2511647  
  5620.000000   2511146   2510683   2510257   2509860   2509478  
  5610.000000   2509096   2508705   2508308   2507911   2507522  
  5600.000000   2507140   2506759   2506359   2505928   2505451  
  5590.000000   2504932   2504374   2503787   2503166   2502504  
  5580.000000   2501779   2500981   2500100   2499150   2498143  
  5570.000000   2497102   2496032   2494933   2493787   2492586  
  5560.000000   2491325   2490022   2488704   2487404   2486146  
  5550.000000   2484937   2483767   2482620   2481480   2480343  
  5540.000000   2479218   2478121   2477067   2476064   2475109  
  5530.000000   2474193   2473309   2472454   2471627   2470831  
  5520.000000   2470058   2469295   2468518   2467704   2466837  
  5510.000000   2465912   2464932   2463907   2462840   2461735  
  5500.000000   2460584   2459392   2458163   2456918   2455677  
  5490.000000   2454461   2453265   2452077   2450866   2449608  
  5480.000000   2448282   2446894   2445456   2443992   2442511  
  5470.000000   2441013   2439477   2437882   2436204   2434441  
  5460.000000   2432593   2430676   2428697   2426661   2424565  
  5450.000000   2422411   2420209   2417980   2415751   2413548  
  5440.000000   2411385   2409262   2407174   2405115   2403092  
  5430.000000   2401118   2399219   2397399   2395662   2393983  
  5420.000000   2392348   2390742   2389191   2387728   2386415  
  5410.000000   2385282   2384353   2383591   2382964   2382414  
  5400.000000   2381930   2381504   2381178   2380976   2380940  
  5390.000000   2381061   2381341   2381745   2382278   2382930  
  5380.000000   2383741   2384718   2385893   2387235   2388742  
  5370.000000   2390358   2392089   2393909   2395865   2397959  
  5360.000000   2400254   2402741   2405475   2408441   2411710  
  5350.000000   2415289   2419269   2423651   2428505   2433787  
  5340.000000   2439535   2445690   2452315   2459385   2466999  
  5330.000000   2475132   2483859   2493105   2502903   2513161  
  5320.000000   2523947   2535221   2547123   2559658   2572981  
  5310.000000   2587066   2602017   2617753   2634346   2651717  
  5300.000000   2669962   2689043   2709095   2730106   2752203  
  5290.000000   2775338   2799559   2824723   2850764   2877476  
  5280.000000   2904781   2932549   2960825   2989634   3019125  
  5270.000000   3049346   3080330   3111942   3143968   3176128  
  5260.000000   3208162   3239920   3271341   3302492   3333410  
  5250.000000   3364146   3394577   3424575   3453853   3482265  
  5240.000000   3509610   3535942   3561247   3585730   3609416  
  5230.000000   3632466   3654789   3676411   3697129   3716925  
  5220.000000   3735629   3753317   3769935   3785665   3800515  
  5210.000000   3814663   3828052   3840754   3852605   3863615  
  5200.000000   3873634   3882751   3890927   3898341   3904997  
  5190.000000   3911039   3916397   3921122   3925094   3928359  
  5180.000000   3930852   3932689   3933862   3934493   3934545  
  5170.000000   3934084   3933036   3931453   3929299   3926678  
  5160.000000   3923602   3920184   3916416   3912358   3907961  
  5150.000000   3903255   3898202   3892859   3887221   3881354  
  5140.000000   3875250   3868948   3862423   3855704   3848779  
  5130.000000   3841698   3834473   3827160   3819770   3812344  
  5120.000000   3804884   3797424   3789967   3782541   3775141  
  5110.000000   3767765   3760380   3752960   3745473   3737916  
  5100.000000   3730304   3722680   3715088   3707571   3700143  
  5090.000000   3692803   3685523   3678281   3671050   3663828  
  5080.000000   3656610   3649405   3642204   3635001   3627769  
  5070.000000   3620492   3613150   3605742   3598270   3590749  
  5060.000000   3583184   3575588   3567958   3560302   3552614  
  5050.000000   3544901   3537160   3529396   3521603   3513780  
  5040.000000   3505924   3498047   3490163   3482299   3474481  
  5030.000000   3466728   3459050   3451439   3443888   3436377  
  5020.000000   3428907   3421477   3414113   3406831   3399668  
  5010.000000   3392635   3385760   3379039   3372492   3366108  
  5000.000000   3359908   3353876   3348038   3342379   3336934  
  4990.000000   3331699   3326729   3322033   3317670   3313638  
  4980.000000   3309977   3306649   3303671   3300995   3298648  
  4970.000000   3296604   3294917   3293575   3292631   3292045  
  4960.000000   3291840   3291951   3292392   3293118   3294177  
  4950.000000   3295556   3297326   3299470   3302033   3304964  
  4940.000000   3308276   3311909   3315882   3320158   3324776  
  4930.000000   3329707   3334987   3340570   3346473   3352647  
  4920.000000   3359112   3365834   3372846   3380125   3387696  
  4910.000000   3395524   3403614   3411926   3420463   3429197  
  4900.000000   3438143   3447283   3456627   3466149   3475837  
  4890.000000   3485650   3495555   3505508   3515472   3525410  
  4880.000000   3535284   3545070   3554734   3564263   3573627  
  4870.000000   3582817   3591801   3600568   3609084   3617350  
  4860.000000   3625344   3633089   3640586   3647878   3654972  
  4850.000000   3661907   3668675   3675301   3681764   3688086  
  4840.000000   3694249   3700283   3706179   3711970   3717643  
  4830.000000   3723222   3728681   3734029   3739230   3744282  
  4820.000000   3749146   3753822   3758280   3762534   3766571  
  4810.000000   3770418   3774074   3777567   3780892   3784071  
  4800.000000   3787095   3789986   3792743   3795400   3797967  
  4790.000000   3800483   3802956   3805412   3807843   3810255  
  4780.000000   3812628   3814957   3817215   3819400   3821487  
  4770.000000   3823480   3825363   3827149   3828830   3830423  
  4760.000000   3831915   3833312   3834587   3835731   3836710  
  4750.000000   3837517   3838124   3838541   3838752   3838774  
  4740.000000   3838592   3838224   3837658   3836915   3835994  
  4730.000000   3834926   3833718   3832404   3830983   3829475  
  4720.000000   3827872   3826186   3824411   3822565   3820655  
  4710.000000   3818705   3816721   3814721   3812703   3810677  
  4700.000000   3808640   3806606   3804581   3802583   3800622  
  4690.000000   3798709   3796842   3795019   3793224   3791441  
  4680.000000   3789648   3787821   3785940   3783980   3781934  
  4670.000000   3779794   3777576   3775299   3773003   3770721  
  4660.000000   3768497   3766355   3764324   3762412   3760641  
  4650.000000   3759018   3757564   3756290   3755210   3754318  
  4640.000000   3753608   3753053   3752633   3752319   3752101  
  4630.000000   3751964   3751909   3751919   3751985   3752075  
  4620.000000   3752159   3752196   3752164   3752038   3751819  
  4610.000000   3751511   3751130   3750694   3750223   3749735  
  4600.000000   3749250   3748786   3748360   3747991   3747688  
  4590.000000   3747456   3747291   3747184   3747115   3747064  
  4580.000000   3747006   3746918   3746778   3746572   3746295  
  4570.000000   3745954   3745560   3745133   3744685   3744224  
  4560.000000   3743746   3743239   3742686   3742077   3741407  
  4550.000000   3740677   3739899   3739077   3738218   3737316  
  4540.000000   3736375   3735393   3734397   3733411   3732491  
  4530.000000   3731673   3731014   3730525   3730239   3730132  
  4520.000000   3730228   3730500   3730992   3731694   3732676  
  4510.000000   3733938   3735562   3737543   3739969   3742834  
  4500.000000   3746236   3750171   3754742   3759946   3765878  
  4490.000000   3772524   3779964   3788158   3797153   3806872  
  4480.000000   3817318   3828378   3840029   3852158   3864749  
  4470.000000   3877722   3891082   3904771   3918798   3933099  
  4460.000000   3947657   3962393   3977262   3992178   4007082  
  4450.000000   4021900   4036577   4051069   4065351   4079429  
  4440.000000   4093313   4107052   4120662   4134196   4147636  
  4430.000000   4161005   4174238   4187337   4200216   4212877  
  4420.000000   4225224   4237262   4248874   4260047   4270637  
  4410.000000   4280609   4289814   4298227   4305726   4312321  
  4400.000000   4317941   4322636   4326381   4329262   4331296  
  4390.000000   4332598   4333229   4333337   4333023   4332448  
  4380.000000   4331729   4331016   4330417   4330059   4330038  
  4370.000000   4330455   4331388   4332901   4335032   4337780  
  4360.000000   4341127   4345004   4349349   4354062   4359066  
  4350.000000   4364276   4369631   4375084   4380611   4386205  
  4340.000000   4391871   4397610   4403396   4409161   4414766  
  4330.000000   4420023   4424686   4428529   4431363   4433126  
  4320.000000   4433870   4433812   4433235   4432492   4431864  
  4310.000000   4431588   4431735   4432318   4433221   4434339  
  4300.000000   4435527   4436710   4437807   4438799   4439653  
  4290.000000   4440359   4440895   4441255   4441436   4441459  
  4280.000000   4441348   4441155   4440909   4440665   4440435  
  4270.000000   4440257   4440114   4440003   4439856   4439601  
  4260.000000   4439108   4438255   4436905   4434982   4432451  
  4250.000000   4429372   4425858   4422084   4418226   4414461  
  4240.000000   4410902   4407627   4404637   4401910   4399380  
  4230.000000   4396990   4394669   4392363   4390020   4387595  
  4220.000000   4385056   4382372   4379546   4376587   4373547  
  4210.000000   4370480   4367467   4364567   4361842   4359315  
  4200.000000   4357003   4354887   4352956   4351173   4349529  
  4190.000000   4347987   4346554   4345195   4343932   4342736  
  4180.000000   4341650   4340667   4339863   4339262   4338980  
  4170.000000   4339064   4339645   4340766   4342533   4344944  
  4160.000000   4348050   4351786   4356160   4361076   4366542  
  4150.000000   4372482   4378939   4385864   4393324   4401273  
  4140.000000   4409771   4418756   4428279   4438274   4448796  
  4130.000000   4459798   4471347   4483411   4496055   4509245  
  4120.000000   4523028   4537355   4552247   4567640   4583537  
  4110.000000   4599867   4616628   4633750   4651224   4668981  
  4100.000000   4687000   4705214   4723602   4742117   4760755  
  4090.000000   4779502   4798368   4817355   4836464   4855697  
  4080.000000   4875041   4894501   4914051   4933698   4953390  
  4070.000000   4973109   4992760   5012300   5031616   5050684  
  4060.000000   5069415   5087824   5105838   5123480   5140652  
  4050.000000   5157370   5173524   5189155   5204171   5218637  
  4040.000000   5232446   5245639   5258057   5269712   5280433  
  4030.000000   5290256   5299049   5306875   5313623   5319340  
  4020.000000   5323877   5327288   5329518   5330678   5330732  
  4010.000000   5329887   5328253   5325926   5322718   5318767  
  4000.000000   5314438  
##END= 
