##TITLE= Sample 032 By ssteindl date Dienstag, November 20 2018
##JCAMP-DX= 4.24
##DATA TYPE= INFRARED SPECTRUM
##ORIGIN= Exported PE Spectrum Data File
##OWNER= Sandra Steindl
##DATE= 18/11/20
##TIME= 11:51:10.00
##SPECTROMETER/DATA SYSTEM= PERKIN-ELMER Frontier FT-IR/NIR IR
##INSTRUMENT PARAMETERS=
  APODIZATION=stark
  DETECTOR=INGAAS
##RESOLUTION= 16.000000
##DELTAX= -2.000000
##XUNITS= 1/CM
##YUNITS= A
##XFACTOR= 1.00
##YFACTOR= 0.00000011920928955078
##FIRSTX= 10000.00
##LASTX= 4000.00
##NPOINTS= 3001
##FIRSTY= 0.203977
##MAXY= 0.676814
##MINY= 0.178265
##XYDATA= (X++(Y..Y))
 10000.000000   1711081   1717251   1723223   1728648   1733111  
  9990.000000   1736435   1738723   1740391   1741913   1743642  
  9980.000000   1745499   1747013   1747379   1745946   1742481  
  9970.000000   1737540   1732207   1727903   1725682   1725982  
  9960.000000   1728324   1731625   1734558   1736045   1735583  
  9950.000000   1733215   1729403   1724637   1719280   1713482  
  9940.000000   1707339   1701093   1695242   1690525   1687710  
  9930.000000   1687372   1689667   1694297   1700529   1707387  
  9920.000000   1713803   1718778   1721548   1721643   1719058  
  9910.000000   1714243   1708131   1701956   1696971   1694122  
  9900.000000   1693720   1695384   1698124   1700756   1702230  
  9890.000000   1701993   1700010   1696651   1692440   1687763  
  9880.000000   1682865   1677777   1672620   1667591   1663099  
  9870.000000   1659569   1657309   1656405   1656677   1657904  
  9860.000000   1659911   1662779   1666720   1671929   1678333  
  9850.000000   1685397   1692224   1697689   1700875   1701271  
  9840.000000   1699016   1694744   1689416   1683983   1679180  
  9830.000000   1675452   1672940   1671653   1671440   1672115  
  9820.000000   1673348   1674759   1675912   1676489   1676343  
  9810.000000   1675558   1674357   1672950   1671452   1669804  
  9800.000000   1667933   1665854   1663813   1662275   1661707  
  9790.000000   1662397   1664183   1666503   1668550   1669611  
  9780.000000   1669391   1668071   1666236   1664460   1663028  
  9770.000000   1661695   1659849   1656837   1652412   1647025  
  9760.000000   1641751   1637979   1636808   1638664   1643077  
  9750.000000   1648898   1654734   1659394   1662258   1663228  
  9740.000000   1662628   1660822   1658121   1654691   1650772  
  9730.000000   1646797   1643469   1641604   1641826   1644313  
  9720.000000   1648597   1653783   1658744   1662621   1664977  
  9710.000000   1665931   1665937   1665503   1664963   1664323  
  9700.000000   1663388   1661892   1659706   1656892   1653654  
  9690.000000   1650257   1646889   1643701   1640789   1638324  
  9680.000000   1636489   1635460   1635247   1635613   1636097  
  9670.000000   1636129   1635291   1633467   1630960   1628347  
  9660.000000   1626278   1625181   1625127   1625839   1626846  
  9650.000000   1627748   1628331   1628685   1629029   1629621  
  9640.000000   1630529   1631626   1632610   1633140   1632969  
  9630.000000   1631944   1630030   1627163   1623293   1618363  
  9620.000000   1612474   1605943   1599347   1593409   1588808  
  9610.000000   1585986   1585012   1585611   1587276   1589486  
  9600.000000   1591866   1594262   1596687   1599189   1601702  
  9590.000000   1604009   1605801   1606815   1607017   1606607  
  9580.000000   1606030   1605718   1605970   1606724   1607595  
  9570.000000   1607935   1607071   1604528   1600250   1594677  
  9560.000000   1588681   1583388   1579838   1578773   1580363  
  9550.000000   1584242   1589570   1595316   1600556   1604670  
  9540.000000   1607489   1609147   1609980   1610229   1610001  
  9530.000000   1609175   1607608   1605256   1602392   1599618  
  9520.000000   1597723   1597471   1599228   1602904   1607823  
  9510.000000   1613074   1617647   1620848   1622342   1622242  
  9500.000000   1620969   1619067   1617071   1615299   1613843  
  9490.000000   1612484   1610809   1608296   1604518   1599329  
  9480.000000   1592973   1586165   1579896   1575290   1573185  
  9470.000000   1573930   1577157   1581902   1586885   1590905  
  9460.000000   1593223   1593676   1592644   1590745   1588588  
  9450.000000   1586526   1584646   1582834   1581008   1579214  
  9440.000000   1577717   1576837   1576785   1577468   1578449  
  9430.000000   1579111   1578854   1577391   1574791   1571521  
  9420.000000   1568226   1565610   1564210   1564355   1566062  
  9410.000000   1569083   1572888   1576731   1579747   1581071  
  9400.000000   1580077   1576507   1570663   1563308   1555559  
  9390.000000   1548505   1542964   1539240   1537165   1536266  
  9380.000000   1536013   1536072   1536365   1537085   1538493  
  9370.000000   1540752   1543788   1547271   1550777   1553868  
  9360.000000   1556312   1557998   1559007   1559446   1559465  
  9350.000000   1559208   1558840   1558577   1558628   1559179  
  9340.000000   1560282   1561856   1563673   1565442   1566866  
  9330.000000   1567730   1567911   1567372   1566130   1564248  
  9320.000000   1561857   1559194   1556603   1554518   1553314  
  9310.000000   1553218   1554158   1555809   1557664   1559240  
  9300.000000   1560238   1560622   1560559   1560257   1559794  
  9290.000000   1559069   1557848   1555947   1553376   1550462  
  9280.000000   1547773   1545938   1545362   1546028   1547467  
  9270.000000   1548897   1549529   1548761   1546405   1542619  
  9260.000000   1537911   1532890   1528174   1524282   1521602  
  9250.000000   1520436   1520907   1523041   1526629   1531322  
  9240.000000   1536610   1541975   1546995   1551357   1554869  
  9230.000000   1557246   1558157   1557129   1553840   1548198  
  9220.000000   1540642   1532146   1524121   1518059   1515042  
  9210.000000   1515483   1518917   1524302   1530242   1535550  
  9200.000000   1539461   1541840   1543016   1543514   1543795  
  9190.000000   1544048   1544241   1544141   1543524   1542214  
  9180.000000   1540214   1537635   1534668   1531540   1528474  
  9170.000000   1525741   1523550   1522066   1521252   1520921  
  9160.000000   1520748   1520434   1519829   1519013   1518287  
  9150.000000   1518020   1518468   1519562   1520890   1521786  
  9140.000000   1521659   1520183   1517538   1514303   1511335  
  9130.000000   1509377   1508824   1509585   1511178   1512966  
  9120.000000   1514401   1515281   1515777   1516355   1517517  
  9110.000000   1519636   1522789   1526726   1530927   1534744  
  9100.000000   1537598   1539050   1538909   1537233   1534345  
  9090.000000   1530760   1527058   1523796   1521380   1520010  
  9080.000000   1519608   1519912   1520519   1521086   1521339  
  9070.000000   1521197   1520696   1519987   1519258   1518657  
  9060.000000   1518276   1518070   1517917   1517575   1516798  
  9050.000000   1515351   1513148   1510336   1507323   1504722  
  9040.000000   1503135   1503023   1504485   1507232   1510606  
  9030.000000   1513835   1516294   1517675   1518042   1517687  
  9020.000000   1516959   1516022   1514803   1513023   1510452  
  9010.000000   1507073   1503238   1499577   1496793   1495396  
  9000.000000   1495463   1496650   1498317   1499823   1500778  
  8990.000000   1501166   1501316   1501657   1502509   1503882  
  8980.000000   1505516   1506984   1507946   1508287   1508197  
  8970.000000   1508053   1508236   1508961   1510187   1511670  
  8960.000000   1513094   1514220   1514989   1515462   1515744  
  8950.000000   1515841   1515631   1514919   1513561   1511641  
  8940.000000   1509513   1507767   1507018   1507713   1509916  
  8930.000000   1513267   1517046   1520427   1522744   1523658  
  8920.000000   1523240   1521846   1519999   1518151   1516592  
  8910.000000   1515401   1514543   1513948   1513614   1513629  
  8900.000000   1514130   1515238   1516930   1519049   1521300  
  8890.000000   1523369   1525009   1526105   1526724   1527025  
  8880.000000   1527237   1527516   1527930   1528425   1528883  
  8870.000000   1529185   1529277   1529200   1529082   1529096  
  8860.000000   1529405   1530108   1531216   1532648   1534248  
  8850.000000   1535824   1537190   1538209   1538840   1539151  
  8840.000000   1539327   1539631   1540350   1541688   1543696  
  8830.000000   1546216   1548909   1551349   1553145   1554092  
  8820.000000   1554237   1553896   1553538   1553627   1554461  
  8810.000000   1556050   1558143   1560288   1562018   1562977  
  8800.000000   1563047   1562346   1561171   1559911   1558933  
  8790.000000   1558538   1558905   1560120   1562172   1564976  
  8780.000000   1568348   1572020   1575645   1578866   1581379  
  8770.000000   1583005   1583733   1583709   1583200   1582491  
  8760.000000   1581830   1581360   1581140   1581156   1581366  
  8750.000000   1581738   1582238   1582847   1583507   1584148  
  8740.000000   1584683   1585065   1585321   1585546   1585914  
  8730.000000   1586577   1587652   1589122   1590867   1592671  
  8720.000000   1594324   1595687   1596764   1597699   1598748  
  8710.000000   1600180   1602197   1604841   1607993   1611367  
  8700.000000   1614627   1617440   1619609   1621090   1622007  
  8690.000000   1622609   1623188   1624036   1625363   1627295  
  8680.000000   1629853   1632986   1636558   1640375   1644157  
  8670.000000   1647585   1650317   1652094   1652802   1652529  
  8660.000000   1651584   1650414   1649518   1649268   1649816  
  8650.000000   1651032   1652578   1654031   1655051   1655511  
  8640.000000   1655553   1655524   1655861   1656932   1658925  
  8630.000000   1661783   1665246   1668956   1672599   1675991  
  8620.000000   1679113   1682078   1685066   1688220   1691578  
  8610.000000   1695027   1698347   1701233   1703413   1704693  
  8600.000000   1705056   1704655   1703806   1702926   1702427  
  8590.000000   1702646   1703734   1705670   1708252   1711203  
  8580.000000   1714232   1717136   1719818   1722293   1724633  
  8570.000000   1726900   1729093   1731142   1732936   1734389  
  8560.000000   1735495   1736350   1737136   1738062   1739291  
  8550.000000   1740877   1742723   1744618   1746271   1747426  
  8540.000000   1747906   1747714   1747012   1746127   1745448  
  8530.000000   1745363   1746150   1747899   1750472   1753519  
  8520.000000   1756564   1759097   1760712   1761206   1760646  
  8510.000000   1759355   1757824   1756610   1756197   1756889  
  8500.000000   1758740   1761555   1764954   1768446   1771541  
  8490.000000   1773856   1775201   1775594   1775244   1774480  
  8480.000000   1773691   1773211   1773270   1773942   1775184  
  8470.000000   1776867   1778827   1780925   1783061   1785192  
  8460.000000   1787271   1789252   1791055   1792597   1793819  
  8450.000000   1794721   1795401   1796015   1796754   1797759  
  8440.000000   1799075   1800624   1802223   1803656   1804735  
  8430.000000   1805384   1805648   1805689   1805719   1805943  
  8420.000000   1806481   1807362   1808509   1809802   1811105  
  8410.000000   1812327   1813419   1814386   1815246   1816018  
  8400.000000   1816684   1817202   1817516   1817588   1817424  
  8390.000000   1817077   1816648   1816252   1815982   1815890  
  8380.000000   1815961   1816149   1816385   1816642   1816934  
  8370.000000   1817337   1817933   1818785   1819872   1821086  
  8360.000000   1822246   1823148   1823643   1823669   1823295  
  8350.000000   1822662   1821947   1821279   1820709   1820203  
  8340.000000   1819690   1819127   1818541   1818057   1817837  
  8330.000000   1818048   1818746   1819878   1821252   1822625  
  8320.000000   1823768   1824543   1824937   1825025   1824922  
  8310.000000   1824694   1824337   1823762   1822865   1821590  
  8300.000000   1819994   1818270   1816698   1815581   1815117  
  8290.000000   1815365   1816194   1817355   1818536   1819470  
  8280.000000   1819990   1820064   1819765   1819215   1818535  
  8270.000000   1817792   1817003   1816140   1815180   1814116  
  8260.000000   1812986   1811850   1810773   1809800   1808926  
  8250.000000   1808120   1807327   1806525   1805732   1805035  
  8240.000000   1804543   1804375   1804586   1805159   1805976  
  8230.000000   1806851   1807570   1807941   1807851   1807258  
  8220.000000   1806206   1804770   1803036   1801074   1798936  
  8210.000000   1796687   1794426   1792315   1790542   1789303  
  8200.000000   1788702   1788741   1789251   1789967   1790555  
  8190.000000   1790738   1790356   1789411   1788049   1786475  
  8180.000000   1784892   1783404   1782006   1780594   1779035  
  8170.000000   1777234   1775189   1773025   1770937   1769159  
  8160.000000   1767849   1767076   1766764   1766740   1766775  
  8150.000000   1766635   1766148   1765211   1763810   1761992  
  8140.000000   1759854   1757519   1755133   1752858   1750867  
  8130.000000   1749313   1748310   1747894   1747998   1748449  
  8120.000000   1748982   1749299   1749130   1748306   1746817  
  8110.000000   1744816   1742592   1740488   1738820   1737783  
  8100.000000   1737408   1737562   1737980   1738361   1738436  
  8090.000000   1738053   1737194   1735968   1734552   1733120  
  8080.000000   1731794   1730599   1729486   1728352   1727104  
  8070.000000   1725702   1724179   1722649   1721262   1720164  
  8060.000000   1719435   1719067   1718949   1718895   1718701  
  8050.000000   1718188   1717273   1715974   1714415   1712783  
  8040.000000   1711280   1710066   1709235   1708792   1708673  
  8030.000000   1708768   1708948   1709092   1709097   1708892  
  8020.000000   1708435   1707717   1706775   1705673   1704510  
  8010.000000   1703374   1702332   1701389   1700503   1699595  
  8000.000000   1698594   1697480   1696305   1695190   1694281  
  7990.000000   1693698   1693480   1693567   1693821   1694067  
  7980.000000   1694179   1694100   1693880   1693621   1693433  
  7970.000000   1693374   1693417   1693473   1693430   1693223  
  7960.000000   1692864   1692453   1692127   1692012   1692143  
  7950.000000   1692449   1692755   1692840   1692510   1691653  
  7940.000000   1690280   1688503   1686515   1684516   1682685  
  7930.000000   1681142   1679951   1679131   1678672   1678549  
  7920.000000   1678717   1679120   1679677   1680299   1680896  
  7910.000000   1681394   1681755   1681973   1682087   1682137  
  7900.000000   1682176   1682223   1682278   1682311   1682283  
  7890.000000   1682162   1681935   1681629   1681286   1680977  
  7880.000000   1680755   1680663   1680706   1680859   1681070  
  7870.000000   1681272   1681390   1681351   1681092   1680566  
  7860.000000   1679752   1678674   1677411   1676097   1674906  
  7850.000000   1674017   1673560   1673583   1674018   1674700  
  7840.000000   1675405   1675912   1676067   1675816   1675209  
  7830.000000   1674367   1673441   1672568   1671846   1671339  
  7820.000000   1671077   1671081   1671345   1671834   1672455  
  7810.000000   1673063   1673468   1673493   1673021   1672040  
  7800.000000   1670660   1669069   1667482   1666069   1664907  
  7790.000000   1663981   1663208   1662512   1661852   1661270  
  7780.000000   1660845   1660670   1660778   1661118   1661556  
  7770.000000   1661900   1661979   1661673   1660971   1659945  
  7760.000000   1658744   1657534   1656467   1655650   1655130  
  7750.000000   1654903   1654918   1655098   1655351   1655586  
  7740.000000   1655721   1655699   1655491   1655100   1654556  
  7730.000000   1653902   1653197   1652491   1651833   1651252  
  7720.000000   1650761   1650353   1649997   1649655   1649282  
  7710.000000   1648862   1648402   1647952   1647576   1647341  
  7700.000000   1647277   1647364   1647533   1647680   1647712  
  7690.000000   1647565   1647234   1646748   1646158   1645501  
  7680.000000   1644789   1644013   1643177   1642327   1641561  
  7670.000000   1641020   1640832   1641068   1641693   1642559  
  7660.000000   1643448   1644128   1644439   1644325   1643860  
  7650.000000   1643188   1642487   1641890   1641469   1641230  
  7640.000000   1641142   1641174   1641314   1641577   1641976  
  7630.000000   1642507   1643127   1643756   1644304   1644691  
  7620.000000   1644882   1644878   1644725   1644480   1644207  
  7610.000000   1643956   1643770   1643684   1643730   1643921  
  7600.000000   1644257   1644702   1645202   1645691   1646120  
  7590.000000   1646469   1646767   1647072   1647461   1647993  
  7580.000000   1648697   1649561   1650551   1651627   1652765  
  7570.000000   1653958   1655214   1656537   1657909   1659283  
  7560.000000   1660598   1661784   1662798   1663617   1664259  
  7550.000000   1664757   1665161   1665516   1665868   1666264  
  7540.000000   1666760   1667414   1668288   1669420   1670815  
  7530.000000   1672425   1674167   1675927   1677608   1679141  
  7520.000000   1680520   1681783   1683024   1684340   1685829  
  7510.000000   1687545   1689509   1691696   1694058   1696518  
  7500.000000   1698995   1701398   1703653   1705698   1707516  
  7490.000000   1709125   1710601   1712043   1713581   1715316  
  7480.000000   1717309   1719554   1721993   1724532   1727080  
  7470.000000   1729577   1732019   1734444   1736913   1739470  
  7460.000000   1742130   1744848   1747555   1750167   1752640  
  7450.000000   1754966   1757193   1759388   1761621   1763931  
  7440.000000   1766325   1768781   1771276   1773798   1776367  
  7430.000000   1779016   1781776   1784649   1787603   1790568  
  7420.000000   1793467   1796238   1798863   1801370   1803825  
  7410.000000   1806300   1808855   1811516   1814272   1817093  
  7400.000000   1819938   1822774   1825578   1828337   1831037  
  7390.000000   1833660   1836188   1838603   1840903   1843094  
  7380.000000   1845202   1847260   1849301   1851360   1853467  
  7370.000000   1855662   1857987   1860481   1863165   1866028  
  7360.000000   1869016   1872030   1874958   1877687   1880155  
  7350.000000   1882354   1884343   1886228   1888135   1890174  
  7340.000000   1892415   1894878   1897542   1900365   1903284  
  7330.000000   1906242   1909172   1912021   1914732   1917267  
  7320.000000   1919606   1921759   1923755   1925639   1927459  
  7310.000000   1929247   1931015   1932761   1934462   1936114  
  7300.000000   1937714   1939291   1940875   1942507   1944199  
  7290.000000   1945945   1947704   1949416   1951010   1952431  
  7280.000000   1953646   1954653   1955486   1956202   1956871  
  7270.000000   1957562   1958330   1959205   1960194   1961278  
  7260.000000   1962437   1963643   1964891   1966186   1967559  
  7250.000000   1969040   1970667   1972451   1974393   1976457  
  7240.000000   1978612   1980813   1983055   1985340   1987713  
  7230.000000   1990203   1992845   1995616   1998478   2001341  
  7220.000000   2004139   2006812   2009381   2011907   2014524  
  7210.000000   2017358   2020526   2024062   2027941   2032059  
  7200.000000   2036301   2040554   2044779   2048978   2053223  
  7190.000000   2057570   2062073   2066709   2071434   2076146  
  7180.000000   2080790   2085325   2089805   2094309   2098968  
  7170.000000   2103874   2109099   2114635   2120444   2126438  
  7160.000000   2132547   2138698   2144864   2151026   2157202  
  7150.000000   2163398   2169648   2175956   2182349   2188813  
  7140.000000   2195347   2201904   2208464   2214989   2221495  
  7130.000000   2228016   2234643   2241466   2248586   2256045  
  7120.000000   2263851   2271927   2280175   2288463   2296700  
  7110.000000   2304811   2312791   2320653   2328458   2336254  
  7100.000000   2344116   2352091   2360235   2368567   2377099  
  7090.000000   2385801   2394632   2403528   2412437   2421316  
  7080.000000   2430144   2438908   2447598   2456190   2464658  
  7070.000000   2472968   2481121   2489144   2497113   2505119  
  7060.000000   2513246   2521537   2529973   2538486   2546974  
  7050.000000   2555351   2563566   2571632   2579599   2587537  
  7040.000000   2595495   2603488   2611482   2619421   2627233  
  7030.000000   2634873   2642309   2649552   2656626   2663590  
  7020.000000   2670498   2677431   2684443   2691580   2698822  
  7010.000000   2706110   2713318   2720318   2726983   2733266  
  7000.000000   2739183   2744845   2750381   2755930   2761558  
  6990.000000   2767278   2773022   2778715   2784266   2789637  
  6980.000000   2794802   2799776   2804555   2809149   2813537  
  6970.000000   2817735   2821759   2825676   2829547   2833434  
  6960.000000   2837346   2841260   2845092   2848770   2852219  
  6950.000000   2855434   2858437   2861301   2864089   2866868  
  6940.000000   2869660   2872478   2875300   2878106   2880856  
  6930.000000   2883509   2886002   2888283   2890306   2892074  
  6920.000000   2893626   2895057   2896470   2897970   2899606  
  6910.000000   2901384   2903251   2905149   2907015   2908824  
  6900.000000   2910569   2912264   2913910   2915496   2916988  
  6890.000000   2918357   2919591   2920711   2921769   2922833  
  6880.000000   2923960   2925182   2926500   2927888   2929305  
  6870.000000   2930718   2932092   2933408   2934647   2935801  
  6860.000000   2936865   2937858   2938812   2939776   2940798  
  6850.000000   2941906   2943094   2944329   2945558   2946733  
  6840.000000   2947826   2948841   2949800   2950734   2951657  
  6830.000000   2952573   2953468   2954338   2955186   2956041  
  6820.000000   2956928   2957868   2958839   2959800   2960679  
  6810.000000   2961419   2961984   2962383   2962648   2962833  
  6800.000000   2962972   2963081   2963147   2963156   2963094  
  6790.000000   2962978   2962831   2962691   2962574   2962482  
  6780.000000   2962390   2962275   2962109   2961888   2961609  
  6770.000000   2961275   2960877   2960401   2959830   2959165  
  6760.000000   2958431   2957685   2956988   2956394   2955917  
  6750.000000   2955530   2955169   2954766   2954264   2953647  
  6740.000000   2952928   2952146   2951342   2950546   2949768  
  6730.000000   2949012   2948277   2947568   2946891   2946247  
  6720.000000   2945619   2944980   2944292   2943535   2942704  
  6710.000000   2941828   2940945   2940089   2939266   2938454  
  6700.000000   2937600   2936652   2935574   2934364   2933048  
  6690.000000   2931669   2930265   2928864   2927465   2926070  
  6680.000000   2924672   2923286   2921923   2920605   2919329  
  6670.000000   2918085   2916838   2915561   2914231   2912843  
  6660.000000   2911402   2909912   2908361   2906725   2904972  
  6650.000000   2903084   2901069   2898979   2896882   2894862  
  6640.000000   2892976   2891252   2889672   2888198   2886772  
  6630.000000   2885348   2883886   2882367   2880770   2879085  
  6620.000000   2877302   2875423   2873458   2871429   2869358  
  6610.000000   2867263   2865144   2862993   2860799   2858571  
  6600.000000   2856334   2854139   2852031   2850041   2848158  
  6590.000000   2846338   2844513   2842616   2840614   2838509  
  6580.000000   2836340   2834158   2832006   2829903   2827848  
  6570.000000   2825830   2823847   2821914   2820064   2818327  
  6560.000000   2816716   2815212   2813771   2812328   2810833  
  6550.000000   2809254   2807591   2805865   2804111   2802360  
  6540.000000   2800642   2798991   2797444   2796050   2794852  
  6530.000000   2793874   2793102   2792475   2791895   2791245  
  6520.000000   2790426   2789376   2788093   2786617   2785029  
  6510.000000   2783414   2781847   2780384   2779056   2777872  
  6500.000000   2776825   2775900   2775064   2774282   2773511  
  6490.000000   2772718   2771874   2770970   2770004   2768984  
  6480.000000   2767917   2766810   2765667   2764496   2763309  
  6470.000000   2762123   2760953   2759809   2758685   2757564  
  6460.000000   2756426   2755257   2754058   2752846   2751649  
  6450.000000   2750493   2749390   2748335   2747305   2746274  
  6440.000000   2745220   2744130   2743008   2741859   2740692  
  6430.000000   2739506   2738300   2737073   2735832   2734591  
  6420.000000   2733378   2732215   2731125   2730115   2729186  
  6410.000000   2728326   2727524   2726764   2726033   2725311  
  6400.000000   2724585   2723845   2723092   2722339   2721616  
  6390.000000   2720949   2720360   2719850   2719399   2718975  
  6380.000000   2718545   2718084   2717590   2717074   2716552  
  6370.000000   2716031   2715502   2714947   2714345   2713694  
  6360.000000   2713013   2712339   2711708   2711141   2710622  
  6350.000000   2710109   2709546   2708889   2708124   2707281  
  6340.000000   2706412   2705580   2704824   2704154   2703541  
  6330.000000   2702940   2702301   2701593   2700802   2699934  
  6320.000000   2698997   2698001   2696936   2695801   2694585  
  6310.000000   2693297   2691948   2690566   2689164   2687764  
  6300.000000   2686364   2684968   2683563   2682147   2680698  
  6290.000000   2679200   2677613   2675905   2674035   2671992  
  6280.000000   2669777   2667431   2665008   2662576   2660185  
  6270.000000   2657875   2655649   2653501   2651400   2649321  
  6260.000000   2647231   2645109   2642935   2640702   2638404  
  6250.000000   2636053   2633660   2631240   2628803   2626350  
  6240.000000   2623871   2621356   2618796   2616198   2613579  
  6230.000000   2610967   2608383   2605838   2603322   2600816  
  6220.000000   2598293   2595742   2593165   2590583   2588027  
  6210.000000   2585523   2583085   2580713   2578395   2576114  
  6200.000000   2573858   2571620   2569395   2567179   2564968  
  6190.000000   2562754   2560538   2558324   2556123   2553945  
  6180.000000   2551793   2549656   2547517   2545358   2543176  
  6170.000000   2540989   2538833   2536751   2534769   2532889  
  6160.000000   2531080   2529289   2527467   2525582   2523639  
  6150.000000   2521668   2519712   2517800   2515935   2514092  
  6140.000000   2512232   2510318   2508345   2506328   2504312  
  6130.000000   2502338   2500441   2498626   2496887   2495203  
  6120.000000   2493561   2491958   2490407   2488917   2487497  
  6110.000000   2486138   2484833   2483560   2482319   2481107  
  6100.000000   2479944   2478843   2477827   2476905   2476089  
  6090.000000   2475379   2474782   2474287   2473879   2473519  
  6080.000000   2473167   2472768   2472297   2471742   2471139  
  6070.000000   2470534   2469997   2469565   2469269   2469090  
  6060.000000   2469007   2468984   2469014   2469097   2469270  
  6050.000000   2469555   2469987   2470568   2471301   2472163  
  6040.000000   2473151   2474248   2475462   2476779   2478200  
  6030.000000   2479700   2481266   2482875   2484528   2486222  
  6020.000000   2487971   2489772   2491624   2493499   2495379  
  6010.000000   2497235   2499066   2500873   2502678   2504492  
  6000.000000   2506329   2508181   2510042   2511897   2513753  
  5990.000000   2515622   2517534   2519511   2521578   2523735  
  5980.000000   2525981   2528300   2530687   2533134   2535651  
  5970.000000   2538237   2540899   2543632   2546434   2549299  
  5960.000000   2552233   2555230   2558291   2561391   2564500  
  5950.000000   2567565   2570545   2573408   2576156   2578816  
  5940.000000   2581442   2584087   2586800   2589603   2592500  
  5930.000000   2595478   2598519   2601606   2604720   2607843  
  5920.000000   2610947   2613998   2616960   2619805   2622522  
  5910.000000   2625119   2627620   2630052   2632440   2634800  
  5900.000000   2637143   2639480   2641826   2644206   2646640  
  5890.000000   2649142   2651705   2654304   2656905   2659476  
  5880.000000   2661998   2664473   2666919   2669352   2671785  
  5870.000000   2674208   2676609   2678964   2681274   2683547  
  5860.000000   2685817   2688117   2690481   2692923   2695451  
  5850.000000   2698064   2700770   2703581   2706522   2709608  
  5840.000000   2712845   2716215   2719684   2723209   2726751  
  5830.000000   2730287   2733802   2737293   2740749   2744153  
  5820.000000   2747472   2750680   2753743   2756658   2759417  
  5810.000000   2762038   2764514   2766856   2769040   2771071  
  5800.000000   2772930   2774643   2776205   2777649   2778954  
  5790.000000   2780119   2781092   2781852   2782352   2782590  
  5780.000000   2782546   2782233   2781638   2780767   2779607  
  5770.000000   2778181   2776522   2774703   2772804   2770917  
  5760.000000   2769100   2767395   2765806   2764332   2762969  
  5750.000000   2761731   2760644   2759737   2759024   2758491  
  5740.000000   2758104   2757805   2757554   2757313   2757087  
  5730.000000   2756879   2756717   2756600   2756535   2756499  
  5720.000000   2756487   2756489   2756524   2756606   2756764  
  5710.000000   2757007   2757336   2757736   2758193   2758691  
  5700.000000   2759227   2759800   2760412   2761057   2761722  
  5690.000000   2762393   2763057   2763714   2764366   2765028  
  5680.000000   2765698   2766369   2767009   2767583   2768045  
  5670.000000   2768365   2768514   2768483   2768266   2767870  
  5660.000000   2767300   2766582   2765744   2764837   2763909  
  5650.000000   2763013   2762177   2761419   2760728   2760091  
  5640.000000   2759483   2758895   2758318   2757753   2757194  
  5630.000000   2756633   2756059   2755462   2754842   2754207  
  5620.000000   2753576   2752966   2752389   2751845   2751329  
  5610.000000   2750834   2750362   2749924   2749532   2749194  
  5600.000000   2748896   2748609   2748284   2747879   2747363  
  5590.000000   2746736   2746017   2745245   2744450   2743654  
  5580.000000   2742851   2742029   2741164   2740246   2739270  
  5570.000000   2738244   2737172   2736060   2734900   2733691  
  5560.000000   2732433   2731140   2729835   2728546   2727294  
  5550.000000   2726093   2724938   2723819   2722726   2721652  
  5540.000000   2720599   2719570   2718568   2717586   2716611  
  5530.000000   2715631   2714636   2713629   2712617   2711614  
  5520.000000   2710625   2709650   2708679   2707701   2706703  
  5510.000000   2705680   2704626   2703539   2702411   2701237  
  5500.000000   2700008   2698734   2697428   2696125   2694847  
  5490.000000   2693611   2692402   2691188   2689920   2688566  
  5480.000000   2687107   2685561   2683960   2682349   2680749  
  5470.000000   2679164   2677563   2675909   2674165   2672314  
  5460.000000   2670355   2668306   2666183   2664002   2661768  
  5450.000000   2659491   2657187   2654884   2652621   2650435  
  5440.000000   2648350   2646371   2644492   2642692   2640963  
  5430.000000   2639290   2637677   2636108   2634575   2633048  
  5420.000000   2631518   2629978   2628470   2627040   2625771  
  5410.000000   2624704   2623875   2623250   2622798   2622454  
  5400.000000   2622201   2622022   2621956   2622024   2622271  
  5390.000000   2622694   2623300   2624058   2624980   2626055  
  5380.000000   2627324   2628786   2630468   2632330   2634367  
  5370.000000   2636521   2638806   2641204   2643786   2646567  
  5360.000000   2649634   2652982   2656673   2660677   2665051  
  5350.000000   2669768   2674905   2680440   2686443   2692872  
  5340.000000   2699788   2707149   2715045   2723457   2732498  
  5330.000000   2742136   2752444   2763335   2774841   2786860  
  5320.000000   2799460   2812593   2826400   2840877   2856182  
  5310.000000   2872284   2889297   2907142   2925902   2945498  
  5300.000000   2966029   2987452   3009898   3033345   3057917  
  5290.000000   3083559   3110317   3138043   3166672   3195997  
  5280.000000   3225949   3256409   3287444   3319094   3351518  
  5270.000000   3384767   3418853   3453612   3488794   3524089  
  5260.000000   3559219   3594039   3628497   3662680   3696628  
  5250.000000   3730392   3763824   3796781   3828945   3860171  
  5240.000000   3890250   3919259   3947192   3974273   4000524  
  5230.000000   4026111   4050922   4074980   4098063   4120152  
  5220.000000   4141065   4160888   4179563   4197288   4214074  
  5210.000000   4230121   4245375   4259918   4273577   4286356  
  5200.000000   4298084   4308844   4318589   4327511   4335622  
  5190.000000   4343087   4349839   4355937   4361241   4365784  
  5180.000000   4369470   4372400   4374551   4376052   4376877  
  5170.000000   4377117   4376723   4375783   4374277   4372328  
  5160.000000   4369944   4367234   4364164   4360776   4356991  
  5150.000000   4352831   4348243   4343288   4337965   4332350  
  5140.000000   4326441   4320291   4313885   4307266   4300438  
  5130.000000   4293463   4286358   4279176   4271910   4264580  
  5120.000000   4257159   4249662   4242083   4234460   4226810  
  5110.000000   4219169   4211540   4203930   4196323   4188720  
  5100.000000   4181115   4173527   4165962   4158433   4150931  
  5090.000000   4143447   4135955   4128449   4120916   4113369  
  5080.000000   4105808   4098242   4090651   4083019   4075308  
  5070.000000   4067501   4059576   4051542   4043403   4035185  
  5060.000000   4026896   4018554   4010162   4001734   3993272  
  5050.000000   3984797   3976310   3967823   3959327   3950819  
  5040.000000   3942283   3933721   3925137   3916551   3907984  
  5030.000000   3899456   3890981   3882561   3874193   3865865  
  5020.000000   3857573   3849311   3841089   3832911   3824797  
  5010.000000   3816757   3808820   3800998   3793328   3785817  
  5000.000000   3778495   3771350   3764396   3757605   3750991  
  4990.000000   3744536   3738279   3732224   3726427   3720891  
  4980.000000   3715664   3710726   3706114   3701803   3697840  
  4970.000000   3694216   3690990   3688150   3685737   3683705  
  4960.000000   3682065   3680748   3679764   3679064   3678691  
  4950.000000   3678626   3678934   3679601   3680681   3682141  
  4940.000000   3684019   3686269   3688924   3691931   3695312  
  4930.000000   3699008   3703030   3707318   3711895   3716725  
  4920.000000   3721859   3727284   3733057   3739155   3745612  
  4910.000000   3752383   3759479   3766856   3774524   3782450  
  4900.000000   3790647   3799080   3807744   3816596   3825619  
  4890.000000   3834770   3844033   3853376   3862777   3872202  
  4880.000000   3881611   3890963   3900209   3909318   3918250  
  4870.000000   3926993   3935516   3943814   3951855   3959638  
  4860.000000   3967135   3974360   3981302   3987993   3994432  
  4850.000000   4000654   4006657   4012474   4018099   4023569  
  4840.000000   4028881   4034072   4039138   4044106   4048959  
  4830.000000   4053716   4058356   4062894   4067312   4071621  
  4820.000000   4075797   4079841   4083723   4087442   4090980  
  4810.000000   4094350   4097553   4100613   4103534   4106339  
  4800.000000   4109022   4111600   4114071   4116460   4118778  
  4790.000000   4121059   4123316   4125573   4127828   4130086  
  4780.000000   4132330   4134560   4136756   4138921   4141034  
  4770.000000   4143097   4145085   4146996   4148807   4150516  
  4760.000000   4152103   4153567   4154885   4156055   4157047  
  4750.000000   4157862   4158479   4158911   4159148   4159210  
  4740.000000   4159086   4158789   4158304   4157641   4156796  
  4730.000000   4155797   4154658   4153424   4152111   4150746  
  4720.000000   4149321   4147835   4146262   4144597   4142831  
  4710.000000   4140982   4139069   4137131   4135194   4133288  
  4700.000000   4131424   4129613   4127853   4126142   4124472  
  4690.000000   4122836   4121221   4119611   4117984   4116320  
  4680.000000   4114597   4112801   4110928   4108975   4106956  
  4670.000000   4104884   4102783   4100672   4098584   4096538  
  4660.000000   4094569   4092695   4090945   4089333   4087881  
  4650.000000   4086595   4085496   4084584   4083875   4083365  
  4640.000000   4083059   4082943   4083009   4083229   4083584  
  4630.000000   4084033   4084546   4085076   4085592   4086054  
  4620.000000   4086442   4086739   4086946   4087064   4087107  
  4610.000000   4087080   4086989   4086836   4086620   4086347  
  4600.000000   4086027   4085681   4085328   4084996   4084696  
  4590.000000   4084438   4084211   4084001   4083782   4083533  
  4580.000000   4083229   4082860   4082417   4081905   4081331  
  4570.000000   4080710   4080053   4079373   4078670   4077944  
  4560.000000   4077181   4076371   4075500   4074566   4073572  
  4550.000000   4072531   4071461   4070375   4069288   4068201  
  4540.000000   4067123   4066053   4065010   4064002   4063061  
  4530.000000   4062197   4061445   4060802   4060302   4059933  
  4520.000000   4059743   4059727   4059953   4060420   4061204  
  4510.000000   4062292   4063756   4065577   4067834   4070519  
  4500.000000   4073734   4077486   4081889   4086947   4092760  
  4490.000000   4099311   4106673   4114798   4123722   4133360  
  4480.000000   4143710   4154662   4166187   4178173   4190598  
  4470.000000   4203370   4216478   4229850   4243479   4257297  
  4460.000000   4271285   4285376   4299537   4313704   4327838  
  4450.000000   4341879   4355786   4369521   4383061   4396410  
  4440.000000   4409573   4422593   4435486   4448303   4461035  
  4430.000000   4473718   4486306   4498818   4511184   4523413  
  4420.000000   4535417   4547191   4558618   4569665   4580187  
  4410.000000   4590132   4599349   4607796   4615354   4622027  
  4400.000000   4627757   4632608   4636591   4639818   4642340  
  4390.000000   4644283   4645712   4646744   4647443   4647922  
  4380.000000   4648256   4648566   4648950   4649535   4650431  
  4370.000000   4651748   4653573   4655962   4658946   4662509  
  4360.000000   4666618   4671197   4676169   4681436   4686909  
  4350.000000   4692500   4698140   4703784   4709402   4715001  
  4340.000000   4720586   4726177   4731751   4737258   4742565  
  4330.000000   4747498   4751824   4755332   4757844   4759307  
  4320.000000   4759776   4759461   4758638   4757656   4756795  
  4310.000000   4756297   4756253   4756692   4757521   4758650  
  4300.000000   4759943   4761319   4762689   4764014   4765243  
  4290.000000   4766347   4767293   4768065   4768665   4769123  
  4280.000000   4769479   4769799   4770125   4770512   4770962  
  4270.000000   4771488   4772039   4772575   4772995   4773203  
  4260.000000   4773059   4772452   4771264   4769446   4766993  
  4250.000000   4763987   4760551   4756868   4753101   4749416  
  4240.000000   4745906   4742636   4739595   4736760   4734066  
  4230.000000   4731468   4728908   4726349   4723754   4721094  
  4220.000000   4718349   4715498   4712550   4709514   4706439  
  4210.000000   4703370   4700380   4697517   4694840   4692365  
  4200.000000   4690117   4688075   4686241   4684578   4683088  
  4190.000000   4681736   4680540   4679474   4678575   4677827  
  4180.000000   4677284   4676935   4676849   4677021   4677535  
  4170.000000   4678401   4679721   4681513   4683881   4686825  
  4160.000000   4690416   4694608   4699430   4704799   4710731  
  4150.000000   4717149   4724090   4731501   4739446   4747885  
  4140.000000   4756883   4766395   4776478   4787075   4798229  
  4130.000000   4809878   4822056   4834700   4847843   4861431  
  4120.000000   4875497   4889997   4904964   4920353   4936186  
  4110.000000   4952412   4969043   4986027   5003368   5021012  
  4100.000000   5038949   5057121   5075505   5094050   5112734  
  4090.000000   5131524   5150411   5169381   5188428   5207556  
  4080.000000   5226759   5246057   5265439   5284921   5304460  
  4070.000000   5324038   5343558   5362974   5382174   5401138  
  4060.000000   5419784   5438140   5456138   5473803   5491026  
  4050.000000   5507803   5523995   5539608   5554522   5568778  
  4040.000000   5582263   5595019   5606906   5617957   5628037  
  4030.000000   5637218   5645412   5652725   5659091   5664589  
  4020.000000   5669094   5672665   5675238   5676886   5677523  
  4010.000000   5677304   5676307   5674576   5671874   5668324  
  4000.000000   5664352  
##END= 
