##TITLE= Sample 001 By ssteindl date Montag, November 26 2018
##JCAMP-DX= 4.24
##DATA TYPE= INFRARED SPECTRUM
##ORIGIN= Exported PE Spectrum Data File
##OWNER= Sandra Steindl
##DATE= 18/11/26
##TIME= 12:50:40.00
##SPECTROMETER/DATA SYSTEM= PERKIN-ELMER Frontier FT-IR/NIR IR
##INSTRUMENT PARAMETERS=
  APODIZATION=stark
  DETECTOR=INGAAS
##RESOLUTION= 16.000000
##DELTAX= -2.000000
##XUNITS= 1/CM
##YUNITS= A
##XFACTOR= 1.00
##YFACTOR= 0.00000011920928955078
##FIRSTX= 10000.00
##LASTX= 4000.00
##NPOINTS= 3001
##FIRSTY= 0.213261
##MAXY= 0.613374
##MINY= 0.186818
##XYDATA= (X++(Y..Y))
 10000.000000   1788964   1788495   1788045   1787713   1787578  
  9990.000000   1787647   1787814   1787977   1788120   1788262  
  9980.000000   1788344   1788109   1787208   1785288   1782230  
  9970.000000   1778261   1773931   1769952   1766870   1764935  
  9960.000000   1764025   1763873   1764260   1765210   1766918  
  9950.000000   1769542   1772913   1776375   1778928   1779521  
  9940.000000   1777571   1773221   1767421   1761566   1757005  
  9930.000000   1754520   1754117   1755149   1756709   1758088  
  9920.000000   1759014   1759656   1760334   1761217   1762130  
  9910.000000   1762645   1762349   1761166   1759483   1758025  
  9900.000000   1757512   1758276   1760093   1762256   1763945  
  9890.000000   1764575   1764053   1762715   1761037   1759318  
  9880.000000   1757451   1755061   1751780   1747681   1743437  
  9870.000000   1740219   1739213   1741064   1745453   1751084  
  9860.000000   1756099   1758740   1758053   1754160   1748227  
  9850.000000   1741870   1736573   1733157   1731666   1731566  
  9840.000000   1732170   1733007   1734016   1735445   1737567  
  9830.000000   1740439   1743696   1746739   1748878   1749716  
  9820.000000   1749281   1748045   1746762   1746125   1746543  
  9810.000000   1747928   1749757   1751206   1751416   1749744  
  9800.000000   1745919   1740158   1733081   1725656   1718955  
  9790.000000   1713974   1711397   1711439   1713802   1717713  
  9780.000000   1722115   1725868   1728028   1728028   1725865  
  9770.000000   1722055   1717603   1713676   1711388   1711423  
  9760.000000   1713898   1718272   1723543   1728541   1732316  
  9750.000000   1734450   1735139   1735099   1735173   1736023  
  9740.000000   1737785   1740104   1742303   1743761   1744198  
  9730.000000   1743816   1743133   1742717   1742819   1743230  
  9720.000000   1743327   1742343   1739731   1735406   1729812  
  9710.000000   1723760   1718079   1713422   1710044   1707992  
  9700.000000   1707171   1707606   1709374   1712529   1716848  
  9690.000000   1721690   1726046   1728740   1728871   1726077  
  9680.000000   1720791   1714004   1707045   1701053   1696755  
  9670.000000   1694292   1693377   1693522   1694275   1695374  
  9660.000000   1696705   1698263   1699983   1701785   1703529  
  9650.000000   1705166   1706738   1708383   1710263   1712407  
  9640.000000   1714708   1716834   1718400   1719012   1718444  
  9630.000000   1716619   1713629   1709666   1704983   1699940  
  9620.000000   1694955   1690611   1687471   1686082   1686682  
  9610.000000   1689196   1693114   1697654   1701908   1705060  
  9600.000000   1706539   1706047   1703585   1699328   1693673  
  9590.000000   1687114   1680338   1674075   1669051   1665773  
  9580.000000   1664360   1664524   1665576   1666752   1667393  
  9570.000000   1667256   1666547   1665808   1665710   1666650  
  9560.000000   1668655   1671194   1673451   1674490   1673642  
  9550.000000   1670719   1666137   1660864   1656168   1653334  
  9540.000000   1653275   1656321   1662040   1669327   1676612  
  9530.000000   1682233   1684884   1683951   1679734   1673318  
  9520.000000   1666275   1660144   1656017   1654261   1654527  
  9510.000000   1656020   1657813   1659253   1660052   1660378  
  9500.000000   1660602   1661124   1662143   1663543   1664989  
  9490.000000   1665942   1665954   1664652   1661956   1658012  
  9480.000000   1653254   1648361   1644112   1641342   1640629  
  9470.000000   1642262   1646028   1651340   1657331   1663107  
  9460.000000   1667935   1671324   1673043   1672995   1671193  
  9450.000000   1667665   1662598   1656350   1649598   1643249  
  9440.000000   1638285   1635493   1635141   1636936   1640014  
  9430.000000   1643365   1646066   1647680   1648211   1648073  
  9420.000000   1647768   1647662   1647857   1648161   1648311  
  9410.000000   1648025   1647200   1645791   1643791   1641106  
  9400.000000   1637562   1633038   1627617   1621774   1616328  
  9390.000000   1612262   1610362   1610905   1613509   1617239  
  9380.000000   1620913   1623464   1624271   1623279   1621002  
  9370.000000   1618228   1615808   1614317   1614029   1614860  
  9360.000000   1616529   1618629   1620746   1622529   1623755  
  9350.000000   1624395   1624596   1624668   1624954   1625727  
  9340.000000   1627051   1628731   1630345   1631394   1631485  
  9330.000000   1630544   1628821   1626833   1625112   1624027  
  9320.000000   1623639   1623694   1623741   1623285   1621994  
  9310.000000   1619780   1616816   1613433   1610008   1606889  
  9300.000000   1604374   1602710   1602080   1602566   1604083  
  9290.000000   1606368   1608994   1611489   1613479   1614804  
  9280.000000   1615571   1616059   1616587   1617319   1618193  
  9270.000000   1618923   1619149   1618616   1617328   1615589  
  9260.000000   1613883   1612685   1612211   1612377   1612770  
  9250.000000   1612864   1612164   1610461   1607899   1604929  
  9240.000000   1602135   1600010   1598813   1598470   1598621  
  9230.000000   1598718   1598235   1596826   1594464   1591418  
  9220.000000   1588186   1585364   1583508   1582961   1583772  
  9210.000000   1585661   1588154   1590672   1592724   1593968  
  9200.000000   1594331   1593964   1593207   1592449   1592045  
  9190.000000   1592226   1593098   1594629   1596682   1599048  
  9180.000000   1601492   1603810   1605831   1607459   1608646  
  9170.000000   1609408   1609783   1609803   1609476   1608789  
  9160.000000   1607751   1606434   1604977   1603580   1602430  
  9150.000000   1601670   1601315   1601270   1601331   1601287  
  9140.000000   1600986   1600393   1599582   1598689   1597850  
  9130.000000   1597157   1596623   1596220   1595904   1595677  
  9120.000000   1595577   1595669   1595981   1596488   1597097  
  9110.000000   1597667   1598040   1598077   1597692   1596845  
  9100.000000   1595567   1593911   1591983   1589930   1587946  
  9090.000000   1586245   1584991   1584279   1584084   1584302  
  9080.000000   1584759   1585308   1585857   1586402   1586979  
  9070.000000   1587580   1588116   1588384   1588174   1587289  
  9060.000000   1585701   1583552   1581185   1579004   1577336  
  9050.000000   1576364   1576065   1576325   1576951   1577838  
  9040.000000   1578973   1580446   1582347   1584634   1587084  
  9030.000000   1589268   1590691   1590860   1589497   1586588  
  9020.000000   1582498   1577833   1573341   1569751   1567598  
  9010.000000   1567145   1568255   1570543   1573461   1576481  
  9000.000000   1579192   1581385   1583072   1584358   1585340  
  8990.000000   1585972   1586114   1585534   1584103   1581894  
  8980.000000   1579293   1576919   1575426   1575328   1576781  
  8970.000000   1579546   1583002   1586384   1589008   1590456  
  8960.000000   1590635   1589746   1588155   1586262   1584389  
  8950.000000   1582777   1581615   1581064   1581242   1582164  
  8940.000000   1583676   1585441   1586968   1587774   1587519  
  8930.000000   1586163   1583983   1581481   1579215   1577605  
  8920.000000   1576809   1576704   1576981   1577298   1577426  
  8910.000000   1577315   1577063   1576819   1576691   1576656  
  8900.000000   1576596   1576321   1575723   1574774   1573623  
  8890.000000   1572478   1571600   1571176   1571296   1571955  
  8880.000000   1573062   1574535   1576296   1578342   1580690  
  8870.000000   1583387   1586433   1589745   1593117   1596221  
  8860.000000   1598678   1600088   1600180   1598854   1596305  
  8850.000000   1592943   1589329   1586025   1583454   1581834  
  8840.000000   1581111   1581094   1581515   1582202   1583084  
  8830.000000   1584215   1585679   1587499   1589581   1591667  
  8820.000000   1593455   1594635   1595064   1594751   1593916  
  8810.000000   1592878   1592007   1591633   1591995   1593208  
  8800.000000   1595241   1597943   1601048   1604221   1607092  
  8790.000000   1609343   1610778   1611382   1611328   1610924  
  8780.000000   1610521   1610395   1610674   1611312   1612132  
  8770.000000   1612927   1613542   1613954   1614244   1614563  
  8760.000000   1615027   1615666   1616390   1617033   1617422  
  8750.000000   1617455   1617157   1616678   1616246   1616095  
  8740.000000   1616373   1617122   1618257   1619616   1621019  
  8730.000000   1622302   1623376   1624194   1624771   1625115  
  8720.000000   1625231   1625102   1624732   1624168   1623550  
  8710.000000   1623093   1623083   1623779   1625357   1627813  
  8700.000000   1630944   1634368   1637621   1640281   1642097  
  8690.000000   1643065   1643436   1643631   1644108   1645215  
  8680.000000   1647090   1649635   1652572   1655536   1658203  
  8670.000000   1660363   1661954   1663045   1663751   1664194  
  8660.000000   1664444   1664555   1664576   1664606   1664796  
  8650.000000   1665325   1666330   1667862   1669810   1671935  
  8640.000000   1673896   1675385   1676211   1676378   1676091  
  8630.000000   1675673   1675501   1675825   1676738   1678092  
  8620.000000   1679603   1680915   1681755   1682025   1681852  
  8610.000000   1681564   1681579   1682316   1684047   1686854  
  8600.000000   1690587   1694919   1699428   1703676   1707307  
  8590.000000   1710071   1711869   1712721   1712760   1712179  
  8580.000000   1711224   1710155   1709223   1708644   1708557  
  8570.000000   1709034   1710032   1711457   1713122   1714845  
  8560.000000   1716445   1717809   1718889   1719701   1720324  
  8550.000000   1720828   1721285   1721708   1722094   1722404  
  8540.000000   1722629   1722789   1722970   1723308   1723957  
  8530.000000   1725050   1726648   1728717   1731120   1733650  
  8520.000000   1736082   1738223   1739961   1741276   1742244  
  8510.000000   1742990   1743661   1744377   1745213   1746192  
  8500.000000   1747294   1748474   1749688   1750895   1752061  
  8490.000000   1753153   1754136   1754972   1755615   1756043  
  8480.000000   1756272   1756386   1756531   1756896   1757671  
  8470.000000   1758981   1760828   1763069   1765439   1767620  
  8460.000000   1769334   1770429   1770948   1771099   1771198  
  8450.000000   1771552   1772358   1773645   1775268   1776988  
  8440.000000   1778563   1779847   1780822   1781589   1782291  
  8430.000000   1783043   1783859   1784660   1785301   1785666  
  8420.000000   1785730   1785582   1785401   1785388   1785675  
  8410.000000   1786284   1787094   1787914   1788542   1788861  
  8400.000000   1788869   1788679   1788473   1788433   1788665  
  8390.000000   1789181   1789893   1790667   1791367   1791908  
  8380.000000   1792273   1792507   1792682   1792860   1793056  
  8370.000000   1793235   1793316   1793219   1792887   1792330  
  8360.000000   1791619   1790889   1790290   1789950   1789923  
  8350.000000   1790174   1790588   1790990   1791202   1791071  
  8340.000000   1790532   1789608   1788413   1787118   1785906  
  8330.000000   1784951   1784371   1784247   1784590   1785372  
  8320.000000   1786520   1787936   1789493   1791031   1792360  
  8310.000000   1793268   1793569   1793122   1791896   1789975  
  8300.000000   1787603   1785120   1782931   1781381   1780676  
  8290.000000   1780833   1781652   1782804   1783889   1784599  
  8280.000000   1784788   1784538   1784098   1783790   1783886  
  8270.000000   1784496   1785537   1786725   1787691   1788087  
  8260.000000   1787725   1786624   1785001   1783201   1781569  
  8250.000000   1780384   1779749   1779630   1779849   1780201  
  8240.000000   1780485   1780581   1780425   1780016   1779356  
  8230.000000   1778444   1777263   1775789   1774031   1772030  
  8220.000000   1769881   1767705   1765619   1763707   1761982  
  8210.000000   1760429   1758996   1757675   1756488   1755512  
  8200.000000   1754820   1754447   1754336   1754325   1754176  
  8190.000000   1753632   1752513   1750765   1748506   1745975  
  8180.000000   1743470   1741249   1739462   1738120   1737110  
  8170.000000   1736260   1735394   1734402   1733246   1731968  
  8160.000000   1730643   1729358   1728174   1727112   1726165  
  8150.000000   1725282   1724402   1723430   1722284   1720888  
  8140.000000   1719227   1717353   1715395   1713541   1711981  
  8130.000000   1710866   1710253   1710105   1710298   1710679  
  8120.000000   1711103   1711475   1711744   1711882   1711861  
  8110.000000   1711609   1711046   1710076   1708663   1706824  
  8100.000000   1704664   1702338   1700018   1697865   1695989  
  8090.000000   1694467   1693327   1692586   1692219   1692178  
  8080.000000   1692358   1692612   1692775   1692694   1692281  
  8070.000000   1691518   1690480   1689264   1687982   1686696  
  8060.000000   1685436   1684201   1683011   1681922   1681031  
  8050.000000   1680444   1680209   1680294   1680556   1680804  
  8040.000000   1680847   1680583   1680026   1679298   1678571  
  8030.000000   1677982   1677570   1677250   1676855   1676202  
  8020.000000   1675176   1673771   1672096   1670325   1668635  
  8010.000000   1667149   1665907   1664885   1664021   1663266  
  8000.000000   1662602   1662052   1661656   1661450   1661446  
  7990.000000   1661621   1661926   1662289   1662642   1662906  
  7980.000000   1663024   1662940   1662631   1662091   1661359  
  7970.000000   1660489   1659557   1658633   1657775   1657030  
  7960.000000   1656430   1656022   1655846   1655944   1656319  
  7950.000000   1656927   1657655   1658344   1658824   1658954  
  7940.000000   1658676   1658008   1657052   1655928   1654755  
  7930.000000   1653598   1652483   1651405   1650366   1649395  
  7920.000000   1648547   1647894   1647485   1647335   1647412  
  7910.000000   1647659   1648017   1648442   1648914   1649408  
  7900.000000   1649890   1650284   1650501   1650452   1650103  
  7890.000000   1649491   1648735   1648002   1647458   1647212  
  7880.000000   1647284   1647613   1648079   1648560   1648961  
  7870.000000   1649240   1649391   1649427   1649347   1649143  
  7860.000000   1648805   1648353   1647855   1647412   1647146  
  7850.000000   1647132   1647373   1647769   1648148   1648308  
  7840.000000   1648095   1647450   1646436   1645224   1644035  
  7830.000000   1643103   1642592   1642603   1643132   1644111  
  7820.000000   1645405   1646849   1648251   1649422   1650188  
  7810.000000   1650420   1650061   1649128   1647729   1646020  
  7800.000000   1644184   1642384   1640738   1639312   1638116  
  7790.000000   1637151   1636392   1635836   1635465   1635262  
  7780.000000   1635184   1635171   1635152   1635055   1634831  
  7770.000000   1634447   1633902   1633201   1632377   1631459  
  7760.000000   1630506   1629586   1628785   1628182   1627828  
  7750.000000   1627731   1627835   1628049   1628263   1628399  
  7740.000000   1628428   1628381   1628319   1628299   1628327  
  7730.000000   1628349   1628262   1627959   1627377   1626536  
  7720.000000   1625538   1624540   1623685   1623062   1622664  
  7710.000000   1622407   1622164   1621826   1621338   1620722  
  7700.000000   1620047   1619406   1618860   1618424   1618064  
  7690.000000   1617722   1617349   1616921   1616455   1615982  
  7680.000000   1615535   1615120   1614716   1614279   1613769  
  7670.000000   1613160   1612460   1611696   1610913   1610155  
  7660.000000   1609458   1608849   1608349   1607970   1607716  
  7650.000000   1607571   1607499   1607437   1607317   1607073  
  7640.000000   1606677   1606140   1605523   1604917   1604425  
  7630.000000   1604124   1604056   1604208   1604534   1604960  
  7620.000000   1605417   1605841   1606199   1606470   1606662  
  7610.000000   1606791   1606891   1606998   1607156   1607399  
  7600.000000   1607752   1608216   1608774   1609386   1610007  
  7590.000000   1610590   1611101   1611525   1611871   1612160  
  7580.000000   1612425   1612691   1612978   1613291   1613626  
  7570.000000   1613975   1614330   1614695   1615078   1615497  
  7560.000000   1615968   1616495   1617072   1617671   1618261  
  7550.000000   1618796   1619248   1619592   1619830   1619976  
  7540.000000   1620064   1620132   1620233   1620422   1620761  
  7530.000000   1621304   1622090   1623129   1624391   1625805  
  7520.000000   1627277   1628701   1629992   1631096   1632013  
  7510.000000   1632775   1633446   1634079   1634724   1635398  
  7500.000000   1636115   1636871   1637682   1638562   1639537  
  7490.000000   1640624   1641826   1643124   1644492   1645899  
  7480.000000   1647336   1648807   1650341   1651962   1653686  
  7470.000000   1655491   1657335   1659145   1660862   1662441  
  7460.000000   1663891   1665258   1666628   1668086   1669704  
  7450.000000   1671507   1673474   1675549   1677658   1679741  
  7440.000000   1681771   1683756   1685739   1687766   1689871  
  7430.000000   1692051   1694271   1696465   1698571   1700543  
  7420.000000   1702380   1704113   1705804   1707518   1709308  
  7410.000000   1711199   1713191   1715266   1717401   1719574  
  7400.000000   1721764   1723956   1726132   1728277   1730386  
  7390.000000   1732468   1734551   1736674   1738864   1741125  
  7380.000000   1743423   1745694   1747867   1749893   1751768  
  7370.000000   1753542   1755294   1757102   1759007   1760987  
  7360.000000   1762967   1764844   1766532   1767997   1769274  
  7350.000000   1770459   1771672   1773022   1774570   1776321  
  7340.000000   1778234   1780253   1782324   1784413   1786499  
  7330.000000   1788565   1790585   1792528   1794368   1796098  
  7320.000000   1797734   1799312   1800875   1802447   1804028  
  7310.000000   1805590   1807093   1808511   1809839   1811110  
  7300.000000   1812373   1813691   1815105   1816644   1818302  
  7290.000000   1820063   1821892   1823744   1825557   1827252  
  7280.000000   1828744   1829952   1830830   1831384   1831689  
  7270.000000   1831873   1832087   1832463   1833080   1833959  
  7260.000000   1835064   1836336   1837720   1839190   1840746  
  7250.000000   1842396   1844135   1845920   1847685   1849336  
  7240.000000   1850804   1852045   1853088   1853988   1854844  
  7230.000000   1855733   1856730   1857862   1859154   1860607  
  7220.000000   1862236   1864054   1866083   1868335   1870820  
  7210.000000   1873524   1876430   1879495   1882683   1885929  
  7200.000000   1889185   1892382   1895482   1898450   1901304  
  7190.000000   1904070   1906826   1909635   1912572   1915660  
  7180.000000   1918898   1922235   1925616   1928976   1932289  
  7170.000000   1935554   1938824   1942162   1945652   1949344  
  7160.000000   1953260   1957366   1961606   1965894   1970175  
  7150.000000   1974405   1978604   1982814   1987119   1991573  
  7140.000000   1996218   2001019   2005919   2010815   2015645  
  7130.000000   2020366   2025022   2029683   2034467   2039468  
  7120.000000   2044761   2050359   2056243   2062355   2068650  
  7110.000000   2075074   2081604   2088195   2094811   2101379  
  7100.000000   2107838   2114121   2120215   2126132   2131951  
  7090.000000   2137757   2143655   2149713   2155972   2162427  
  7080.000000   2169050   2175792   2182605   2189448   2196294  
  7070.000000   2203126   2209941   2216734   2223507   2230239  
  7060.000000   2236911   2243483   2249927   2256225   2262396  
  7050.000000   2268491   2274590   2280778   2287113   2293608  
  7040.000000   2300220   2306873   2313478   2319972   2326331  
  7030.000000   2332579   2338757   2344919   2351088   2357274  
  7020.000000   2363458   2369628   2375774   2381901   2387999  
  7010.000000   2394047   2399980   2405725   2411196   2416356  
  7000.000000   2421212   2425845   2430358   2434871   2439452  
  6990.000000   2444129   2448852   2453562   2458173   2462642  
  6980.000000   2466937   2471072   2475055   2478918   2482667  
  6970.000000   2486329   2489914   2493453   2496953   2500423  
  6960.000000   2503831   2507144   2510305   2513288   2516076  
  6950.000000   2518704   2521206   2523641   2526038   2528422  
  6940.000000   2530788   2533138   2535461   2537762   2540023  
  6930.000000   2542224   2544312   2546241   2547970   2549503  
  6920.000000   2550881   2552193   2553528   2554957   2556491  
  6910.000000   2558090   2559674   2561168   2562521   2563743  
  6900.000000   2564876   2565997   2567163   2568414   2569749  
  6890.000000   2571151   2572590   2574045   2575490   2576898  
  6880.000000   2578230   2579440   2580487   2581352   2582054  
  6870.000000   2582650   2583217   2583831   2584534   2585335  
  6860.000000   2586205   2587103   2587988   2588843   2589661  
  6850.000000   2590449   2591209   2591939   2592634   2593299  
  6840.000000   2593954   2594627   2595339   2596092   2596851  
  6830.000000   2597559   2598153   2598598   2598895   2599100  
  6820.000000   2599284   2599523   2599857   2600288   2600781  
  6810.000000   2601293   2601788   2602255   2602691   2603097  
  6800.000000   2603454   2603731   2603886   2603901   2603790  
  6790.000000   2603609   2603429   2603312   2603281   2603311  
  6780.000000   2603335   2603285   2603104   2602788   2602368  
  6770.000000   2601905   2601457   2601068   2600750   2600500  
  6760.000000   2600304   2600148   2600012   2599869   2599677  
  6750.000000   2599387   2598959   2598385   2597698   2596973  
  6740.000000   2596303   2595764   2595396   2595186   2595080  
  6730.000000   2595013   2594932   2594817   2594674   2594523  
  6720.000000   2594372   2594214   2594026   2593792   2593515  
  6710.000000   2593226   2592969   2592779   2592659   2592575  
  6700.000000   2592462   2592259   2591923   2591461   2590908  
  6690.000000   2590319   2589732   2589159   2588575   2587943  
  6680.000000   2587224   2586401   2585474   2584460   2583370  
  6670.000000   2582214   2580991   2579717   2578413   2577125  
  6660.000000   2575893   2574744   2573667   2572621   2571545  
  6650.000000   2570394   2569158   2567872   2566595   2565388  
  6640.000000   2564273   2563228   2562192   2561097   2559895  
  6630.000000   2558586   2557203   2555806   2554432   2553095  
  6620.000000   2551768   2550416   2549011   2547562   2546101  
  6610.000000   2544679   2543319   2542011   2540702   2539320  
  6600.000000   2537804   2536136   2534345   2532497   2530662  
  6590.000000   2528890   2527190   2525538   2523892   2522225  
  6580.000000   2520531   2518837   2517184   2515611   2514137  
  6570.000000   2512758   2511447   2510164   2508869   2507522  
  6560.000000   2506098   2504580   2502972   2501295   2499594  
  6550.000000   2497927   2496354   2494918   2493629   2492467  
  6540.000000   2491386   2490334   2489279   2488207   2487129  
  6530.000000   2486054   2484980   2483879   2482709   2481425  
  6520.000000   2480014   2478505   2476969   2475501   2474190  
  6510.000000   2473091   2472208   2471495   2470872   2470250  
  6500.000000   2469551   2468724   2467748   2466629   2465392  
  6490.000000   2464077   2462728   2461390   2460101   2458882  
  6480.000000   2457737   2456655   2455610   2454577   2453532  
  6470.000000   2452456   2451335   2450159   2448924   2447635  
  6460.000000   2446317   2445013   2443780   2442670   2441714  
  6450.000000   2440899   2440171   2439451   2438660   2437753  
  6440.000000   2436740   2435674   2434640   2433705   2432903  
  6430.000000   2432213   2431577   2430921   2430195   2429387  
  6420.000000   2428528   2427668   2426861   2426137   2425505  
  6410.000000   2424954   2424476   2424065   2423725   2423451  
  6400.000000   2423226   2423004   2422733   2422363   2421874  
  6390.000000   2421276   2420617   2419951   2419326   2418763  
  6380.000000   2418263   2417811   2417399   2417037   2416748  
  6370.000000   2416555   2416460   2416430   2416401   2416297  
  6360.000000   2416053   2415645   2415091   2414449   2413787  
  6350.000000   2413160   2412598   2412101   2411647   2411213  
  6340.000000   2410775   2410325   2409853   2409356   2408825  
  6330.000000   2408257   2407649   2407009   2406348   2405678  
  6320.000000   2404998   2404299   2403558   2402756   2401877  
  6310.000000   2400929   2399919   2398870   2397783   2396655  
  6300.000000   2395463   2394197   2392853   2391457   2390043  
  6290.000000   2388650   2387295   2385972   2384642   2383262  
  6280.000000   2381791   2380222   2378574   2376894   2375231  
  6270.000000   2373623   2372078   2370580   2369091   2367573  
  6260.000000   2365990   2364325   2362571   2360737   2358835  
  6250.000000   2356891   2354928   2352981   2351076   2349239  
  6240.000000   2347472   2345770   2344104   2342448   2340770  
  6230.000000   2339047   2337262   2335402   2333461   2331433  
  6220.000000   2329325   2327156   2324965   2322800   2320710  
  6210.000000   2318730   2316870   2315114   2313427   2311770  
  6200.000000   2310114   2308452   2306787   2305133   2303496  
  6190.000000   2301873   2300253   2298624   2296988   2295358  
  6180.000000   2293756   2292200   2290697   2289231   2287778  
  6170.000000   2286307   2284802   2283270   2281731   2280218  
  6160.000000   2278753   2277345   2275985   2274656   2273341  
  6150.000000   2272033   2270735   2269451   2268178   2266900  
  6140.000000   2265590   2264219   2262775   2261264   2259716  
  6130.000000   2258175   2256686   2255277   2253961   2252730  
  6120.000000   2251568   2250453   2249371   2248305   2247244  
  6110.000000   2246171   2245074   2243946   2242798   2241649  
  6100.000000   2240538   2239498   2238555   2237713   2236964  
  6090.000000   2236280   2235647   2235052   2234508   2234028  
  6080.000000   2233637   2233334   2233119   2232963   2232845  
  6070.000000   2232736   2232637   2232544   2232484   2232473  
  6060.000000   2232544   2232709   2232993   2233398   2233935  
  6050.000000   2234589   2235352   2236188   2237080   2237997  
  6040.000000   2238939   2239912   2240953   2242090   2243369  
  6030.000000   2244802   2246398   2248133   2249982   2251905  
  6020.000000   2253878   2255872   2257882   2259897   2261930  
  6010.000000   2263982   2266069   2268192   2270364   2272572  
  6000.000000   2274813   2277064   2279318   2281565   2283825  
  5990.000000   2286117   2288485   2290958   2293567   2296313  
  5980.000000   2299191   2302173   2305240   2308368   2311554  
  5970.000000   2314793   2318097   2321464   2324902   2328400  
  5960.000000   2331959   2335556   2339185   2342815   2346428  
  5950.000000   2349992   2353497   2356937   2360336   2363736  
  5940.000000   2367193   2370761   2374480   2378364   2382403  
  5930.000000   2386568   2390815   2395104   2399389   2403632  
  5920.000000   2407785   2411801   2415630   2419230   2422578  
  5910.000000   2425680   2428568   2431296   2433924   2436518  
  5900.000000   2439125   2441789   2444529   2447365   2450289  
  5890.000000   2453293   2456339   2459390   2462394   2465316  
  5880.000000   2468127   2470825   2473416   2475918   2478338  
  5870.000000   2480677   2482927   2485079   2487140   2489134  
  5860.000000   2491101   2493082   2495112   2497203   2499348  
  5850.000000   2501528   2503732   2505961   2508239   2510600  
  5840.000000   2513079   2515692   2518434   2521278   2524187  
  5830.000000   2527121   2530055   2532971   2535863   2538722  
  5820.000000   2541540   2544302   2546994   2549612   2552153  
  5810.000000   2554628   2557033   2559377   2561636   2563813  
  5800.000000   2565880   2567859   2569743   2571573   2573343  
  5790.000000   2575071   2576709   2578221   2579508   2580499  
  5780.000000   2581081   2581190   2580751   2579751   2578198  
  5770.000000   2576168   2573762   2571136   2568430   2565791  
  5760.000000   2563305   2561028   2558951   2557055   2555296  
  5750.000000   2553651   2552106   2550669   2549348   2548150  
  5740.000000   2547073   2546098   2545211   2544389   2543620  
  5730.000000   2542884   2542173   2541465   2540750   2540013  
  5720.000000   2539258   2538493   2537738   2537007   2536316  
  5710.000000   2535663   2535044   2534454   2533895   2533377  
  5700.000000   2532919   2532533   2532221   2531972   2531761  
  5690.000000   2531566   2531365   2531160   2530951   2530753  
  5680.000000   2530559   2530354   2530099   2529753   2529269  
  5670.000000   2528617   2527773   2526733   2525487   2524043  
  5660.000000   2522401   2520588   2518638   2516614   2514579  
  5650.000000   2512605   2510734   2508986   2507348   2505789  
  5640.000000   2504269   2502759   2501241   2499713   2498185  
  5630.000000   2496670   2495185   2493745   2492374   2491089  
  5620.000000   2489913   2488850   2487899   2487035   2486228  
  5610.000000   2485443   2484656   2483854   2483041   2482224  
  5600.000000   2481415   2480617   2479831   2479052   2478279  
  5590.000000   2477515   2476763   2476027   2475300   2474572  
  5580.000000   2473828   2473059   2472259   2471437   2470599  
  5570.000000   2469749   2468875   2467956   2466964   2465881  
  5560.000000   2464704   2463454   2462168   2460888   2459646  
  5550.000000   2458459   2457322   2456222   2455141   2454068  
  5540.000000   2452998   2451931   2450866   2449801   2448730  
  5530.000000   2447652   2446573   2445502   2444450   2443421  
  5520.000000   2442403   2441376   2440316   2439205   2438042  
  5510.000000   2436842   2435628   2434424   2433241   2432079  
  5500.000000   2430928   2429781   2428639   2427516   2426421  
  5490.000000   2425362   2424315   2423246   2422105   2420855  
  5480.000000   2419475   2417975   2416382   2414737   2413062  
  5470.000000   2411373   2409662   2407924   2406150   2404347  
  5460.000000   2402521   2400676   2398795   2396857   2394827  
  5450.000000   2392693   2390461   2388175   2385897   2383687  
  5440.000000   2381586   2379600   2377712   2375888   2374106  
  5430.000000   2372350   2370622   2368914   2367217   2365500  
  5420.000000   2363749   2361956   2360166   2358447   2356902  
  5410.000000   2355602   2354592   2353841   2353290   2352851  
  5400.000000   2352470   2352109   2351789   2351531   2351376  
  5390.000000   2351328   2351392   2351537   2351770   2352087  
  5380.000000   2352535   2353134   2353922   2354880   2355996  
  5370.000000   2357208   2358502   2359843   2361267   2362779  
  5360.000000   2364442   2366258   2368277   2370488   2372952  
  5350.000000   2375678   2378757   2382207   2386105   2390427  
  5340.000000   2395205   2400377   2405977   2411959   2418387  
  5330.000000   2425223   2432522   2440212   2448321   2456770  
  5320.000000   2465621   2474849   2484589   2494860   2505811  
  5310.000000   2517431   2529810   2542870   2556658   2571088  
  5300.000000   2586229   2602044   2618655   2636064   2654406  
  5290.000000   2673656   2693878   2714953   2736831   2759321  
  5280.000000   2782351   2805795   2829697   2854078   2879090  
  5270.000000   2904788   2931229   2958300   2985833   3013570  
  5260.000000   3041293   3068861   3096246   3123515   3150744  
  5250.000000   3177989   3205169   3232159   3258703   3284638  
  5240.000000   3309777   3334140   3357725   3380702   3403112  
  5230.000000   3425077   3446516   3467410   3487564   3506920  
  5220.000000   3525325   3542837   3559437   3575309   3590502  
  5210.000000   3605202   3619385   3633113   3646231   3658708  
  5200.000000   3670369   3681239   3691248   3700521   3709051  
  5190.000000   3716968   3724231   3730908   3736919   3742323  
  5180.000000   3747065   3751243   3754832   3757927   3760481  
  5170.000000   3762549   3764062   3765075   3765554   3765590  
  5160.000000   3765176   3764402   3763240   3761737   3759840  
  5150.000000   3757589   3754948   3751975   3748653   3745032  
  5140.000000   3741080   3736825   3732238   3727370   3722234  
  5130.000000   3716919   3711462   3705935   3700342   3694703  
  5120.000000   3688985   3683191   3677305   3671355   3665353  
  5110.000000   3659334   3653303   3647268   3641220   3635159  
  5100.000000   3629089   3623032   3617008   3611043   3605149  
  5090.000000   3599329   3593574   3587877   3582229   3576630  
  5080.000000   3571079   3565572   3560094   3554627   3549145  
  5070.000000   3543632   3538078   3532487   3526866   3521228  
  5060.000000   3515570   3509887   3504156   3498362   3492483  
  5050.000000   3486517   3480459   3474324   3468119   3461860  
  5040.000000   3455551   3449204   3442821   3436412   3429981  
  5030.000000   3423536   3417081   3410622   3404165   3397714  
  5020.000000   3391283   3384879   3378518   3372211   3365978  
  5010.000000   3359830   3353796   3347886   3342134   3336548  
  5000.000000   3331154   3325944   3320930   3316088   3311428  
  4990.000000   3306930   3302621   3298491   3294584   3290893  
  4980.000000   3287460   3284265   3281343   3278668   3276277  
  4970.000000   3274149   3272332   3270809   3269632   3268781  
  4960.000000   3268305   3268178   3268450   3269093   3270154  
  4950.000000   3271601   3273468   3275703   3278328   3281283  
  4940.000000   3284590   3288201   3292157   3296428   3301065  
  4930.000000   3306038   3311389   3317077   3323133   3329511  
  4920.000000   3336239   3343275   3350646   3358319   3366320  
  4910.000000   3374622   3383245   3392165   3401389   3410878  
  4900.000000   3420612   3430536   3440610   3450780   3461010  
  4890.000000   3471269   3481528   3491763   3501930   3511989  
  4880.000000   3521867   3531518   3540863   3549876   3558496  
  4870.000000   3566719   3574493   3581823   3588656   3595008  
  4860.000000   3600842   3606204   3611090   3615573   3619663  
  4850.000000   3623432   3626880   3630060   3632957   3635616  
  4840.000000   3638026   3640238   3642261   3644155   3645944  
  4830.000000   3647685   3649399   3651124   3652859   3654613  
  4820.000000   3656365   3658105   3659817   3661504   3663176  
  4810.000000   3664856   3666569   3668336   3670166   3672054  
  4800.000000   3673985   3675937   3677894   3679845   3681786  
  4790.000000   3683722   3685657   3687595   3689534   3691474  
  4780.000000   3693407   3695330   3697235   3699116   3700961  
  4770.000000   3702764   3704512   3706205   3707837   3709421  
  4760.000000   3710958   3712463   3713927   3715351   3716710  
  4750.000000   3717993   3719171   3720239   3721179   3721998  
  4740.000000   3722688   3723261   3723712   3724049   3724269  
  4730.000000   3724380   3724384   3724294   3724122   3723888  
  4720.000000   3723611   3723318   3723030   3722768   3722548  
  4710.000000   3722379   3722268   3722214   3722222   3722295  
  4700.000000   3722444   3722677   3723010   3723452   3724017  
  4690.000000   3724708   3725539   3726508   3727621   3728863  
  4680.000000   3730220   3731649   3733115   3734560   3735951  
  4670.000000   3737249   3738456   3739574   3740643   3741689  
  4660.000000   3742762   3743889   3745112   3746455   3747954  
  4650.000000   3749631   3751513   3753604   3755904   3758385  
  4640.000000   3761014   3763747   3766543   3769369   3772202  
  4630.000000   3775029   3777840   3780626   3783371   3786057  
  4620.000000   3788654   3791132   3793447   3795567   3797444  
  4610.000000   3799056   3800375   3801419   3802204   3802792  
  4600.000000   3803232   3803595   3803914   3804228   3804521  
  4590.000000   3804792   3804997   3805123   3805133   3805024  
  4580.000000   3804769   3804370   3803805   3803075   3802170  
  4570.000000   3801110   3799911   3798617   3797258   3795882  
  4560.000000   3794506   3793151   3791809   3790475   3789128  
  4550.000000   3787755   3786339   3784870   3783341   3781747  
  4540.000000   3780091   3778380   3776634   3774876   3773142  
  4530.000000   3771457   3769859   3768355   3766974   3765705  
  4520.000000   3764570   3763554   3762686   3761950   3761390  
  4510.000000   3760995   3760830   3760896   3761282   3762002  
  4500.000000   3763162   3764772   3766932   3769635   3772967  
  4490.000000   3776904   3781529   3786817   3792853   3799603  
  4480.000000   3807135   3815388   3824397   3834078   3844447  
  4470.000000   3855415   3866996   3879110   3891766   3904882  
  4460.000000   3918455   3932395   3946679   3961217   3975977  
  4450.000000   3990879   4005893   4020959   4036054   4051148  
  4440.000000   4066223   4081270   4096267   4111209   4126054  
  4430.000000   4140792   4155356   4169726   4183813   4197596  
  4420.000000   4210975   4223939   4236391   4248334   4259684  
  4410.000000   4270449   4280546   4289982   4298675   4306640  
  4400.000000   4313825   4320283   4326018   4331141   4335711  
  4390.000000   4339872   4343706   4347356   4350895   4354430  
  4380.000000   4358002   4361677   4365466   4369405   4373499  
  4370.000000   4377780   4382261   4386971   4391915   4397095  
  4360.000000   4402482   4408040   4413705   4419430   4425133  
  4350.000000   4430783   4436298   4441681   4446874   4451924  
  4340.000000   4456812   4461606   4466262   4470737   4474808  
  4330.000000   4478193   4480457   4481189   4480018   4476802  
  4320.000000   4471626   4464891   4457173   4449186   4441564  
  4310.000000   4434820   4429207   4424792   4421435   4418939  
  4300.000000   4417070   4415654   4414568   4413739   4413134  
  4290.000000   4412711   4412465   4412364   4412432   4412675  
  4280.000000   4413139   4413847   4414810   4416018   4417420  
  4270.000000   4418973   4420590   4422197   4423659   4424820  
  4260.000000   4425454   4425325   4424188   4421881   4418341  
  4250.000000   4413670   4408087   4401942   4395588   4389387  
  4240.000000   4383579   4378329   4373649   4369494   4365727  
  4230.000000   4362220   4358829   4355447   4351990   4348407  
  4220.000000   4344691   4340847   4336940   4333026   4329220  
  4210.000000   4325601   4322279   4319301   4316718   4314513  
  4200.000000   4312668   4311115   4309806   4308663   4307655  
  4190.000000   4306725   4305883   4305099   4304410   4303801  
  4180.000000   4303322   4302960   4302774   4302759   4302992  
  4170.000000   4303490   4304352   4305612   4307371   4309646  
  4160.000000   4312509   4315933   4319945   4324475   4329532  
  4150.000000   4335035   4341003   4347370   4354178   4361380  
  4140.000000   4369036   4377106   4385650   4394622   4404068  
  4130.000000   4413929   4424242   4434950   4446096   4457645  
  4120.000000   4469653   4482101   4495041   4508445   4522344  
  4110.000000   4536691   4551495   4566699   4582295   4598218  
  4100.000000   4614445   4630904   4647567   4664376   4681314  
  4090.000000   4698355   4715491   4732708   4749988   4767317  
  4080.000000   4784664   4802027   4819375   4836724   4854028  
  4070.000000   4871279   4888382   4905289   4921865   4938065  
  4060.000000   4953775   4968996   4983646   4997756   5011248  
  4050.000000   5024161   5036423   5048102   5059146   5069642  
  4040.000000   5079527   5088859   5097528   5105565   5112852  
  4030.000000   5119445   5125266   5130395   5134769   5138441  
  4020.000000   5141307   5143414   5144732   5145352   5145254  
  4010.000000   5144600   5143478   5141926   5139742   5136977  
  4000.000000   5133910  
##END= 
