##TITLE= Sample 025 By ssteindl date Dienstag, November 20 2018
##JCAMP-DX= 4.24
##DATA TYPE= INFRARED SPECTRUM
##ORIGIN= Exported PE Spectrum Data File
##OWNER= Sandra Steindl
##DATE= 18/11/20
##TIME= 11:42:01.00
##SPECTROMETER/DATA SYSTEM= PERKIN-ELMER Frontier FT-IR/NIR IR
##INSTRUMENT PARAMETERS=
  APODIZATION=stark
  DETECTOR=INGAAS
##RESOLUTION= 16.000000
##DELTAX= -2.000000
##XUNITS= 1/CM
##YUNITS= A
##XFACTOR= 1.00
##YFACTOR= 0.00000011920928955078
##FIRSTX= 10000.00
##LASTX= 4000.00
##NPOINTS= 3001
##FIRSTY= 0.199072
##MAXY= 0.595418
##MINY= 0.172309
##XYDATA= (X++(Y..Y))
 10000.000000   1669933   1669002   1667930   1666533   1664862  
  9990.000000   1662959   1660777   1658148   1655061   1651662  
  9980.000000   1648189   1644933   1642217   1640406   1639853  
  9970.000000   1640880   1643698   1648267   1654228   1660838  
  9960.000000   1667141   1672109   1674958   1675311   1673331  
  9950.000000   1669681   1665366   1661502   1659064   1658696  
  9940.000000   1660596   1664490   1669655   1675058   1679502  
  9930.000000   1681919   1681576   1678353   1672767   1665931  
  9920.000000   1659253   1654078   1651318   1651217   1653353  
  9910.000000   1656800   1660440   1663272   1664622   1664240  
  9900.000000   1662273   1659140   1655447   1651824   1648881  
  9890.000000   1647074   1646642   1647558   1649504   1652040  
  9880.000000   1654666   1657121   1659328   1661515   1663899  
  9870.000000   1666587   1669327   1671525   1672422   1671304  
  9860.000000   1667860   1662197   1654889   1646674   1638275  
  9850.000000   1630172   1622609   1615692   1609550   1604483  
  9840.000000   1600918   1599318   1599910   1602591   1606832  
  9830.000000   1611874   1616939   1621461   1625252   1628366  
  9820.000000   1631071   1633490   1635648   1637303   1638164  
  9810.000000   1637929   1636467   1633869   1630447   1626724  
  9800.000000   1623295   1620804   1619740   1620410   1622736  
  9790.000000   1626276   1630197   1633484   1635203   1634776  
  9780.000000   1632207   1628063   1623325   1619045   1615997  
  9770.000000   1614508   1614356   1615076   1616069   1617028  
  9760.000000   1617876   1618852   1620191   1621962   1623895  
  9750.000000   1625339   1625488   1623472   1618759   1611130  
  9740.000000   1600939   1588924   1576250   1564278   1554398  
  9730.000000   1547812   1545230   1546784   1551895   1559491  
  9720.000000   1568225   1576841   1584452   1590637   1595442  
  9710.000000   1599083   1601823   1603674   1604565   1604335  
  9700.000000   1603080   1601155   1599193   1597896   1597714  
  9690.000000   1598752   1600589   1602600   1604059   1604532  
  9680.000000   1603901   1602409   1600446   1598372   1596341  
  9670.000000   1594296   1592034   1589383   1586317   1583017  
  9660.000000   1579833   1577163   1575332   1574496   1574573  
  9650.000000   1575292   1576212   1576860   1576829   1575909  
  9640.000000   1574187   1572027   1570019   1568737   1568565  
  9630.000000   1569458   1570968   1572313   1572724   1571681  
  9620.000000   1569179   1565718   1562150   1559387   1558070  
  9610.000000   1558405   1560114   1562644   1565363   1567818  
  9600.000000   1569792   1571296   1572439   1573303   1573901  
  9590.000000   1574146   1573940   1573166   1571758   1569646  
  9580.000000   1566813   1563324   1559390   1555451   1552088  
  9570.000000   1549969   1549552   1550957   1553804   1557320  
  9560.000000   1560560   1562716   1563367   1562548   1560643  
  9550.000000   1558146   1555469   1552817   1550279   1547923  
  9540.000000   1545960   1544704   1544443   1545252   1546798  
  9530.000000   1548405   1549226   1548627   1546504   1543386  
  9520.000000   1540293   1538274   1537980   1539319   1541515  
  9510.000000   1543427   1544066   1543020   1540621   1537790  
  9500.000000   1535621   1534954   1536031   1538470   1541460  
  9490.000000   1544112   1545809   1546335   1545871   1544763  
  9480.000000   1543349   1541835   1540309   1538831   1537511  
  9470.000000   1536528   1536070   1536236   1536943   1537973  
  9460.000000   1539008   1539818   1540297   1540527   1540666  
  9450.000000   1540845   1541079   1541238   1541115   1540519  
  9440.000000   1539355   1537676   1535651   1533520   1531507  
  9430.000000   1529789   1528446   1527491   1526861   1526446  
  9420.000000   1526085   1525586   1524755   1523466   1521715  
  9410.000000   1519660   1517573   1515744   1514385   1513533  
  9400.000000   1513091   1512860   1512668   1512399   1512018  
  9390.000000   1511518   1510887   1510082   1509076   1507897  
  9380.000000   1506710   1505786   1505449   1505933   1507230  
  9370.000000   1509067   1510931   1512314   1512870   1512589  
  9360.000000   1511771   1510907   1510479   1510711   1511488  
  9350.000000   1512324   1512591   1511718   1509442   1505862  
  9340.000000   1501424   1496789   1492672   1489723   1488364  
  9330.000000   1488762   1490744   1493898   1497591   1501147  
  9320.000000   1503940   1505589   1506026   1505534   1504613  
  9310.000000   1503758   1503264   1503082   1502883   1502161  
  9300.000000   1500475   1497617   1493741   1489312   1484927  
  9290.000000   1481113   1478135   1475981   1474433   1473226  
  9280.000000   1472196   1471331   1470760   1470625   1470996  
  9270.000000   1471799   1472857   1473939   1474877   1475613  
  9260.000000   1476235   1476899   1477759   1478884   1480227  
  9250.000000   1481654   1482982   1484035   1484691   1484877  
  9240.000000   1484583   1483824   1482617   1480978   1478920  
  9230.000000   1476513   1473896   1471296   1468986   1467248  
  9220.000000   1466293   1466208   1466877   1468008   1469175  
  9210.000000   1469965   1470100   1469514   1468388   1467075  
  9200.000000   1466004   1465507   1465716   1466519   1467626  
  9190.000000   1468680   1469375   1469562   1469275   1468695  
  9180.000000   1468052   1467550   1467295   1467279   1467370  
  9170.000000   1467376   1467081   1466326   1465052   1463357  
  9160.000000   1461497   1459834   1458745   1458470   1459030  
  9150.000000   1460153   1461354   1462053   1461796   1460439  
  9140.000000   1458224   1455723   1453646   1452635   1453069  
  9130.000000   1454931   1457845   1461194   1464347   1466762  
  9120.000000   1468085   1468169   1467094   1465120   1462639  
  9110.000000   1460143   1458165   1457184   1457485   1459066  
  9100.000000   1461583   1464444   1466939   1468474   1468723  
  9090.000000   1467741   1465905   1463753   1461795   1460341  
  9080.000000   1459456   1458987   1458673   1458282   1457699  
  9070.000000   1456965   1456215   1455633   1455365   1455488  
  9060.000000   1455966   1456647   1457305   1457667   1457508  
  9050.000000   1456690   1455246   1453400   1451538   1450107  
  9040.000000   1449453   1449717   1450773   1452268   1453738  
  9030.000000   1454773   1455154   1454891   1454165   1453217  
  9020.000000   1452244   1451320   1450415   1449454   1448429  
  9010.000000   1447417   1446579   1446067   1445962   1446198  
  9000.000000   1446600   1446943   1447074   1446929   1446576  
  8990.000000   1446133   1445755   1445547   1445568   1445876  
  8980.000000   1446549   1447715   1449465   1451850   1454790  
  8970.000000   1458081   1461396   1464389   1466790   1468418  
  8960.000000   1469197   1469082   1468084   1466189   1463440  
  8950.000000   1459968   1456083   1452238   1448916   1446563  
  8940.000000   1445429   1445565   1446764   1448739   1451166  
  8930.000000   1453817   1456486   1459018   1461247   1462980  
  8920.000000   1464044   1464320   1463877   1462891   1461639  
  8910.000000   1460335   1459097   1457873   1456514   1454897  
  8900.000000   1453029   1451149   1449600   1448783   1448921  
  8890.000000   1450017   1451803   1453874   1455846   1457446  
  8880.000000   1458587   1459251   1459458   1459129   1458144  
  8870.000000   1456390   1453940   1451121   1448519   1446817  
  8860.000000   1446566   1447996   1450896   1454687   1458586  
  8850.000000   1461869   1464087   1465148   1465304   1464951  
  8840.000000   1464512   1464242   1464250   1464476   1464823  
  8830.000000   1465208   1465653   1466264   1467181   1468546  
  8820.000000   1470406   1472745   1475410   1478196   1480848  
  8810.000000   1483133   1484916   1486155   1486955   1487463  
  8800.000000   1487845   1488168   1488388   1488353   1487897  
  8790.000000   1486958   1485668   1484398   1483652   1483937  
  8780.000000   1485524   1488372   1492067   1495979   1499436  
  8770.000000   1501940   1503319   1503721   1503550   1503245  
  8760.000000   1503147   1503363   1503806   1504253   1504499  
  8750.000000   1504447   1504167   1503875   1503842   1504309  
  8740.000000   1505377   1507003   1508987   1511060   1512949  
  8730.000000   1514467   1515571   1516361   1517048   1517871  
  8720.000000   1518996   1520460   1522138   1523780   1525116  
  8710.000000   1525935   1526193   1525985   1525530   1525046  
  8700.000000   1524689   1524490   1524386   1524293   1524185  
  8690.000000   1524170   1524452   1525295   1526894   1529315  
  8680.000000   1532440   1536006   1539685   1543150   1546146  
  8670.000000   1548481   1550060   1550847   1550912   1550415  
  8660.000000   1549634   1548927   1548659   1549114   1550374  
  8650.000000   1552312   1554605   1556885   1558856   1560409  
  8640.000000   1561623   1562687   1563775   1564924   1566005  
  8630.000000   1566779   1567038   1566743   1566101   1565516  
  8620.000000   1565466   1566301   1568111   1570666   1573503  
  8610.000000   1576068   1577915   1578823   1578861   1578322  
  8600.000000   1577627   1577200   1577380   1578369   1580218  
  8590.000000   1582838   1586029   1589490   1592876   1595845  
  8580.000000   1598146   1599660   1600427   1600621   1600517  
  8570.000000   1600393   1600481   1600915   1601753   1603001  
  8560.000000   1604629   1606607   1608865   1611311   1613776  
  8550.000000   1616083   1618071   1619661   1620878   1621832  
  8540.000000   1622685   1623553   1624481   1625411   1626243  
  8530.000000   1626885   1627315   1627617   1627940   1628455  
  8520.000000   1629269   1630410   1631811   1633375   1634998  
  8510.000000   1636622   1638229   1639821   1641383   1642863  
  8500.000000   1644191   1645297   1646161   1646811   1647328  
  8490.000000   1647787   1648244   1648692   1649097   1649429  
  8480.000000   1649717   1650065   1650640   1651607   1653082  
  8470.000000   1655059   1657408   1659912   1662335   1664501  
  8460.000000   1666333   1667881   1669288   1670740   1672410  
  8450.000000   1674408   1676754   1679366   1682063   1684605  
  8440.000000   1686729   1688224   1688972   1689020   1688564  
  8430.000000   1687929   1687450   1687403   1687894   1688854  
  8420.000000   1690037   1691140   1691892   1692166   1691979  
  8410.000000   1691497   1690930   1690475   1690224   1690176  
  8400.000000   1690252   1690354   1690411   1690399   1690329  
  8390.000000   1690223   1690078   1689872   1689570   1689164  
  8380.000000   1688686   1688212   1687834   1687623   1687578  
  8370.000000   1687652   1687732   1687741   1687636   1687476  
  8360.000000   1687384   1687511   1687955   1688687   1689530  
  8350.000000   1690174   1690276   1689525   1687761   1685017  
  8340.000000   1681561   1677824   1674310   1671490   1669694  
  8330.000000   1669082   1669590   1670994   1672942   1675061  
  8320.000000   1677013   1678550   1679536   1679920   1679743  
  8310.000000   1679066   1677985   1676575   1674929   1673143  
  8300.000000   1671342   1669684   1668334   1667456   1667137  
  8290.000000   1667384   1668070   1668973   1669793   1670221  
  8280.000000   1670014   1669054   1667396   1665244   1662910  
  8270.000000   1660741   1659033   1657991   1657669   1658002  
  8260.000000   1658804   1659853   1660901   1661743   1662203  
  8250.000000   1662164   1661556   1660362   1658617   1656402  
  8240.000000   1653852   1651130   1648416   1645877   1643644  
  8230.000000   1641802   1640363   1639286   1638458   1637746  
  8220.000000   1636992   1636078   1634930   1633555   1632044  
  8210.000000   1630541   1629210   1628160   1627419   1626891  
  8200.000000   1626402   1625735   1624705   1623224   1621330  
  8190.000000   1619188   1617041   1615142   1613680   1612736  
  8180.000000   1612263   1612113   1612071   1611914   1611453  
  8170.000000   1610575   1609260   1607583   1605695   1603783  
  8160.000000   1602020   1600520   1599302   1598296   1597358  
  8150.000000   1596334   1595110   1593665   1592073   1590472  
  8140.000000   1588995   1587711   1586588   1585499   1584287  
  8130.000000   1582824   1581088   1579170   1577259   1575571  
  8120.000000   1574273   1573425   1572963   1572725   1572518  
  8110.000000   1572174   1571607   1570815   1569872   1568880  
  8100.000000   1567945   1567141   1566508   1566043   1565719  
  8090.000000   1565474   1565235   1564912   1564432   1563753  
  8080.000000   1562886   1561900   1560905   1560024   1559346  
  8070.000000   1558898   1558642   1558484   1558315   1558055  
  8060.000000   1557665   1557168   1556617   1556076   1555587  
  8050.000000   1555157   1554759   1554348   1553875   1553306  
  8040.000000   1552621   1551815   1550895   1549878   1548795  
  8030.000000   1547680   1546576   1545516   1544515   1543565  
  8020.000000   1542638   1541712   1540786   1539902   1539138  
  8010.000000   1538584   1538308   1538307   1538499   1538722  
  8000.000000   1538794   1538554   1537930   1536964   1535803  
  7990.000000   1534659   1533748   1533223   1533136   1533426  
  7980.000000   1533940   1534483   1534858   1534928   1534626  
  7970.000000   1533974   1533062   1532020   1530989   1530076  
  7960.000000   1529343   1528774   1528304   1527817   1527199  
  7950.000000   1526365   1525292   1524037   1522728   1521535  
  7940.000000   1520638   1520174   1520213   1520728   1521612  
  7930.000000   1522686   1523753   1524625   1525180   1525372  
  7920.000000   1525251   1524933   1524578   1524335   1524311  
  7910.000000   1524532   1524958   1525474   1525951   1526256  
  7900.000000   1526302   1526053   1525533   1524819   1524021  
  7890.000000   1523278   1522724   1522481   1522632   1523199  
  7880.000000   1524138   1525327   1526594   1527742   1528596  
  7870.000000   1529033   1529016   1528593   1527886   1527064  
  7860.000000   1526311   1525791   1525624   1525872   1526515  
  7850.000000   1527465   1528563   1529614   1530418   1530825  
  7840.000000   1530764   1530270   1529473   1528556   1527707  
  7830.000000   1527062   1526673   1526515   1526502   1526542  
  7820.000000   1526567   1526554   1526512   1526463   1526407  
  7810.000000   1526311   1526117   1525766   1525233   1524545  
  7800.000000   1523787   1523081   1522552   1522298   1522360  
  7790.000000   1522719   1523295   1523968   1524595   1525043  
  7780.000000   1525202   1525019   1524504   1523742   1522875  
  7770.000000   1522075   1521496   1521231   1521278   1521544  
  7760.000000   1521862   1522050   1521959   1521516   1520741  
  7750.000000   1519725   1518597   1517480   1516459   1515567  
  7740.000000   1514796   1514116   1513501   1512943   1512459  
  7730.000000   1512088   1511865   1511826   1511971   1512275  
  7720.000000   1512671   1513073   1513388   1513535   1513475  
  7710.000000   1513211   1512791   1512284   1511756   1511243  
  7700.000000   1510746   1510227   1509645   1508973   1508223  
  7690.000000   1507442   1506696   1506042   1505501   1505059  
  7680.000000   1504679   1504333   1504029   1503821   1503789  
  7670.000000   1504000   1504479   1505173   1505970   1506725  
  7660.000000   1507311   1507653   1507760   1507694   1507554  
  7650.000000   1507418   1507331   1507286   1507247   1507172  
  7640.000000   1507035   1506845   1506635   1506458   1506360  
  7630.000000   1506379   1506529   1506803   1507166   1507567  
  7620.000000   1507937   1508207   1508327   1508280   1508102  
  7610.000000   1507871   1507686   1507627   1507726   1507941  
  7600.000000   1508180   1508328   1508306   1508094   1507753  
  7590.000000   1507392   1507131   1507050   1507158   1507402  
  7580.000000   1507692   1507958   1508178   1508397   1508704  
  7570.000000   1509189   1509899   1510809   1511822   1512792  
  7560.000000   1513585   1514097   1514302   1514228   1513964  
  7550.000000   1513611   1513275   1513038   1512960   1513075  
  7540.000000   1513399   1513935   1514672   1515579   1516608  
  7530.000000   1517687   1518737   1519671   1520430   1520973  
  7520.000000   1521319   1521522   1521696   1521965   1522461  
  7510.000000   1523271   1524428   1525898   1527598   1529415  
  7500.000000   1531240   1532987   1534617   1536116   1537500  
  7490.000000   1538782   1539981   1541104   1542175   1543224  
  7480.000000   1544299   1545449   1546714   1548102   1549590  
  7470.000000   1551124   1552635   1554064   1555378   1556574  
  7460.000000   1557685   1558759   1559849   1560995   1562224  
  7450.000000   1563539   1564927   1566363   1567820   1569270  
  7440.000000   1570708   1572139   1573595   1575114   1576738  
  7430.000000   1578483   1580343   1582277   1584233   1586158  
  7420.000000   1588022   1589831   1591620   1593438   1595330  
  7410.000000   1597314   1599384   1601503   1603627   1605700  
  7400.000000   1607680   1609527   1611216   1612739   1614112  
  7390.000000   1615390   1616663   1618043   1619629   1621481  
  7380.000000   1623581   1625838   1628100   1630214   1632071  
  7370.000000   1633646   1634997   1636235   1637484   1638826  
  7360.000000   1640288   1641834   1643407   1644957   1646471  
  7350.000000   1647974   1649513   1651122   1652809   1654544  
  7340.000000   1656283   1657986   1659649   1661298   1662982  
  7330.000000   1664748   1666623   1668606   1670671   1672786  
  7320.000000   1674921   1677052   1679151   1681186   1683109  
  7310.000000   1684870   1686437   1687813   1689043   1690199  
  7300.000000   1691355   1692560   1693813   1695079   1696302  
  7290.000000   1697446   1698510   1699537   1700592   1701738  
  7280.000000   1703001   1704369   1705797   1707236   1708656  
  7270.000000   1710057   1711469   1712920   1714426   1715960  
  7260.000000   1717477   1718908   1720215   1721384   1722459  
  7250.000000   1723502   1724605   1725839   1727260   1728890  
  7240.000000   1730734   1732767   1734963   1737267   1739632  
  7230.000000   1741997   1744325   1746591   1748821   1751054  
  7220.000000   1753366   1755805   1758415   1761179   1764064  
  7210.000000   1766997   1769929   1772816   1775659   1778477  
  7200.000000   1781317   1784215   1787205   1790301   1793513  
  7190.000000   1796840   1800289   1803855   1807534   1811297  
  7180.000000   1815105   1818894   1822599   1826153   1829516  
  7170.000000   1832667   1835639   1838491   1841327   1844239  
  7160.000000   1847315   1850581   1854026   1857582   1861179  
  7150.000000   1864755   1868304   1871870   1875558   1879475  
  7140.000000   1883713   1888289   1893163   1898221   1903357  
  7130.000000   1908466   1913516   1918500   1923472   1928460  
  7120.000000   1933498   1938565   1943646   1948707   1953753  
  7110.000000   1958804   1963913   1969127   1974484   1979990  
  7100.000000   1985631   1991372   1997179   2003013   2008844  
  7090.000000   2014636   2020359   2025987   2031516   2036968  
  7080.000000   2042394   2047850   2053382   2058997   2064655  
  7070.000000   2070286   2075813   2081189   2086413   2091531  
  7060.000000   2096605   2101682   2106770   2111833   2116813  
  7050.000000   2121663   2126377   2130997   2135600   2140267  
  7040.000000   2145043   2149932   2154892   2159866   2164806  
  7030.000000   2169691   2174525   2179325   2184091   2188808  
  7020.000000   2193442   2197969   2202386   2206730   2211056  
  7010.000000   2215426   2219866   2224369   2228877   2233335  
  7000.000000   2237687   2241929   2246073   2250166   2254224  
  6990.000000   2258244   2262172   2265941   2269480   2272759  
  6980.000000   2275781   2278600   2281281   2283901   2286509  
  6970.000000   2289152   2291839   2294584   2297373   2300189  
  6960.000000   2302986   2305719   2308326   2310772   2313040  
  6950.000000   2315158   2317175   2319153   2321142   2323169  
  6940.000000   2325230   2327307   2329368   2331396   2333374  
  6930.000000   2335306   2337186   2339021   2340811   2342569  
  6920.000000   2344309   2346052   2347806   2349560   2351275  
  6910.000000   2352897   2354367   2355656   2356769   2357757  
  6900.000000   2358692   2359652   2360687   2361812   2363002  
  6890.000000   2364221   2365429   2366605   2367738   2368830  
  6880.000000   2369874   2370864   2371788   2372652   2373484  
  6870.000000   2374338   2375278   2376352   2377572   2378904  
  6860.000000   2380275   2381599   2382804   2383854   2384758  
  6850.000000   2385560   2386314   2387068   2387853   2388677  
  6840.000000   2389528   2390391   2391243   2392069   2392852  
  6830.000000   2393596   2394310   2395029   2395794   2396646  
  6820.000000   2397601   2398636   2399679   2400629   2401385  
  6810.000000   2401888   2402136   2402195   2402173   2402187  
  6800.000000   2402317   2402591   2402973   2403400   2403798  
  6790.000000   2404119   2404342   2404477   2404539   2404545  
  6780.000000   2404504   2404428   2404339   2404278   2404297  
  6770.000000   2404443   2404738   2405168   2405683   2406215  
  6760.000000   2406702   2407104   2407416   2407656   2407856  
  6750.000000   2408040   2408221   2408398   2408572   2408749  
  6740.000000   2408951   2409207   2409546   2409988   2410533  
  6730.000000   2411167   2411862   2412586   2413308   2414000  
  6720.000000   2414642   2415221   2415737   2416203   2416641  
  6710.000000   2417080   2417540   2418028   2418529   2419013  
  6700.000000   2419442   2419787   2420029   2420171   2420222  
  6690.000000   2420204   2420125   2420007   2419863   2419722  
  6680.000000   2419613   2419565   2419582   2419643   2419690  
  6670.000000   2419657   2419477   2419122   2418600   2417965  
  6660.000000   2417279   2416604   2415961   2415348   2414733  
  6650.000000   2414096   2413427   2412749   2412084   2411451  
  6640.000000   2410836   2410203   2409494   2408669   2407711  
  6630.000000   2406644   2405513   2404366   2403229   2402104  
  6620.000000   2400970   2399810   2398623   2397439   2396295  
  6610.000000   2395232   2394255   2393336   2392419   2391445  
  6600.000000   2390373   2389199   2387945   2386648   2385333  
  6590.000000   2384006   2382655   2381274   2379867   2378468  
  6580.000000   2377118   2375853   2374673   2373542   2372393  
  6570.000000   2371160   2369800   2368322   2366773   2365220  
  6560.000000   2363718   2362280   2360882   2359468   2357992  
  6550.000000   2356435   2354821   2353206   2351657   2350223  
  6540.000000   2348922   2347741   2346648   2345609   2344604  
  6530.000000   2343621   2342650   2341670   2340649   2339546  
  6520.000000   2338330   2336988   2335539   2334024   2332493  
  6510.000000   2330992   2329547   2328168   2326848   2325578  
  6500.000000   2324348   2323156   2321993   2320850   2319704  
  6490.000000   2318532   2317310   2316025   2314675   2313268  
  6480.000000   2311817   2310330   2308809   2307259   2305685  
  6470.000000   2304107   2302548   2301041   2299607   2298256  
  6460.000000   2296977   2295744   2294522   2293275   2291978  
  6450.000000   2290611   2289174   2287671   2286119   2284542  
  6440.000000   2282973   2281442   2279984   2278616   2277352  
  6430.000000   2276187   2275118   2274132   2273226   2272390  
  6420.000000   2271622   2270900   2270208   2269515   2268811  
  6410.000000   2268091   2267380   2266709   2266120   2265636  
  6400.000000   2265270   2265006   2264825   2264704   2264637  
  6390.000000   2264622   2264664   2264751   2264861   2264946  
  6380.000000   2264964   2264879   2264691   2264426   2264132  
  6370.000000   2263860   2263643   2263487   2263372   2263275  
  6360.000000   2263173   2263065   2262954   2262846   2262726  
  6350.000000   2262560   2262293   2261878   2261289   2260541  
  6340.000000   2259683   2258787   2257916   2257113   2256383  
  6330.000000   2255712   2255064   2254421   2253774   2253137  
  6320.000000   2252520   2251935   2251367   2250792   2250173  
  6310.000000   2249482   2248702   2247838   2246904   2245924  
  6300.000000   2244913   2243885   2242841   2241785   2240712  
  6290.000000   2239626   2238520   2237396   2236245   2235067  
  6280.000000   2233859   2232626   2231367   2230085   2228775  
  6270.000000   2227430   2226041   2224607   2223135   2221646  
  6260.000000   2220161   2218703   2217281   2215892   2214521  
  6250.000000   2213149   2211762   2210360   2208949   2207542  
  6240.000000   2206149   2204770   2203395   2202011   2200606  
  6230.000000   2199172   2197714   2196241   2194769   2193314  
  6220.000000   2191890   2190513   2189194   2187944   2186767  
  6210.000000   2185651   2184579   2183518   2182442   2181326  
  6200.000000   2180166   2178971   2177767   2176578   2175427  
  6190.000000   2174323   2173271   2172270   2171324   2170443  
  6180.000000   2169636   2168909   2168254   2167647   2167057  
  6170.000000   2166449   2165795   2165084   2164317   2163501  
  6160.000000   2162643   2161744   2160798   2159794   2158732  
  6150.000000   2157620   2156480   2155346   2154247   2153207  
  6140.000000   2152232   2151315   2150437   2149576   2148711  
  6130.000000   2147830   2146934   2146025   2145119   2144224  
  6120.000000   2143351   2142501   2141672   2140855   2140044  
  6110.000000   2139236   2138446   2137695   2137016   2136441  
  6100.000000   2135994   2135677   2135478   2135362   2135295  
  6090.000000   2135236   2135159   2135044   2134887   2134683  
  6080.000000   2134442   2134169   2133891   2133631   2133432  
  6070.000000   2133321   2133330   2133454   2133684   2133976  
  6060.000000   2134301   2134624   2134948   2135280   2135668  
  6050.000000   2136146   2136764   2137540   2138499   2139631  
  6040.000000   2140940   2142406   2144028   2145782   2147665  
  6030.000000   2149651   2151738   2153906   2156160   2158487  
  6020.000000   2160891   2163355   2165876   2168432   2171022  
  6010.000000   2173629   2176265   2178920   2181604   2184302  
  6000.000000   2187017   2189735   2192478   2195262   2198141  
  5990.000000   2201158   2204365   2207776   2211399   2215202  
  5980.000000   2219161   2223243   2227447   2231768   2236228  
  5970.000000   2240821   2245542   2250344   2255191   2260026  
  5960.000000   2264833   2269594   2274337   2279079   2283858  
  5950.000000   2288686   2293579   2298542   2303587   2308732  
  5940.000000   2313996   2319394   2324923   2330562   2336267  
  5930.000000   2341990   2347673   2353276   2358758   2364095  
  5920.000000   2369256   2374217   2378948   2383435   2387671  
  5910.000000   2391674   2395463   2399077   2402532   2405857  
  5900.000000   2409055   2412157   2415178   2418175   2421182  
  5890.000000   2424256   2427404   2430629   2433883   2437121  
  5880.000000   2440277   2443305   2446164   2448835   2451301  
  5870.000000   2453556   2455599   2457444   2459123   2460688  
  5860.000000   2462202   2463731   2465324   2467011   2468799  
  5850.000000   2470684   2472656   2474716   2476868   2479120  
  5840.000000   2481473   2483914   2486421   2488963   2491522  
  5830.000000   2494080   2496641   2499204   2501776   2504345  
  5820.000000   2506902   2509431   2511931   2514407   2516877  
  5810.000000   2519356   2521847   2524346   2526825   2529276  
  5800.000000   2531683   2534083   2536494   2538974   2541518  
  5790.000000   2544127   2546713   2549190   2551407   2553245  
  5780.000000   2554562   2555273   2555298   2554623   2553252  
  5770.000000   2551265   2548760   2545898   2542825   2539708  
  5760.000000   2536646   2533729   2530969   2528387   2525965  
  5750.000000   2523715   2521636   2519743   2518021   2516446  
  5740.000000   2514966   2513522   2512070   2510579   2509056  
  5730.000000   2507513   2505980   2504464   2502968   2501473  
  5720.000000   2499971   2498454   2496939   2495446   2494006  
  5710.000000   2492634   2491339   2490113   2488942   2487814  
  5700.000000   2486720   2485654   2484609   2483575   2482532  
  5690.000000   2481471   2480377   2479266   2478147   2477054  
  5680.000000   2475992   2474969   2473953   2472903   2471753  
  5670.000000   2470441   2468901   2467086   2464959   2462513  
  5660.000000   2459764   2456763   2453581   2450318   2447062  
  5650.000000   2443897   2440865   2437985   2435240   2432603  
  5640.000000   2430048   2427560   2425140   2422792   2420531  
  5630.000000   2418355   2416271   2414274   2412375   2410576  
  5620.000000   2408896   2407332   2405886   2404534   2403260  
  5610.000000   2402037   2400865   2399741   2398685   2397702  
  5600.000000   2396795   2395941   2395116   2394290   2393455  
  5590.000000   2392616   2391800   2391041   2390365   2389779  
  5580.000000   2389273   2388821   2388391   2387955   2387494  
  5570.000000   2386991   2386432   2385804   2385090   2384285  
  5560.000000   2383390   2382426   2381416   2380387   2379355  
  5550.000000   2378324   2377284   2376226   2375147   2374060  
  5540.000000   2372984   2371947   2370959   2370023   2369122  
  5530.000000   2368234   2367339   2366429   2365505   2364576  
  5520.000000   2363648   2362725   2361799   2360866   2359922  
  5510.000000   2358970   2358014   2357055   2356080   2355070  
  5500.000000   2353995   2352835   2351584   2350261   2348895  
  5490.000000   2347525   2346169   2344829   2343482   2342102  
  5480.000000   2340661   2339153   2337582   2335970   2334333  
  5470.000000   2332686   2331033   2329376   2327715   2326061  
  5460.000000   2324424   2322811   2321217   2319623   2318000  
  5450.000000   2316326   2314592   2312814   2311027   2309272  
  5440.000000   2307586   2305982   2304463   2303010   2301614  
  5430.000000   2300261   2298954   2297688   2296464   2295265  
  5420.000000   2294088   2292924   2291797   2290734   2289787  
  5410.000000   2288980   2288336   2287826   2287424   2287082  
  5400.000000   2286787   2286529   2286343   2286249   2286289  
  5390.000000   2286465   2286789   2287242   2287839   2288581  
  5380.000000   2289507   2290627   2291962   2293479   2295157  
  5370.000000   2296928   2298774   2300656   2302609   2304638  
  5360.000000   2306813   2309149   2311720   2314529   2317651  
  5350.000000   2321091   2324924   2329138   2333787   2338821  
  5340.000000   2344269   2350071   2356277   2362855   2369887  
  5330.000000   2377348   2385311   2393723   2402634   2411979  
  5320.000000   2421834   2432169   2443104   2454633   2466882  
  5310.000000   2479817   2493521   2507921   2523075   2538909  
  5300.000000   2555500   2572803   2590926   2609846   2629669  
  5290.000000   2650346   2671918   2694260   2717319   2740913  
  5280.000000   2764977   2789393   2814205   2839426   2865190  
  5270.000000   2891542   2918524   2946038   2973936   3002004  
  5260.000000   3030061   3057997   3085785   3113479   3141119  
  5250.000000   3168729   3196209   3223439   3250189   3276338  
  5240.000000   3301740   3326443   3350461   3373956   3396963  
  5230.000000   3419590   3441756   3463446   3484481   3504817  
  5220.000000   3524312   3543022   3560922   3578169   3594797  
  5210.000000   3610958   3626619   3641823   3656424   3670395  
  5200.000000   3683584   3696035   3707699   3718712   3729080  
  5190.000000   3738926   3748202   3756955   3765085   3772626  
  5180.000000   3779506   3785805   3791491   3796653   3801241  
  5170.000000   3805312   3808802   3811771   3814191   3816158  
  5160.000000   3817665   3818795   3819505   3819824   3819678  
  5150.000000   3819094   3818031   3816558   3814680   3812476  
  5140.000000   3809944   3807140   3804046   3800714   3797144  
  5130.000000   3793399   3789490   3785460   3781295   3777005  
  5120.000000   3772562   3767985   3763282   3758503   3753681  
  5110.000000   3748858   3744042   3739236   3734421   3729593  
  5100.000000   3724756   3719936   3715162   3710467   3705864  
  5090.000000   3701359   3696937   3692589   3688296   3684056  
  5080.000000   3679853   3675677   3671495   3667281   3662996  
  5070.000000   3658621   3654140   3649566   3644898   3640150  
  5060.000000   3635303   3630347   3625245   3619988   3614558  
  5050.000000   3608976   3603253   3597423   3591495   3585485  
  5040.000000   3579382   3573193   3566909   3560546   3554113  
  5030.000000   3547632   3541110   3534559   3527976   3521365  
  5020.000000   3514725   3508070   3501416   3494782   3488188  
  5010.000000   3481649   3475181   3468790   3462493   3456298  
  5000.000000   3450227   3444287   3438502   3432870   3427411  
  4990.000000   3422114   3416995   3412034   3407248   3402614  
  4980.000000   3398155   3393857   3389760   3385868   3382241  
  4970.000000   3378888   3375861   3373143   3370757   3368653  
  4960.000000   3366838   3365261   3363947   3362868   3362079  
  4950.000000   3361568   3361394   3361538   3362053   3362914  
  4940.000000   3364177   3365820   3367902   3370395   3373338  
  4930.000000   3376677   3380433   3384543   3389033   3393863  
  4920.000000   3399088   3404690   3410729   3417183   3424088  
  4910.000000   3431404   3439145   3447263   3455760   3464590  
  4900.000000   3473737   3483151   3492797   3502627   3512598  
  4890.000000   3522674   3532804   3542951   3553034   3562993  
  4880.000000   3572708   3582106   3591053   3599493   3607308  
  4870.000000   3614470   3620879   3626532   3631348   3635354  
  4860.000000   3638501   3640861   3642423   3643288   3643463  
  4850.000000   3643056   3642074   3640619   3638705   3636435  
  4840.000000   3633839   3631020   3628018   3624925   3621776  
  4830.000000   3618644   3615556   3612560   3609670   3606909  
  4820.000000   3604278   3601782   3599426   3597212   3595161  
  4810.000000   3593277   3591588   3590086   3588784   3587655  
  4800.000000   3586702   3585899   3585262   3584787   3584505  
  4790.000000   3584416   3584540   3584850   3585339   3585961  
  4780.000000   3586699   3587517   3588416   3589378   3590413  
  4770.000000   3591507   3592661   3593857   3595093   3596357  
  4760.000000   3597656   3598988   3600360   3601766   3603203  
  4750.000000   3604661   3606136   3607624   3609132   3610663  
  4740.000000   3612225   3613811   3615415   3617021   3618620  
  4730.000000   3620203   3621780   3623353   3624945   3626555  
  4720.000000   3628198   3629864   3631565   3633299   3635095  
  4710.000000   3636970   3638972   3641121   3643462   3646000  
  4700.000000   3648766   3651760   3655004   3658500   3662272  
  4690.000000   3666316   3670643   3675230   3680068   3685111  
  4680.000000   3690328   3695655   3701048   3706431   3711762  
  4670.000000   3716977   3722059   3726989   3731799   3736520  
  4660.000000   3741224   3745968   3750824   3755841   3761060  
  4650.000000   3766501   3772168   3778051   3784122   3790348  
  4640.000000   3796682   3803085   3809508   3815920   3822279  
  4630.000000   3828560   3834719   3840725   3846525   3852086  
  4620.000000   3857350   3862296   3866881   3871104   3874944  
  4610.000000   3878425   3881539   3884335   3886820   3889058  
  4600.000000   3891065   3892905   3894585   3896152   3897590  
  4590.000000   3898919   3900104   3901145   3901998   3902660  
  4580.000000   3903095   3903309   3903287   3903059   3902636  
  4570.000000   3902067   3901376   3900609   3899779   3898908  
  4560.000000   3897987   3897021   3895988   3894894   3893727  
  4550.000000   3892501   3891214   3889886   3888519   3887128  
  4540.000000   3885715   3884294   3882866   3881438   3880001  
  4530.000000   3878548   3877057   3875507   3873877   3872146  
  4520.000000   3870318   3868392   3866401   3864362   3862328  
  4510.000000   3860321   3858408   3856610   3855010   3853633  
  4500.000000   3852579   3851874   3851622   3851839   3852617  
  4490.000000   3853950   3855916   3858487   3861734   3865617  
  4480.000000   3870204   3875453   3881434   3888102   3895521  
  4470.000000   3903635   3912485   3921991   3932162   3942897  
  4460.000000   3954188   3965931   3978120   3990664   4003558  
  4450.000000   4016721   4030138   4043739   4057507   4071398  
  4440.000000   4085407   4099515   4113716   4127996   4142313  
  4430.000000   4156625   4170846   4184911   4198716   4212209  
  4420.000000   4225302   4237982   4250191   4261944   4273197  
  4410.000000   4283964   4294195   4303889   4312990   4321512  
  4400.000000   4329430   4336808   4343686   4350190   4356412  
  4390.000000   4362508   4368574   4374740   4381056   4387587  
  4380.000000   4394317   4401248   4408323   4415517   4422773  
  4370.000000   4430076   4437386   4444695   4451961   4459158  
  4360.000000   4466221   4473118   4479774   4486188   4492295  
  4350.000000   4498135   4503646   4508890   4513801   4518464  
  4340.000000   4522827   4526975   4530816   4534300   4537137  
  4330.000000   4538995   4539345   4537711   4533651   4527009  
  4320.000000   4517902   4506827   4494503   4481814   4469567  
  4310.000000   4458422   4448746   4440666   4434075   4428764  
  4300.000000   4424486   4421030   4418257   4416059   4414406  
  4290.000000   4413228   4412535   4412279   4412506   4413207  
  4280.000000   4414445   4416211   4418500   4421242   4424336  
  4270.000000   4427665   4431085   4434461   4437613   4440341  
  4260.000000   4442369   4443407   4443147   4441372   4437975  
  4250.000000   4433055   4426860   4419811   4412351   4404949  
  4240.000000   4397924   4391509   4385731   4380551   4375804  
  4230.000000   4371345   4367010   4362695   4358331   4353887  
  4220.000000   4349384   4344843   4340348   4335955   4331787  
  4210.000000   4327910   4324431   4321374   4318784   4316619  
  4200.000000   4314858   4313425   4312286   4311373   4310680  
  4190.000000   4310165   4309845   4309686   4309712   4309884  
  4180.000000   4310228   4310708   4311360   4312163   4313169  
  4170.000000   4314371   4315833   4317558   4319612   4321997  
  4160.000000   4324772   4327928   4331509   4335488   4339893  
  4150.000000   4344683   4349873   4355410   4361307   4367505  
  4140.000000   4374023   4380805   4387880   4395200   4402808  
  4130.000000   4410665   4418825   4427266   4436052   4445178  
  4120.000000   4454718   4464679   4475137   4486101   4497637  
  4110.000000   4509742   4522453   4535732   4549564   4563863  
  4100.000000   4578563   4593551   4608752   4624073   4639473  
  4090.000000   4654914   4670382   4685870   4701361   4716850  
  4080.000000   4732304   4747722   4763056   4778304   4793384  
  4070.000000   4808258   4822790   4836908   4850457   4863395  
  4060.000000   4875616   4887151   4897952   4908093   4917539  
  4050.000000   4926368   4934545   4942157   4949170   4955667  
  4040.000000   4961599   4967019   4971850   4976142   4979842  
  4030.000000   4983044   4985746   4988064   4989999   4991622  
  4020.000000   4992878   4993808   4994401   4994715   4994724  
  4010.000000   4994519   4994145   4993563   4992552   4991089  
  4000.000000   4989391  
##END= 
