##TITLE= Sample 004 By ssteindl date Montag, November 26 2018
##JCAMP-DX= 4.24
##DATA TYPE= INFRARED SPECTRUM
##ORIGIN= Exported PE Spectrum Data File
##OWNER= Sandra Steindl
##DATE= 18/11/26
##TIME= 12:54:09.00
##SPECTROMETER/DATA SYSTEM= PERKIN-ELMER Frontier FT-IR/NIR IR
##INSTRUMENT PARAMETERS=
  APODIZATION=stark
  DETECTOR=INGAAS
##RESOLUTION= 16.000000
##DELTAX= -2.000000
##XUNITS= 1/CM
##YUNITS= A
##XFACTOR= 1.00
##YFACTOR= 0.00000011920928955078
##FIRSTX= 10000.00
##LASTX= 4000.00
##NPOINTS= 3001
##FIRSTY= 0.213750
##MAXY= 0.625877
##MINY= 0.185704
##XYDATA= (X++(Y..Y))
 10000.000000   1793068   1796591   1800646   1805529   1810321  
  9990.000000   1813643   1814754   1813856   1811520   1808523  
  9980.000000   1805677   1803611   1802406   1801749   1801221  
  9970.000000   1800590   1799785   1798908   1797948   1796763  
  9960.000000   1794977   1792332   1788797   1784854   1781300  
  9950.000000   1779027   1778577   1779860   1782127   1784154  
  9940.000000   1784727   1782967   1778667   1772178   1764261  
  9930.000000   1755689   1747138   1739100   1732081   1726666  
  9920.000000   1723501   1723077   1725457   1730109   1735994  
  9910.000000   1741835   1746603   1749766   1751512   1752442  
  9900.000000   1753338   1754647   1756398   1758187   1759553  
  9890.000000   1760333   1760840   1761853   1764145   1768198  
  9880.000000   1773745   1779957   1785580   1789493   1791019  
  9870.000000   1790073   1787112   1782738   1777510   1771637  
  9860.000000   1765109   1757823   1749871   1741710   1734096  
  9850.000000   1727981   1724140   1723107   1724936   1729391  
  9840.000000   1735876   1743646   1751796   1759365   1765458  
  9830.000000   1769313   1770576   1769257   1765913   1761336  
  9820.000000   1756481   1752039   1748360   1745356   1742663  
  9810.000000   1739918   1736957   1734014   1731609   1730411  
  9800.000000   1730909   1733221   1736973   1741387   1745512  
  9790.000000   1748491   1749844   1749592   1748254   1746701  
  9780.000000   1745863   1746489   1748885   1752831   1757651  
  9770.000000   1762359   1765998   1767805   1767406   1764802  
  9760.000000   1760287   1754370   1747643   1740813   1734642  
  9750.000000   1729979   1727587   1728013   1731277   1736810  
  9740.000000   1743408   1749559   1753808   1755217   1753634  
  9730.000000   1749676   1744494   1739294   1734995   1731957  
  9720.000000   1730084   1728996   1728351   1727990   1727924  
  9710.000000   1728212   1728700   1729036   1728676   1727229  
  9700.000000   1724661   1721463   1718517   1716767   1716805  
  9690.000000   1718569   1721311   1723877   1725141   1724431  
  9680.000000   1721751   1717688   1713144   1708918   1705485  
  9670.000000   1702841   1700685   1698570   1696193   1693464  
  9660.000000   1690553   1687792   1685537   1684123   1683763  
  9650.000000   1684616   1686716   1689986   1694182   1698863  
  9640.000000   1703484   1707437   1710270   1711708   1711762  
  9630.000000   1710593   1708472   1705646   1702339   1698797  
  9620.000000   1695316   1692320   1690242   1689488   1690204  
  9610.000000   1692260   1695159   1698222   1700701   1702006  
  9600.000000   1701819   1700122   1697192   1693457   1689461  
  9590.000000   1685705   1682637   1680535   1679489   1679360  
  9580.000000   1679821   1680460   1680902   1680977   1680738  
  9570.000000   1680482   1680553   1681217   1682504   1684174  
  9560.000000   1685858   1687178   1687984   1688320   1688404  
  9550.000000   1688391   1688247   1687704   1686384   1684046  
  9540.000000   1680779   1677116   1673879   1671951   1671900  
  9530.000000   1673802   1677121   1680960   1684290   1686334  
  9520.000000   1686737   1685604   1683389   1680633   1677824  
  9510.000000   1675227   1672936   1670885   1668949   1666977  
  9500.000000   1664829   1662440   1659867   1657372   1655387  
  9490.000000   1654454   1654984   1657089   1660408   1664160  
  9480.000000   1667367   1669148   1669106   1667398   1664787  
  9470.000000   1662232   1660587   1660166   1660669   1661326  
  9460.000000   1661282   1660052   1657751   1655146   1653313  
  9450.000000   1653283   1655590   1660106   1666050   1672226  
  9440.000000   1677391   1680547   1681191   1679334   1675433  
  9430.000000   1670262   1664706   1659709   1656043   1654298  
  9420.000000   1654656   1656910   1660406   1664225   1667341  
  9410.000000   1668874   1668259   1665324   1660311   1653721  
  9400.000000   1646258   1638603   1631416   1625221   1620447  
  9390.000000   1617400   1616216   1616867   1619054   1622335  
  9380.000000   1626118   1629861   1633147   1635758   1637696  
  9370.000000   1639030   1639880   1640221   1639987   1639005  
  9360.000000   1637181   1634510   1631188   1627587   1624183  
  9350.000000   1621481   1619809   1619314   1619846   1621096  
  9340.000000   1622640   1624097   1625202   1625840   1626013  
  9330.000000   1625765   1625124   1624063   1622552   1620583  
  9320.000000   1618308   1616012   1614149   1613121   1613155  
  9310.000000   1614128   1615566   1616799   1617164   1616288  
  9300.000000   1614236   1611597   1609306   1608361   1609430  
  9290.000000   1612622   1617417   1622834   1627721   1631057  
  9280.000000   1632240   1631200   1628377   1624514   1620395  
  9270.000000   1616639   1613598   1611355   1609811   1608764  
  9260.000000   1608020   1607439   1606941   1606492   1606025  
  9250.000000   1605470   1604723   1603765   1602677   1601666  
  9240.000000   1601026   1601056   1601972   1603806   1606351  
  9230.000000   1609146   1611598   1613117   1613337   1612148  
  9220.000000   1609753   1606536   1602990   1599567   1596597  
  9210.000000   1594263   1592633   1591748   1591655   1592426  
  9200.000000   1594077   1596517   1599479   1602572   1605328  
  9190.000000   1607330   1608309   1608244   1607376   1606125  
  9180.000000   1604950   1604226   1604128   1604626   1605470  
  9170.000000   1606284   1606677   1606350   1605190   1603236  
  9160.000000   1600654   1597637   1594360   1590939   1587451  
  9150.000000   1583994   1580799   1578277   1576967   1577376  
  9140.000000   1579721   1583840   1589099   1594555   1599177  
  9130.000000   1602194   1603392   1603107   1602098   1601164  
  9120.000000   1600848   1601179   1601677   1601612   1600374  
  9110.000000   1597815   1594334   1590781   1588071   1586858  
  9100.000000   1587209   1588599   1590095   1590709   1589778  
  9090.000000   1587160   1583274   1578864   1574746   1571579  
  9080.000000   1569740   1569323   1570197   1572124   1574834  
  9070.000000   1578020   1581309   1584292   1586574   1587875  
  9060.000000   1588084   1587325   1585931   1584306   1582809  
  9050.000000   1581634   1580815   1580266   1579826   1579364  
  9040.000000   1578774   1578004   1576992   1575691   1574085  
  9030.000000   1572218   1570222   1568267   1566535   1565108  
  9020.000000   1563954   1562909   1561795   1560524   1559217  
  9010.000000   1558175   1557795   1558387   1560040   1562511  
  9000.000000   1565293   1567772   1569481   1570239   1570230  
  8990.000000   1569888   1569739   1570174   1571310   1572962  
  8980.000000   1574759   1576298   1577313   1577734   1577689  
  8970.000000   1577396   1577058   1576784   1576555   1576290  
  8960.000000   1575910   1575424   1574950   1574692   1574849  
  8950.000000   1575562   1576799   1578412   1580124   1581664  
  8940.000000   1582816   1583506   1583787   1583799   1583675  
  8930.000000   1583464   1583102   1582431   1581292   1579593  
  8920.000000   1577407   1574941   1572495   1570339   1568602  
  8910.000000   1567258   1566147   1565119   1564130   1563336  
  8900.000000   1563046   1563595   1565168   1567671   1570717  
  8890.000000   1573703   1576030   1577264   1577330   1576463  
  8880.000000   1575128   1573790   1572781   1572208   1572012  
  8870.000000   1572057   1572246   1572581   1573138   1573993  
  8860.000000   1575120   1576370   1577505   1578310   1578694  
  8850.000000   1578721   1578591   1578521   1578673   1579058  
  8840.000000   1579581   1580092   1580518   1580896   1581375  
  8830.000000   1582127   1583241   1584659   1586186   1587594  
  8820.000000   1588735   1589630   1590471   1591527   1593017  
  8810.000000   1594989   1597265   1599511   1601352   1602538  
  8800.000000   1603031   1603021   1602830   1602789   1603108  
  8790.000000   1603824   1604798   1605798   1606582   1606987  
  8780.000000   1606964   1606572   1605943   1605233   1604582  
  8770.000000   1604094   1603818   1603752   1603852   1604049  
  8760.000000   1604302   1604604   1605014   1605635   1606580  
  8750.000000   1607920   1609620   1611534   1613427   1615057  
  8740.000000   1616264   1617035   1617512   1617933   1618540  
  8730.000000   1619460   1620659   1621924   1622957   1623465  
  8720.000000   1623290   1622448   1621140   1619684   1618422  
  8710.000000   1617636   1617491   1618033   1619201   1620875  
  8700.000000   1622904   1625133   1627411   1629591   1631546  
  8690.000000   1633173   1634440   1635365   1636045   1636603  
  8680.000000   1637186   1637904   1638830   1639965   1641277  
  8670.000000   1642703   1644186   1645672   1647110   1648448  
  8660.000000   1649624   1650595   1651355   1651975   1652609  
  8650.000000   1653475   1654799   1656734   1659284   1662260  
  8640.000000   1665312   1668021   1670042   1671204   1671585  
  8630.000000   1671468   1671262   1671344   1671943   1673068  
  8620.000000   1674556   1676168   1677715   1679154   1680582  
  8610.000000   1682198   1684153   1686499   1689103   1691733  
  8600.000000   1694121   1696092   1697627   1698853   1699979  
  8590.000000   1701178   1702512   1703890   1705112   1705957  
  8580.000000   1706290   1706121   1705606   1704999   1704564  
  8570.000000   1704514   1704944   1705851   1707138   1708684  
  8560.000000   1710354   1712048   1713688   1715230   1716649  
  8550.000000   1717940   1719111   1720164   1721097   1721875  
  8540.000000   1722457   1722795   1722874   1722725   1722444  
  8530.000000   1722173   1722065   1722242   1722766   1723622  
  8520.000000   1724734   1725987   1727254   1728435   1729463  
  8510.000000   1730328   1731073   1731795   1732639   1733755  
  8500.000000   1735264   1737195   1739464   1741848   1744054  
  8490.000000   1745782   1746847   1747218   1747048   1746615  
  8480.000000   1746247   1746215   1746664   1747603   1748942  
  8470.000000   1750571   1752397   1754380   1756492   1758713  
  8460.000000   1760981   1763206   1765288   1767151   1768777  
  8450.000000   1770177   1771364   1772303   1772911   1773086  
  8440.000000   1772773   1772043   1771112   1770322   1770015  
  8430.000000   1770428   1771565   1773209   1774954   1776389  
  8420.000000   1777226   1777422   1777158   1776770   1776591  
  8410.000000   1776832   1777507   1778444   1779389   1780092  
  8400.000000   1780423   1780358   1779968   1779342   1778557  
  8390.000000   1777654   1776662   1775647   1774745   1774165  
  8380.000000   1774127   1774800   1776226   1778301   1780782  
  8370.000000   1783353   1785698   1787573   1788858   1789542  
  8360.000000   1789713   1789499   1789045   1788481   1787903  
  8350.000000   1787392   1787000   1786787   1786791   1787055  
  8340.000000   1787566   1788286   1789095   1789839   1790329  
  8330.000000   1790388   1789903   1788852   1787335   1785537  
  8320.000000   1783695   1782036   1780727   1779863   1779448  
  8310.000000   1779440   1779757   1780321   1781034   1781807  
  8300.000000   1782524   1783074   1783359   1783326   1782987  
  8290.000000   1782405   1781681   1780897   1780094   1779249  
  8280.000000   1778306   1777209   1775954   1774610   1773294  
  8270.000000   1772147   1771252   1770621   1770175   1769794  
  8260.000000   1769373   1768880   1768363   1767934   1767703  
  8250.000000   1767719   1767928   1768185   1768303   1768132  
  8240.000000   1767618   1766817   1765871   1764944   1764151  
  8230.000000   1763520   1762975   1762392   1761651   1760695  
  8220.000000   1759557   1758344   1757192   1756221   1755479  
  8210.000000   1754939   1754499   1754039   1753455   1752705  
  8200.000000   1751809   1750849   1749918   1749109   1748456  
  8190.000000   1747949   1747513   1747046   1746430   1745564  
  8180.000000   1744380   1742853   1740996   1738859   1736520  
  8170.000000   1734066   1731602   1729214   1726973   1724907  
  8160.000000   1723011   1721252   1719590   1718014   1716544  
  8150.000000   1715259   1714265   1713668   1713524   1713801  
  8140.000000   1714375   1715034   1715549   1715703   1715370  
  8130.000000   1714508   1713182   1711511   1709645   1707724  
  8120.000000   1705868   1704186   1702760   1701675   1700969  
  8110.000000   1700651   1700642   1700814   1700982   1700961  
  8100.000000   1700606   1699842   1698681   1697190   1695478  
  8090.000000   1693637   1691741   1689838   1687975   1686217  
  8080.000000   1684647   1683359   1682414   1681821   1681503  
  8070.000000   1681323   1681109   1680706   1680026   1679054  
  8060.000000   1677870   1676581   1675319   1674157   1673123  
  8050.000000   1672166   1671206   1670153   1668954   1667622  
  8040.000000   1666244   1664968   1663966   1663390   1663315  
  8030.000000   1663709   1664425   1665218   1665821   1665998  
  8020.000000   1665630   1664730   1663455   1662039   1660727  
  8010.000000   1659705   1659045   1658709   1658569   1658480  
  8000.000000   1658311   1658001   1657538   1656953   1656283  
  7990.000000   1655541   1654720   1653780   1652691   1651421  
  7980.000000   1649976   1648379   1646687   1644987   1643399  
  7970.000000   1642075   1641180   1640860   1641189   1642132  
  7960.000000   1643523   1645087   1646505   1647489   1647883  
  7950.000000   1647682   1647053   1646239   1645503   1645014  
  7940.000000   1644820   1644841   1644930   1644949   1644822  
  7930.000000   1644580   1644321   1644185   1644271   1644614  
  7920.000000   1645154   1645773   1646321   1646669   1646737  
  7910.000000   1646510   1646030   1645381   1644664   1643973  
  7900.000000   1643375   1642897   1642520   1642191   1641843  
  7890.000000   1641422   1640913   1640351   1639809   1639369  
  7880.000000   1639083   1638939   1638864   1638739   1638461  
  7870.000000   1637985   1637363   1636737   1636289   1636179  
  7860.000000   1636473   1637116   1637942   1638732   1639286  
  7850.000000   1639486   1639323   1638881   1638291   1637673  
  7840.000000   1637103   1636599   1636137   1635689   1635241  
  7830.000000   1634809   1634423   1634117   1633900   1633767  
  7820.000000   1633687   1633628   1633558   1633446   1633262  
  7810.000000   1632968   1632526   1631914   1631149   1630291  
  7800.000000   1629439   1628703   1628165   1627844   1627688  
  7790.000000   1627587   1627416   1627078   1626538   1625835  
  7780.000000   1625057   1624311   1623678   1623200   1622874  
  7770.000000   1622670   1622551   1622485   1622447   1622410  
  7760.000000   1622330   1622154   1621822   1621298   1620584  
  7750.000000   1619725   1618804   1617910   1617117   1616456  
  7740.000000   1615914   1615449   1615005   1614542   1614043  
  7730.000000   1613524   1613014   1612548   1612150   1611824  
  7720.000000   1611556   1611313   1611054   1610736   1610331  
  7710.000000   1609821   1609218   1608547   1607849   1607160  
  7700.000000   1606500   1605871   1605259   1604648   1604038  
  7690.000000   1603452   1602936   1602543   1602304   1602211  
  7680.000000   1602209   1602216   1602145   1601946   1601622  
  7670.000000   1601227   1600846   1600552   1600388   1600339  
  7660.000000   1600354   1600352   1600266   1600055   1599711  
  7650.000000   1599256   1598728   1598177   1597653   1597221  
  7640.000000   1596952   1596914   1597152   1597656   1598348  
  7630.000000   1599075   1599649   1599889   1599686   1599034  
  7620.000000   1598044   1596904   1595836   1595029   1594600  
  7610.000000   1594572   1594887   1595436   1596102   1596790  
  7600.000000   1597438   1598019   1598522   1598945   1599286  
  7590.000000   1599546   1599744   1599911   1600099   1600356  
  7580.000000   1600720   1601191   1601731   1602262   1602687  
  7570.000000   1602923   1602924   1602708   1602359   1602004  
  7560.000000   1601784   1601809   1602136   1602745   1603558  
  7550.000000   1604455   1605322   1606079   1606712   1607268  
  7540.000000   1607842   1608539   1609455   1610635   1612075  
  7530.000000   1613701   1615404   1617048   1618518   1619734  
  7520.000000   1620683   1621405   1621996   1622562   1623199  
  7510.000000   1623954   1624823   1625761   1626718   1627666  
  7500.000000   1628620   1629645   1630816   1632193   1633774  
  7490.000000   1635492   1637237   1638884   1640355   1641628  
  7480.000000   1642761   1643841   1644960   1646157   1647429  
  7470.000000   1648730   1650022   1651299   1652612   1654047  
  7460.000000   1655690   1657589   1659725   1662014   1664350  
  7450.000000   1666631   1668809   1670873   1672859   1674787  
  7440.000000   1676666   1678468   1680169   1681766   1683307  
  7430.000000   1684888   1686629   1688625   1690904   1693412  
  7420.000000   1696037   1698646   1701133   1703459   1705647  
  7410.000000   1707761   1709869   1712002   1714154   1716282  
  7400.000000   1718347   1720329   1722243   1724127   1726020  
  7390.000000   1727943   1729886   1731829   1733749   1735661  
  7380.000000   1737606   1739652   1741859   1744256   1746822  
  7370.000000   1749484   1752135   1754664   1756980   1759034  
  7360.000000   1760821   1762385   1763807   1765197   1766672  
  7350.000000   1768339   1770269   1772470   1774869   1777333  
  7340.000000   1779694   1781808   1783597   1785077   1786352  
  7330.000000   1787589   1788952   1790559   1792440   1794545  
  7320.000000   1796760   1798959   1801040   1802958   1804717  
  7310.000000   1806362   1807936   1809474   1810975   1812416  
  7300.000000   1813765   1815003   1816128   1817169   1818167  
  7290.000000   1819168   1820202   1821281   1822396   1823530  
  7280.000000   1824659   1825771   1826859   1827931   1828997  
  7270.000000   1830068   1831151   1832251   1833372   1834521  
  7260.000000   1835711   1836953   1838256   1839609   1840995  
  7250.000000   1842369   1843697   1844946   1846123   1847258  
  7240.000000   1848423   1849683   1851108   1852716   1854503  
  7230.000000   1856421   1858426   1860476   1862569   1864718  
  7220.000000   1866962   1869327   1871830   1874452   1877173  
  7210.000000   1879949   1882765   1885599   1888459   1891336  
  7200.000000   1894235   1897132   1900019   1902883   1905747  
  7190.000000   1908641   1911628   1914756   1918068   1921563  
  7180.000000   1925217   1928967   1932753   1936504   1940182  
  7170.000000   1943754   1947231   1950626   1953993   1957372  
  7160.000000   1960830   1964400   1968124   1972004   1976057  
  7150.000000   1980279   1984697   1989333   1994231   1999398  
  7140.000000   2004825   2010431   2016120   2021760   2027273  
  7130.000000   2032614   2037840   2043036   2048345   2053855  
  7120.000000   2059623   2065600   2071702   2077800   2083809  
  7110.000000   2089687   2095481   2101277   2107205   2113366  
  7100.000000   2119841   2126643   2133748   2141071   2148514  
  7090.000000   2155950   2163276   2170407   2177318   2184037  
  7080.000000   2190660   2197308   2204110   2211141   2218414  
  7070.000000   2225855   2233346   2240750   2247970   2254960  
  7060.000000   2261741   2268375   2274939   2281503   2288118  
  7050.000000   2294817   2301618   2308528   2315535   2322610  
  7040.000000   2329692   2336710   2343597   2350325   2356909  
  7030.000000   2363424   2369953   2376575   2383308   2390117  
  7020.000000   2396904   2403568   2410024   2416251   2422266  
  7010.000000   2428131   2433887   2439560   2445128   2450561  
  7000.000000   2455827   2460934   2465907   2470802   2475650  
  6990.000000   2480470   2485236   2489930   2494523   2499041  
  6980.000000   2503516   2508008   2512537   2517097   2521617  
  6970.000000   2526020   2530213   2534160   2537856   2541359  
  6960.000000   2544722   2548008   2551233   2554409   2557510  
  6950.000000   2560533   2563463   2566309   2569051   2571672  
  6940.000000   2574117   2576348   2578333   2580100   2581704  
  6930.000000   2583250   2584835   2586546   2588406   2590404  
  6920.000000   2592476   2594555   2596562   2598448   2600173  
  6910.000000   2601727   2603107   2604327   2605414   2606410  
  6900.000000   2607361   2608316   2609309   2610359   2611461  
  6890.000000   2612601   2613754   2614902   2616024   2617112  
  6880.000000   2618153   2619141   2620071   2620955   2621814  
  6870.000000   2622681   2623585   2624541   2625540   2626553  
  6860.000000   2627540   2628475   2629349   2630185   2631017  
  6850.000000   2631882   2632794   2633742   2634689   2635598  
  6840.000000   2636433   2637190   2637877   2638522   2639147  
  6830.000000   2639769   2640388   2641006   2641614   2642209  
  6820.000000   2642776   2643290   2643707   2643987   2644101  
  6810.000000   2644062   2643922   2643776   2643718   2643823  
  6800.000000   2644106   2644523   2644979   2645376   2645637  
  6790.000000   2645738   2645699   2645574   2645412   2645243  
  6780.000000   2645069   2644878   2644659   2644421   2644187  
  6770.000000   2643984   2643822   2643684   2643528   2643307  
  6760.000000   2642990   2642584   2642127   2641687   2641324  
  6750.000000   2641076   2640949   2640920   2640953   2641011  
  6740.000000   2641066   2641096   2641076   2640973   2640753  
  6730.000000   2640390   2639880   2639254   2638568   2637895  
  6720.000000   2637297   2636820   2636469   2636232   2636074  
  6710.000000   2635963   2635859   2635722   2635502   2635143  
  6700.000000   2634587   2633802   2632789   2631598   2630313  
  6690.000000   2629041   2627869   2626855   2626001   2625282  
  6680.000000   2624642   2624036   2623426   2622802   2622156  
  6670.000000   2621489   2620786   2620023   2619172   2618208  
  6660.000000   2617118   2615904   2614585   2613192   2611758  
  6650.000000   2610324   2608920   2607577   2606301   2605092  
  6640.000000   2603926   2602776   2601606   2600398   2599138  
  6630.000000   2597827   2596461   2595036   2593535   2591946  
  6620.000000   2590260   2588497   2586697   2584918   2583213  
  6610.000000   2581611   2580100   2578638   2577159   2575607  
  6600.000000   2573953   2572201   2570382   2568535   2566685  
  6590.000000   2564842   2563004   2561169   2559352   2557584  
  6580.000000   2555902   2554332   2552871   2551485   2550114  
  6570.000000   2548704   2547221   2545665   2544073   2542492  
  6560.000000   2540968   2539518   2538135   2536793   2535463  
  6550.000000   2534121   2532759   2531369   2529948   2528487  
  6540.000000   2526981   2525438   2523887   2522374   2520952  
  6530.000000   2519652   2518473   2517368   2516266   2515092  
  6520.000000   2513804   2512399   2510926   2509452   2508042  
  6510.000000   2506732   2505520   2504373   2503255   2502141  
  6500.000000   2501034   2499957   2498938   2497991   2497105  
  6490.000000   2496243   2495355   2494400   2493357   2492229  
  6480.000000   2491043   2489832   2488626   2487446   2486298  
  6470.000000   2485187   2484114   2483084   2482103   2481173  
  6460.000000   2480290   2479437   2478591   2477723   2476804  
  6450.000000   2475817   2474759   2473642   2472497   2471363  
  6440.000000   2470284   2469290   2468393   2467577   2466806  
  6430.000000   2466032   2465215   2464334   2463403   2462457  
  6420.000000   2461550   2460726   2460014   2459412   2458898  
  6410.000000   2458436   2457991   2457534   2457053   2456540  
  6400.000000   2456000   2455437   2454864   2454299   2453764  
  6390.000000   2453282   2452866   2452513   2452207   2451917  
  6380.000000   2451618   2451296   2450954   2450613   2450295  
  6370.000000   2450011   2449750   2449481   2449162   2448761  
  6360.000000   2448268   2447702   2447101   2446512   2445968  
  6350.000000   2445483   2445047   2444637   2444224   2443785  
  6340.000000   2443298   2442752   2442137   2441455   2440711  
  6330.000000   2439934   2439157   2438428   2437778   2437224  
  6320.000000   2436740   2436282   2435780   2435178   2434433  
  6310.000000   2433541   2432513   2431382   2430168   2428887  
  6300.000000   2427535   2426116   2424631   2423103   2421554  
  6290.000000   2420015   2418490   2416981   2415460   2413905  
  6280.000000   2412291   2410619   2408893   2407135   2405359  
  6270.000000   2403574   2401772   2399945   2398078   2396168  
  6260.000000   2394214   2392232   2390234   2388239   2386260  
  6250.000000   2384314   2382408   2380550   2378728   2376927  
  6240.000000   2375114   2373261   2371342   2369354   2367307  
  6230.000000   2365225   2363131   2361038   2358941   2356824  
  6220.000000   2354668   2352469   2350243   2348023   2345848  
  6210.000000   2343747   2341729   2339775   2337850   2335918  
  6200.000000   2333955   2331957   2329942   2327936   2325965  
  6190.000000   2324047   2322190   2320393   2318653   2316963  
  6180.000000   2315317   2313701   2312104   2310510   2308912  
  6170.000000   2307310   2305715   2304141   2302600   2301088  
  6160.000000   2299595   2298098   2296586   2295059   2293536  
  6150.000000   2292047   2290616   2289253   2287942   2286649  
  6140.000000   2285337   2283982   2282585   2281171   2279775  
  6130.000000   2278420   2277109   2275817   2274502   2273126  
  6120.000000   2271671   2270147   2268594   2267062   2265603  
  6110.000000   2264252   2263027   2261928   2260953   2260085  
  6100.000000   2259310   2258600   2257928   2257255   2256558  
  6090.000000   2255820   2255056   2254290   2253568   2252918  
  6080.000000   2252366   2251905   2251525   2251205   2250942  
  6070.000000   2250737   2250610   2250568   2250620   2250745  
  6060.000000   2250926   2251129   2251351   2251586   2251868  
  6050.000000   2252217   2252674   2253247   2253953   2254779  
  6040.000000   2255730   2256795   2257986   2259302   2260759  
  6030.000000   2262353   2264089   2265957   2267957   2270072  
  6020.000000   2272294   2274591   2276938   2279289   2281616  
  6010.000000   2283887   2286103   2288264   2290400   2292525  
  6000.000000   2294664   2296819   2299001   2301210   2303466  
  5990.000000   2305787   2308201   2310725   2313370   2316123  
  5980.000000   2318974   2321894   2324877   2327910   2331002  
  5970.000000   2334149   2337357   2340611   2343909   2347238  
  5960.000000   2350608   2354020   2357495   2361032   2364628  
  5950.000000   2368257   2371896   2375515   2379109   2382682  
  5940.000000   2386263   2389880   2393559   2397309   2401128  
  5930.000000   2405001   2408913   2412851   2416801   2420753  
  5920.000000   2424683   2428560   2432349   2436016   2439540  
  5910.000000   2442920   2446170   2449316   2452385   2455403  
  5900.000000   2458386   2461358   2464331   2467331   2470370  
  5890.000000   2473464   2476598   2479758   2482907   2486015  
  5880.000000   2489051   2492001   2494850   2497590   2500205  
  5870.000000   2502677   2504996   2507163   2509205   2511171  
  5860.000000   2513119   2515103   2517154   2519282   2521475  
  5850.000000   2523720   2526016   2528378   2530835   2533416  
  5840.000000   2536132   2538967   2541882   2544827   2547762  
  5830.000000   2550664   2553538   2556401   2559269   2562146  
  5820.000000   2565015   2567846   2570608   2573285   2575869  
  5810.000000   2578375   2580802   2583163   2585431   2587604  
  5800.000000   2589649   2591587   2593414   2595175   2596871  
  5790.000000   2598520   2600074   2601493   2602675   2603548  
  5780.000000   2604008   2603998   2603459   2602386   2600787  
  5770.000000   2598733   2596311   2593656   2590892   2588155  
  5760.000000   2585531   2583088   2580836   2578775   2576872  
  5750.000000   2575106   2573448   2571882   2570392   2568968  
  5740.000000   2567613   2566334   2565157   2564103   2563197  
  5730.000000   2562433   2561793   2561226   2560687   2560129  
  5720.000000   2559543   2558936   2558352   2557823   2557380  
  5710.000000   2557018   2556721   2556452   2556191   2555926  
  5700.000000   2555669   2555442   2555263   2555146   2555083  
  5690.000000   2555066   2555080   2555120   2555173   2555234  
  5680.000000   2555271   2555250   2555117   2554829   2554348  
  5670.000000   2553666   2552784   2551719   2550474   2549059  
  5660.000000   2547466   2545708   2543805   2541813   2539796  
  5650.000000   2537828   2535958   2534212   2532579   2531030  
  5640.000000   2529529   2528050   2526585   2525138   2523721  
  5630.000000   2522342   2521009   2519719   2518479   2517293  
  5620.000000   2516175   2515129   2514159   2513250   2512384  
  5610.000000   2511536   2510692   2509847   2509004   2508171  
  5600.000000   2507349   2506529   2505702   2504855   2503988  
  5590.000000   2503113   2502250   2501416   2500615   2499838  
  5580.000000   2499059   2498253   2497403   2496511   2495591  
  5570.000000   2494666   2493745   2492832   2491907   2490950  
  5560.000000   2489942   2488878   2487765   2486622   2485463  
  5550.000000   2484303   2483143   2481982   2480817   2479652  
  5540.000000   2478490   2477336   2476187   2475035   2473869  
  5530.000000   2472689   2471502   2470330   2469197   2468121  
  5520.000000   2467105   2466130   2465167   2464186   2463165  
  5510.000000   2462101   2461003   2459884   2458750   2457602  
  5500.000000   2456427   2455219   2453978   2452719   2451459  
  5490.000000   2450212   2448964   2447691   2446348   2444903  
  5480.000000   2443334   2441657   2439900   2438113   2436330  
  5470.000000   2434570   2432826   2431080   2429307   2427492  
  5460.000000   2425622   2423696   2421703   2419634   2417476  
  5450.000000   2415228   2412906   2410546   2408192   2405888  
  5440.000000   2403660   2401516   2399449   2397448   2395512  
  5430.000000   2393640   2391837   2390087   2388368   2386634  
  5420.000000   2384864   2383046   2381229   2379483   2377909  
  5410.000000   2376571   2375502   2374660   2373989   2373407  
  5400.000000   2372883   2372403   2372011   2371737   2371622  
  5390.000000   2371649   2371802   2372029   2372322   2372680  
  5380.000000   2373163   2373811   2374685   2375774   2377071  
  5370.000000   2378506   2380052   2381658   2383346   2385109  
  5360.000000   2387005   2389031   2391242   2393631   2396271  
  5350.000000   2399179   2402457   2406127   2410268   2414845  
  5340.000000   2419885   2425311   2431155   2437368   2444028  
  5330.000000   2451111   2458695   2466729   2475259   2484211  
  5320.000000   2493647   2503528   2513971   2524969   2536660  
  5310.000000   2549015   2562134   2575947   2590530   2605818  
  5300.000000   2621906   2638767   2656528   2675177   2694833  
  5290.000000   2715445   2737052   2759511   2782761   2806599  
  5280.000000   2830963   2855733   2880982   2906750   2933213  
  5270.000000   2960440   2988488   3017233   3046480   3075948  
  5260.000000   3105395   3134675   3163758   3192728   3221662  
  5250.000000   3250618   3279493   3308136   3336247   3363637  
  5240.000000   3390090   3415627   3440245   3464135   3487348  
  5230.000000   3510032   3532112   3553589   3574267   3594105  
  5220.000000   3612945   3630858   3647820   3664023   3679507  
  5210.000000   3694460   3708843   3722712   3735894   3748356  
  5200.000000   3759914   3770606   3780369   3789351   3797559  
  5190.000000   3805143   3812067   3818406   3824076   3829135  
  5180.000000   3833522   3837335   3840544   3843242   3845371  
  5170.000000   3846981   3847999   3848486   3848418   3847906  
  5160.000000   3846959   3845676   3844026   3842041   3839643  
  5150.000000   3836847   3833610   3829998   3826016   3821750  
  5140.000000   3817202   3812421   3807382   3802114   3796602  
  5130.000000   3790897   3785008   3778990   3772844   3766598  
  5120.000000   3760234   3753770   3747203   3740572   3733898  
  5110.000000   3727223   3720558   3713920   3707299   3700694  
  5100.000000   3694096   3687515   3680956   3674436   3667958  
  5090.000000   3661530   3655146   3648810   3642517   3636273  
  5080.000000   3630074   3623914   3617774   3611638   3605479  
  5070.000000   3599289   3593062   3586808   3580533   3574246  
  5060.000000   3567937   3561593   3555187   3548706   3542136  
  5050.000000   3535486   3528766   3522000   3515197   3508371  
  5040.000000   3501519   3494643   3487743   3480826   3473904  
  5030.000000   3466992   3460106   3453257   3446459   3439719  
  5020.000000   3433056   3426479   3420009   3413654   3407430  
  5010.000000   3401330   3395364   3389517   3383803   3378212  
  5000.000000   3372768   3367462   3362320   3357324   3352496  
  4990.000000   3347818   3343321   3338994   3334886   3330992  
  4980.000000   3327364   3323995   3320929   3318152   3315715  
  4970.000000   3313607   3311884   3310532   3309597   3309041  
  4960.000000   3308885   3309068   3309609   3310455   3311645  
  4950.000000   3313150   3315027   3317251   3319873   3322854  
  4940.000000   3326234   3329971   3334108   3338607   3343514  
  4930.000000   3348787   3354457   3360472   3366850   3373539  
  4920.000000   3380564   3387885   3395534   3403478   3411744  
  4910.000000   3420294   3429145   3438261   3447654   3457294  
  4900.000000   3467183   3477287   3487586   3498036   3508602  
  4890.000000   3519243   3529918   3540597   3551229   3561780  
  4880.000000   3572180   3582386   3592314   3601922   3611132  
  4870.000000   3619923   3628232   3636060   3643363   3650165  
  4860.000000   3656441   3662240   3667556   3672452   3676932  
  4850.000000   3681063   3684853   3688372   3691630   3694700  
  4840.000000   3697598   3700386   3703072   3705698   3708253  
  4830.000000   3710754   3713177   3715528   3717782   3719944  
  4820.000000   3722002   3723971   3725859   3727698   3729511  
  4810.000000   3731335   3733192   3735100   3737055   3739047  
  4800.000000   3741051   3743048   3745017   3746953   3748855  
  4790.000000   3750738   3752611   3754492   3756388   3758308  
  4780.000000   3760250   3762213   3764182   3766145   3768076  
  4770.000000   3769956   3771757   3773468   3775076   3776586  
  4760.000000   3777997   3779319   3780544   3781672   3782687  
  4750.000000   3783586   3784362   3785030   3785600   3786104  
  4740.000000   3786553   3786969   3787346   3787683   3787959  
  4730.000000   3788163   3788276   3788294   3788213   3788038  
  4720.000000   3787774   3787430   3787014   3786537   3786017  
  4710.000000   3785472   3784928   3784412   3783953   3783573  
  4700.000000   3783291   3783117   3783055   3783105   3783268  
  4690.000000   3783540   3783929   3784433   3785058   3785790  
  4680.000000   3786620   3787510   3788431   3789333   3790188  
  4670.000000   3790961   3791651   3792257   3792814   3793348  
  4660.000000   3793915   3794552   3795319   3796253   3797398  
  4650.000000   3798776   3800400   3802260   3804336   3806589  
  4640.000000   3808978   3811462   3814005   3816581   3819172  
  4630.000000   3821759   3824321   3826833   3829262   3831576  
  4620.000000   3833736   3835715   3837481   3839019   3840309  
  4610.000000   3841351   3842141   3842707   3843070   3843286  
  4600.000000   3843393   3843453   3843489   3843536   3843578  
  4590.000000   3843611   3843588   3843486   3843253   3842871  
  4580.000000   3842305   3841557   3840618   3839508   3838239  
  4570.000000   3836844   3835343   3833765   3832121   3830427  
  4560.000000   3828680   3826889   3825049   3823170   3821252  
  4550.000000   3819306   3817337   3815349   3813349   3811343  
  4540.000000   3809352   3807392   3805498   3803689   3801992  
  4530.000000   3800404   3798931   3797545   3796251   3795026  
  4520.000000   3793903   3792882   3792031   3791358   3790938  
  4510.000000   3790769   3790923   3791391   3792257   3793518  
  4500.000000   3795275   3797524   3800364   3803773   3807835  
  4490.000000   3812513   3817888   3823924   3830703   3838187  
  4480.000000   3846450   3855439   3865206   3875683   3886907  
  4470.000000   3898801   3911382   3924560   3938321   3952555  
  4460.000000   3967219   3982198   3997446   4012866   4028425  
  4450.000000   4044054   4059728   4075401   4091054   4106664  
  4440.000000   4122212   4137695   4153087   4168390   4183558  
  4430.000000   4198587   4213411   4228024   4242347   4256380  
  4420.000000   4270032   4283300   4296083   4308373   4320062  
  4410.000000   4331145   4341521   4351195   4360087   4368221  
  4400.000000   4375544   4382106   4387895   4392997   4397445  
  4390.000000   4401364   4404829   4407991   4410942   4413821  
  4380.000000   4416701   4419681   4422796   4426102   4429618  
  4370.000000   4433385   4437424   4441768   4446430   4451415  
  4360.000000   4456699   4462246   4467995   4473890   4479846  
  4350.000000   4485820   4491725   4497551   4503238   4508822  
  4340.000000   4514284   4519678   4524951   4530049   4534743  
  4330.000000   4538746   4541631   4543001   4542499   4539991  
  4320.000000   4535558   4529578   4522593   4515277   4508229  
  4310.000000   4501944   4496675   4492511   4489345   4487021  
  4300.000000   4485335   4484133   4483295   4482746   4482443  
  4290.000000   4482337   4482418   4482652   4483059   4483637  
  4280.000000   4484415   4485394   4486563   4487895   4489336  
  4270.000000   4490851   4492377   4493869   4495225   4496319  
  4260.000000   4496944   4496877   4495871   4493757   4490454  
  4250.000000   4486046   4480731   4474837   4468706   4462696  
  4240.000000   4457051   4451952   4447427   4443454   4439913  
  4230.000000   4436686   4433628   4430626   4427585   4424440  
  4220.000000   4421167   4417757   4414255   4410697   4407172  
  4210.000000   4403734   4400474   4397432   4394666   4392186  
  4200.000000   4390013   4388127   4386521   4385151   4384002  
  4190.000000   4383017   4382187   4381457   4380836   4380282  
  4180.000000   4379825   4379440   4379181   4379048   4379132  
  4170.000000   4379467   4380177   4381312   4382994   4385245  
  4160.000000   4388139   4391637   4395757   4400416   4405611  
  4150.000000   4411253   4417357   4423852   4430776   4438081  
  4140.000000   4445826   4453977   4462607   4471682   4481260  
  4130.000000   4491288   4501795   4512713   4524064   4535802  
  4120.000000   4547978   4560584   4573696   4587315   4601490  
  4110.000000   4616185   4631398   4647047   4663093   4679438  
  4100.000000   4696036   4712805   4729714   4746712   4763796  
  4090.000000   4780956   4798210   4815573   4833062   4850697  
  4080.000000   4868472   4886399   4904440   4922584   4940747  
  4070.000000   4958873   4976825   4994525   5011828   5028690  
  4060.000000   5045017   5060833   5076084   5090823   5104984  
  4050.000000   5118615   5131634   5144099   5155934   5167211  
  4040.000000   5177844   5187884   5197211   5205862   5213720  
  4030.000000   5220850   5227176   5232782   5237605   5241699  
  4020.000000   5244957   5247432   5249096   5250041   5250234  
  4010.000000   5249832   5248917   5247512   5245386   5242595  
  4000.000000   5239465  
##END= 
