##TITLE= Sample 013 By ssteindl date Dienstag, November 20 2018
##JCAMP-DX= 4.24
##DATA TYPE= INFRARED SPECTRUM
##ORIGIN= Exported PE Spectrum Data File
##OWNER= Sandra Steindl
##DATE= 18/11/20
##TIME= 10:06:23.00
##SPECTROMETER/DATA SYSTEM= PERKIN-ELMER Frontier FT-IR/NIR IR
##INSTRUMENT PARAMETERS=
  APODIZATION=stark
  DETECTOR=INGAAS
##RESOLUTION= 16.000000
##DELTAX= -2.000000
##XUNITS= 1/CM
##YUNITS= A
##XFACTOR= 1.00
##YFACTOR= 0.00000011920928955078
##FIRSTX= 10000.00
##LASTX= 4000.00
##NPOINTS= 3001
##FIRSTY= 0.192882
##MAXY= 0.678332
##MINY= 0.164727
##XYDATA= (X++(Y..Y))
 10000.000000   1618007   1614427   1609870   1603311   1595341  
  9990.000000   1587529   1581087   1576425   1573637   1572475  
  9980.000000   1572292   1572222   1571735   1570668   1569168  
  9970.000000   1567508   1566014   1564910   1564318   1564292  
  9960.000000   1564945   1566406   1568856   1572310   1576546  
  9950.000000   1580980   1584780   1587077   1587281   1585320  
  9940.000000   1581724   1577465   1573653   1571168   1570403  
  9930.000000   1571196   1572955   1574930   1576436   1577079  
  9920.000000   1576723   1575512   1573682   1571551   1569438  
  9910.000000   1567686   1566653   1566600   1567615   1569431  
  9900.000000   1571430   1572759   1572563   1570374   1566263  
  9890.000000   1560969   1555618   1551434   1549302   1549519  
  9880.000000   1551728   1555022   1558262   1560312   1560356  
  9870.000000   1557983   1553287   1546762   1539251   1531768  
  9860.000000   1525395   1521061   1519390   1520500   1523990  
  9850.000000   1529012   1534523   1539585   1543581   1546329  
  9840.000000   1548002   1548970   1549631   1550268   1551061  
  9830.000000   1552076   1553368   1554948   1556771   1558667  
  9820.000000   1560315   1561318   1561298   1560078   1557730  
  9810.000000   1554584   1551104   1547714   1544713   1542209  
  9800.000000   1540184   1538615   1537457   1536778   1536550  
  9790.000000   1536775   1537336   1538187   1539363   1541036  
  9780.000000   1543434   1546577   1550117   1553143   1554414  
  9770.000000   1552658   1547165   1538165   1526944   1515589  
  9760.000000   1506302   1500770   1499573   1502139   1507022  
  9750.000000   1512491   1517105   1520004   1520946   1520018  
  9740.000000   1517412   1513218   1507610   1500980   1494257  
  9730.000000   1488722   1485786   1486358   1490469   1497129  
  9720.000000   1504634   1511211   1515611   1517559   1517682  
  9710.000000   1517146   1517055   1517989   1519875   1522153  
  9700.000000   1524232   1525787   1526919   1527937   1529030  
  9690.000000   1530010   1530267   1529110   1526119   1521532  
  9680.000000   1516232   1511489   1508435   1507628   1508800  
  9670.000000   1511052   1513225   1514448   1514401   1513384  
  9660.000000   1512028   1510941   1510409   1510310   1510271  
  9650.000000   1509898   1509033   1507753   1506320   1504912  
  9640.000000   1503555   1502067   1500253   1498066   1495711  
  9630.000000   1493607   1492163   1491607   1491835   1492521  
  9620.000000   1493291   1493979   1494719   1495870   1497764  
  9610.000000   1500424   1503423   1505943   1507082   1506197  
  9600.000000   1503225   1498722   1493717   1489323   1486360  
  9590.000000   1485100   1485222   1486045   1486804   1486976  
  9580.000000   1486383   1485197   1483754   1482417   1481429  
  9570.000000   1480894   1480786   1480973   1481293   1481534  
  9560.000000   1481516   1481076   1480135   1478713   1476932  
  9550.000000   1475017   1473228   1471809   1470907   1470552  
  9540.000000   1470667   1471106   1471707   1472308   1472755  
  9530.000000   1472884   1472555   1471663   1470224   1468362  
  9520.000000   1466335   1464426   1462889   1461860   1461333  
  9510.000000   1461206   1461325   1461599   1462020   1462679  
  9500.000000   1463694   1465134   1466942   1468892   1470639  
  9490.000000   1471781   1472018   1471213   1469490   1467168  
  9480.000000   1464708   1462585   1461146   1460571   1460762  
  9470.000000   1461468   1462330   1463092   1463677   1464225  
  9460.000000   1464986   1466122   1467567   1468911   1469554  
  9450.000000   1468855   1466479   1462542   1457677   1452879  
  9440.000000   1449149   1447244   1447366   1449258   1452312  
  9430.000000   1455896   1459527   1462948   1466013   1468512  
  9420.000000   1470041   1470024   1467939   1463617   1457511  
  9410.000000   1450676   1444525   1440348   1438853   1439924  
  9400.000000   1442634   1445634   1447594   1447707   1445854  
  9390.000000   1442576   1438729   1435126   1432287   1430343  
  9380.000000   1429227   1428755   1428835   1429369   1430225  
  9370.000000   1431112   1431576   1431196   1429751   1427468  
  9360.000000   1424982   1423213   1423009   1424802   1428379  
  9350.000000   1432882   1437108   1439877   1440458   1438703  
  9340.000000   1435069   1430329   1425327   1420689   1416748  
  9330.000000   1413586   1411192   1409607   1408950   1409383  
  9320.000000   1410946   1413533   1416806   1420327   1423618  
  9310.000000   1426303   1428193   1429245   1429571   1429289  
  9300.000000   1428548   1427426   1426020   1424420   1422769  
  9290.000000   1421233   1419952   1419035   1418481   1418264  
  9280.000000   1418284   1418502   1418874   1419426   1420161  
  9270.000000   1421067   1422069   1423025   1423745   1424012  
  9260.000000   1423657   1422579   1420815   1418501   1415867  
  9250.000000   1413166   1410634   1408437   1406657   1405305  
  9240.000000   1404352   1403767   1403517   1403582   1403922  
  9230.000000   1404475   1405161   1405878   1406559   1407153  
  9220.000000   1407686   1408182   1408681   1409144   1409494  
  9210.000000   1409612   1409434   1408986   1408412   1407958  
  9200.000000   1407886   1408398   1409533   1411183   1413121  
  9190.000000   1415089   1416861   1418266   1419204   1419617  
  9180.000000   1419471   1418746   1417457   1415719   1413765  
  9170.000000   1411957   1410661   1410181   1410628   1411925  
  9160.000000   1413788   1415822   1417584   1418703   1418936  
  9150.000000   1418166   1416400   1413760   1410510   1407015  
  9140.000000   1403698   1400960   1399099   1398231   1398234  
  9130.000000   1398805   1399540   1400105   1400295   1400100  
  9120.000000   1399627   1399039   1398462   1397927   1397409  
  9110.000000   1396858   1396308   1395821   1395478   1395258  
  9100.000000   1395043   1394585   1393628   1391999   1389760  
  9090.000000   1387202   1384796   1383020   1382210   1382469  
  9080.000000   1383641   1385443   1387576   1389877   1392331  
  9070.000000   1394997   1397891   1400879   1403687   1405919  
  9060.000000   1407223   1407371   1406401   1404558   1402239  
  9050.000000   1399873   1397834   1396420   1395776   1395979  
  9040.000000   1396961   1398590   1400597   1402655   1404390  
  9030.000000   1405511   1405850   1405419   1404360   1402879  
  9020.000000   1401170   1399324   1397363   1395261   1393066  
  9010.000000   1390904   1388970   1387443   1386391   1385729  
  9000.000000   1385222   1384619   1383785   1382810   1382019  
  8990.000000   1381833   1382607   1384430   1387074   1390012  
  8980.000000   1392639   1394455   1395293   1395312   1394955  
  8970.000000   1394716   1394986   1395886   1397278   1398834  
  8960.000000   1400210   1401180   1401698   1401908   1402028  
  8950.000000   1402314   1402927   1403964   1405387   1407112  
  8940.000000   1408981   1410811   1412389   1413492   1413923  
  8930.000000   1413543   1412318   1410325   1407752   1404839  
  8920.000000   1401858   1399038   1396569   1394583   1393169  
  8910.000000   1392380   1392222   1392665   1393619   1394964  
  8900.000000   1396562   1398298   1400108   1401984   1403970  
  8890.000000   1406094   1408348   1410632   1412797   1414660  
  8880.000000   1416093   1417044   1417595   1417894   1418122  
  8870.000000   1418383   1418676   1418871   1418774   1418223  
  8860.000000   1417185   1415836   1414522   1413712   1413793  
  8850.000000   1415013   1417335   1420483   1423994   1427369  
  8840.000000   1430236   1432381   1433796   1434555   1434759  
  8830.000000   1434435   1433544   1432050   1430041   1427820  
  8820.000000   1425895   1424896   1425352   1427526   1431224  
  8810.000000   1435840   1440464   1444150   1446191   1446300  
  8800.000000   1444717   1442047   1439113   1436652   1435184  
  8790.000000   1434881   1435616   1437068   1438869   1440755  
  8780.000000   1442602   1444460   1446445   1448689   1451230  
  8770.000000   1453969   1456696   1459097   1460915   1461958  
  8760.000000   1462247   1461947   1461390   1460942   1460923  
  8750.000000   1461524   1462767   1464555   1466722   1469134  
  8740.000000   1471720   1474499   1477518   1480797   1484267  
  8730.000000   1487757   1491040   1493893   1496182   1497870  
  8720.000000   1499044   1499841   1500416   1500885   1501331  
  8710.000000   1501809   1502388   1503151   1504164   1505454  
  8700.000000   1506960   1508567   1510121   1511538   1512829  
  8690.000000   1514149   1515732   1517801   1520465   1523632  
  8680.000000   1527025   1530245   1532915   1534789   1535839  
  8670.000000   1536224   1536236   1536179   1536314   1536775  
  8660.000000   1537604   1538752   1540160   1541751   1543450  
  8650.000000   1545171   1546829   1548367   1549788   1551202  
  8640.000000   1552819   1554896   1557649   1561155   1565310  
  8630.000000   1569826   1574317   1578396   1581806   1584465  
  8620.000000   1586475   1588034   1589349   1590555   1591683  
  8610.000000   1592700   1593558   1594276   1594942   1595717  
  8600.000000   1596738   1598094   1599739   1601548   1603321  
  8590.000000   1604892   1606170   1607166   1607974   1608703  
  8580.000000   1609430   1610160   1610852   1611455   1611981  
  8570.000000   1612521   1613244   1614339   1615934   1618043  
  8560.000000   1620526   1623147   1625640   1627804   1629563  
  8550.000000   1630974   1632197   1633408   1634739   1636220  
  8540.000000   1637787   1639320   1640693   1641832   1642719  
  8530.000000   1643400   1643943   1644426   1644915   1645466  
  8520.000000   1646132   1646941   1647879   1648869   1649772  
  8510.000000   1650421   1650686   1650554   1650189   1649915  
  8500.000000   1650147   1651233   1653328   1656291   1659706  
  8490.000000   1663003   1665656   1667354   1668129   1668326  
  8480.000000   1668488   1669134   1670570   1672783   1675464  
  8470.000000   1678151   1680399   1681959   1682843   1683311  
  8460.000000   1683737   1684470   1685691   1687369   1689281  
  8450.000000   1691097   1692497   1693261   1693337   1692845  
  8440.000000   1692034   1691231   1690751   1690845   1691625  
  8430.000000   1693062   1694987   1697146   1699258   1701096  
  8420.000000   1702534   1703570   1704297   1704850   1705341  
  8410.000000   1705821   1706291   1706711   1707061   1707357  
  8400.000000   1707673   1708096   1708675   1709392   1710143  
  8390.000000   1710788   1711197   1711336   1711283   1711231  
  8380.000000   1711409   1712006   1713081   1714558   1716230  
  8370.000000   1717849   1719198   1720161   1720737   1721011  
  8360.000000   1721091   1721046   1720884   1720566   1720050  
  8350.000000   1719347   1718542   1717796   1717284   1717151  
  8340.000000   1717432   1718058   1718859   1719637   1720227  
  8330.000000   1720535   1720554   1720328   1719920   1719370  
  8320.000000   1718695   1717901   1717030   1716184   1715523  
  8310.000000   1715224   1715405   1716084   1717132   1718321  
  8300.000000   1719377   1720079   1720330   1720179   1719784  
  8290.000000   1719331   1718953   1718684   1718455   1718155  
  8280.000000   1717699   1717087   1716403   1715791   1715359  
  8270.000000   1715142   1715044   1714895   1714501   1713750  
  8260.000000   1712649   1711336   1710011   1708859   1707977  
  8250.000000   1707332   1706789   1706161   1705296   1704129  
  8240.000000   1702713   1701182   1699706   1698446   1697505  
  8230.000000   1696945   1696763   1696937   1697408   1698106  
  8220.000000   1698932   1699770   1700495   1700986   1701153  
  8210.000000   1700934   1700297   1699235   1697770   1695961  
  8200.000000   1693911   1691790   1689805   1688184   1687090  
  8190.000000   1686591   1686581   1686830   1687008   1686804  
  8180.000000   1686006   1684568   1682605   1680350   1678059  
  8170.000000   1675940   1674095   1672529   1671193   1670029  
  8160.000000   1669008   1668138   1667419   1666824   1666260  
  8150.000000   1665591   1664672   1663412   1661829   1660045  
  8140.000000   1658264   1656682   1655432   1654523   1653845  
  8130.000000   1653216   1652449   1651427   1650143   1648694  
  8120.000000   1647241   1645950   1644930   1644198   1643680  
  8110.000000   1643240   1642727   1642020   1641063   1639876  
  8100.000000   1638538   1637169   1635889   1634793   1633921  
  8090.000000   1633253   1632716   1632202   1631596   1630809  
  8080.000000   1629787   1628540   1627121   1625621   1624143  
  8070.000000   1622772   1621563   1620511   1619577   1618671  
  8060.000000   1617694   1616546   1615166   1613547   1611752  
  8050.000000   1609915   1608212   1606843   1605968   1605686  
  8040.000000   1605991   1606775   1607842   1608949   1609858  
  8030.000000   1610373   1610389   1609872   1608877   1607490  
  8020.000000   1605832   1604012   1602140   1600314   1598633  
  8010.000000   1597195   1596081   1595356   1595024   1595051  
  8000.000000   1595336   1595756   1596172   1596469   1596572  
  7990.000000   1596444   1596098   1595557   1594866   1594053  
  7980.000000   1593156   1592196   1591212   1590236   1589310  
  7970.000000   1588473   1587756   1587188   1586790   1586588  
  7960.000000   1586600   1586836   1587279   1587879   1588545  
  7950.000000   1589160   1589604   1589789   1589685   1589332  
  7940.000000   1588828   1588292   1587831   1587491   1587249  
  7930.000000   1587008   1586639   1586015   1585061   1583771  
  7920.000000   1582229   1580587   1579040   1577793   1577014  
  7910.000000   1576810   1577197   1578104   1579378   1580823  
  7900.000000   1582238   1583463   1584412   1585073   1585500  
  7890.000000   1585762   1585920   1585974   1585883   1585564  
  7880.000000   1584955   1584045   1582900   1581668   1580524  
  7870.000000   1579645   1579130   1579004   1579193   1579572  
  7860.000000   1579994   1580341   1580538   1580561   1580422  
  7850.000000   1580149   1579775   1579326   1578838   1578342  
  7840.000000   1577879   1577480   1577156   1576893   1576644  
  7830.000000   1576359   1575990   1575534   1575025   1574536  
  7820.000000   1574143   1573897   1573787   1573743   1573644  
  7810.000000   1573361   1572798   1571928   1570806   1569552  
  7800.000000   1568314   1567221   1566348   1565697   1565213  
  7790.000000   1564809   1564406   1563962   1563482   1563007  
  7780.000000   1562589   1562267   1562040   1561872   1561699  
  7770.000000   1561462   1561123   1560678   1560158   1559607  
  7760.000000   1559062   1558529   1557984   1557375   1556650  
  7750.000000   1555773   1554754   1553645   1552529   1551505  
  7740.000000   1550654   1550025   1549621   1549416   1549352  
  7730.000000   1549375   1549435   1549505   1549569   1549617  
  7720.000000   1549641   1549612   1549494   1549231   1548774  
  7710.000000   1548076   1547128   1545956   1544633   1543277  
  7700.000000   1542026   1541028   1540394   1540192   1540412  
  7690.000000   1540974   1541741   1542539   1543205   1543597  
  7680.000000   1543641   1543311   1542650   1541726   1540646  
  7670.000000   1539515   1538448   1537542   1536882   1536520  
  7660.000000   1536470   1536698   1537128   1537656   1538172  
  7650.000000   1538584   1538840   1538922   1538861   1538692  
  7640.000000   1538468   1538220   1537980   1537765   1537601  
  7630.000000   1537514   1537533   1537678   1537949   1538330  
  7620.000000   1538786   1539292   1539833   1540417   1541072  
  7610.000000   1541809   1542620   1543442   1544183   1544729  
  7600.000000   1545002   1544975   1544702   1544297   1543915  
  7590.000000   1543706   1543783   1544201   1544957   1546002  
  7580.000000   1547271   1548689   1550184   1551682   1553114  
  7570.000000   1554403   1555504   1556390   1557093   1557672  
  7560.000000   1558228   1558849   1559611   1560551   1561677  
  7550.000000   1562979   1564438   1566040   1567768   1569592  
  7540.000000   1571460   1573289   1574988   1576467   1577680  
  7530.000000   1578626   1579375   1580023   1580696   1581488  
  7520.000000   1582471   1583667   1585071   1586653   1588376  
  7510.000000   1590207   1592119   1594090   1596114   1598184  
  7500.000000   1600317   1602514   1604785   1607099   1609416  
  7490.000000   1611658   1613756   1615658   1617371   1618961  
  7480.000000   1620556   1622305   1624347   1626753   1629523  
  7470.000000   1632562   1635721   1638817   1641701   1644274  
  7460.000000   1646527   1648522   1650400   1652327   1654469  
  7450.000000   1656943   1659793   1662983   1666406   1669922  
  7440.000000   1673393   1676733   1679924   1683012   1686074  
  7430.000000   1689173   1692329   1695494   1698577   1701466  
  7420.000000   1704089   1706431   1708547   1710542   1712533  
  7410.000000   1714619   1716854   1719253   1721806   1724492  
  7400.000000   1727294   1730194   1733164   1736160   1739122  
  7390.000000   1741997   1744764   1747447   1750116   1752865  
  7380.000000   1755774   1758875   1762133   1765456   1768731  
  7370.000000   1771864   1774807   1777567   1780190   1782732  
  7360.000000   1785230   1787685   1790076   1792373   1794567  
  7350.000000   1796678   1798759   1800877   1803092   1805445  
  7340.000000   1807940   1810572   1813318   1816158   1819066  
  7330.000000   1822009   1824942   1827807   1830546   1833120  
  7320.000000   1835519   1837774   1839941   1842091   1844277  
  7310.000000   1846533   1848847   1851191   1853507   1855751  
  7300.000000   1857880   1859880   1861741   1863471   1865071  
  7290.000000   1866547   1867887   1869083   1870121   1871005  
  7280.000000   1871750   1872408   1873051   1873771   1874650  
  7270.000000   1875741   1877047   1878517   1880061   1881567  
  7260.000000   1882955   1884178   1885260   1886262   1887287  
  7250.000000   1888422   1889753   1891311   1893112   1895129  
  7240.000000   1897336   1899681   1902127   1904622   1907141  
  7230.000000   1909658   1912199   1914794   1917517   1920414  
  7220.000000   1923538   1926878   1930409   1934058   1937771  
  7210.000000   1941492   1945222   1948974   1952803   1956740  
  7200.000000   1960822   1965039   1969392   1973850   1978416  
  7190.000000   1983069   1987819   1992643   1997537   2002474  
  7180.000000   2007461   2012508   2017668   2022984   2028512  
  7170.000000   2034250   2040185   2046233   2052326   2058381  
  7160.000000   2064374   2070299   2076204   2082130   2088144  
  7150.000000   2094291   2100640   2107239   2114155   2121403  
  7140.000000   2128973   2136762   2144639   2152430   2160022  
  7130.000000   2167365   2174540   2181701   2189068   2196813  
  7120.000000   2205042   2213712   2222694   2231774   2240766  
  7110.000000   2249530   2258038   2266325   2274495   2282639  
  7100.000000   2290852   2299174   2307635   2316223   2324932  
  7090.000000   2333731   2342593   2351490   2360408   2369363  
  7080.000000   2378399   2387579   2396964   2406567   2416343  
  7070.000000   2426164   2435872   2445302   2454352   2463001  
  7060.000000   2471321   2479445   2487522   2495683   2504003  
  7050.000000   2512508   2521176   2529969   2538833   2547726  
  7040.000000   2556586   2565366   2574002   2582456   2590698  
  7030.000000   2598742   2606613   2614362   2622025   2629632  
  7020.000000   2637179   2644664   2652062   2659373   2666583  
  7010.000000   2673698   2680700   2687588   2694333   2700939  
  7000.000000   2707398   2713735   2719955   2726080   2732090  
  6990.000000   2737983   2743730   2749346   2754839   2760255  
  6980.000000   2765608   2770903   2776079   2781061   2785747  
  6970.000000   2790087   2794064   2797746   2801221   2804614  
  6960.000000   2807996   2811426   2814897   2818414   2821957  
  6950.000000   2825539   2829151   2832786   2836376   2839838  
  6940.000000   2843053   2845941   2848465   2850669   2852642  
  6930.000000   2854508   2856364   2858272   2860234   2862234  
  6920.000000   2864239   2866245   2868252   2870279   2872322  
  6910.000000   2874364   2876361   2878278   2880095   2881831  
  6900.000000   2883526   2885231   2886970   2888741   2890504  
  6890.000000   2892217   2893848   2895403   2896910   2898417  
  6880.000000   2899950   2901510   2903064   2904568   2905986  
  6870.000000   2907308   2908552   2909754   2910943   2912133  
  6860.000000   2913316   2914482   2915622   2916750   2917890  
  6850.000000   2919065   2920273   2921486   2922648   2923702  
  6840.000000   2924611   2925378   2926045   2926681   2927355  
  6830.000000   2928122   2929003   2930004   2931108   2932296  
  6820.000000   2933535   2934787   2935986   2937066   2937955  
  6810.000000   2938619   2939055   2939321   2939491   2939651  
  6800.000000   2939851   2940101   2940365   2940598   2940751  
  6790.000000   2940816   2940800   2940736   2940638   2940510  
  6780.000000   2940322   2940047   2939661   2939174   2938614  
  6770.000000   2938032   2937466   2936943   2936462   2936015  
  6760.000000   2935588   2935182   2934793   2934413   2934013  
  6750.000000   2933547   2932959   2932216   2931321   2930327  
  6740.000000   2929317   2928382   2927579   2926921   2926364  
  6730.000000   2925842   2925278   2924630   2923883   2923055  
  6720.000000   2922168   2921243   2920279   2919269   2918204  
  6710.000000   2917091   2915948   2914800   2913659   2912525  
  6700.000000   2911378   2910196   2908961   2907681   2906375  
  6690.000000   2905073   2903791   2902538   2901296   2900053  
  6680.000000   2898797   2897539   2896291   2895072   2893878  
  6670.000000   2892688   2891455   2890137   2888698   2887132  
  6660.000000   2885451   2883676   2881823   2879898   2877894  
  6650.000000   2875821   2873701   2871591   2869554   2867655  
  6640.000000   2865917   2864327   2862824   2861332   2859776  
  6630.000000   2858117   2856347   2854493   2852589   2850667  
  6620.000000   2848742   2846818   2844889   2842950   2840997  
  6610.000000   2839024   2837012   2834942   2832790   2830554  
  6600.000000   2828254   2825939   2823668   2821493   2819433  
  6590.000000   2817470   2815550   2813615   2811622   2809566  
  6580.000000   2807476   2805402   2803390   2801459   2799598  
  6570.000000   2797769   2795933   2794059   2792143   2790197  
  6560.000000   2788250   2786323   2784437   2782598   2780817  
  6550.000000   2779097   2777446   2775861   2774328   2772815  
  6540.000000   2771289   2769724   2768119   2766499   2764910  
  6530.000000   2763400   2762003   2760719   2759522   2758363  
  6520.000000   2757197   2755993   2754743   2753453   2752141  
  6510.000000   2750821   2749503   2748197   2746920   2745695  
  6500.000000   2744546   2743490   2742520   2741604   2740688  
  6490.000000   2739717   2738653   2737491   2736259   2735006  
  6480.000000   2733783   2732622   2731528   2730477   2729432  
  6470.000000   2728356   2727223   2726021   2724751   2723420  
  6460.000000   2722037   2720613   2719165   2717714   2716285  
  6450.000000   2714909   2713605   2712390   2711263   2710217  
  6440.000000   2709238   2708302   2707386   2706458   2705490  
  6430.000000   2704455   2703343   2702161   2700941   2699721  
  6420.000000   2698544   2697434   2696396   2695416   2694473  
  6410.000000   2693555   2692664   2691818   2691036   2690319  
  6400.000000   2689647   2688971   2688239   2687407   2686473  
  6390.000000   2685464   2684444   2683476   2682610   2681863  
  6380.000000   2681219   2680642   2680096   2679554   2679010  
  6370.000000   2678469   2677939   2677428   2676936   2676464  
  6360.000000   2676014   2675592   2675197   2674817   2674420  
  6350.000000   2673956   2673376   2672652   2671786   2670821  
  6340.000000   2669818   2668847   2667944   2667119   2666341  
  6330.000000   2665570   2664763   2663910   2663013   2662101  
  6320.000000   2661186   2660276   2659349   2658382   2657346  
  6310.000000   2656241   2655072   2653867   2652637   2651386  
  6300.000000   2650087   2648716   2647236   2645642   2643935  
  6290.000000   2642141   2640275   2638358   2636378   2634332  
  6280.000000   2632204   2630003   2627737   2625438   2623123  
  6270.000000   2620806   2618474   2616111   2613690   2611198  
  6260.000000   2608630   2606001   2603326   2600627   2597914  
  6250.000000   2595198   2592484   2589781   2587099   2584451  
  6240.000000   2581841   2579271   2576727   2574196   2571663  
  6230.000000   2569118   2566555   2563973   2561368   2558738  
  6220.000000   2556078   2553385   2550661   2547917   2545163  
  6210.000000   2542414   2539677   2536961   2534271   2531620  
  6200.000000   2529021   2526488   2524032   2521647   2519314  
  6190.000000   2517001   2514676   2512316   2509921   2507506  
  6180.000000   2505099   2502726   2500398   2498112   2495851  
  6170.000000   2493598   2491345   2489092   2486849   2484622  
  6160.000000   2482410   2480197   2477964   2475699   2473411  
  6150.000000   2471125   2468887   2466734   2464694   2462758  
  6140.000000   2460898   2459066   2457224   2455347   2453441  
  6130.000000   2451530   2449649   2447829   2446090   2444436  
  6120.000000   2442865   2441368   2439940   2438572   2437260  
  6110.000000   2435987   2434741   2433500   2432255   2430995  
  6100.000000   2429733   2428479   2427259   2426087   2424985  
  6090.000000   2423959   2423021   2422172   2421416   2420748  
  6080.000000   2420167   2419658   2419219   2418837   2418519  
  6070.000000   2418262   2418082   2417974   2417947   2417984  
  6060.000000   2418083   2418224   2418410   2418635   2418919  
  6050.000000   2419267   2419709   2420251   2420921   2421725  
  6040.000000   2422687   2423810   2425108   2426568   2428182  
  6030.000000   2429918   2431753   2433653   2435600   2437573  
  6020.000000   2439567   2441566   2443563   2445542   2447500  
  6010.000000   2449430   2451345   2453258   2455189   2457145  
  6000.000000   2459128   2461118   2463095   2465035   2466934  
  5990.000000   2468796   2470651   2472532   2474481   2476525  
  5980.000000   2478689   2480976   2483386   2485905   2488521  
  5970.000000   2491209   2493954   2496732   2499534   2502351  
  5960.000000   2505191   2508057   2510963   2513903   2516875  
  5950.000000   2519855   2522828   2525776   2528700   2531611  
  5940.000000   2534529   2537472   2540452   2543468   2546512  
  5930.000000   2549573   2552642   2555721   2558812   2561917  
  5920.000000   2565029   2568126   2571178   2574152   2577024  
  5910.000000   2579782   2582434   2584999   2587501   2589968  
  5900.000000   2592422   2594886   2597377   2599919   2602525  
  5890.000000   2605210   2607972   2610801   2613672   2616559  
  5880.000000   2619433   2622268   2625046   2627746   2630359  
  5870.000000   2632872   2635288   2637612   2639877   2642117  
  5860.000000   2644384   2646715   2649149   2651696   2654368  
  5850.000000   2657156   2660064   2663089   2666237   2669508  
  5840.000000   2672897   2676387   2679956   2683580   2687238  
  5830.000000   2690918   2694608   2698298   2701963   2705575  
  5820.000000   2709089   2712471   2715685   2718722   2721569  
  5810.000000   2724239   2726721   2729024   2731122   2733022  
  5800.000000   2734704   2736197   2737501   2738661   2739675  
  5790.000000   2740570   2741321   2741925   2742339   2742550  
  5780.000000   2742511   2742208   2741603   2740688   2739453  
  5770.000000   2737929   2736160   2734226   2732210   2730201  
  5760.000000   2728266   2726453   2724783   2723268   2721908  
  5750.000000   2720709   2719674   2718800   2718083   2717500  
  5740.000000   2717033   2716652   2716348   2716100   2715913  
  5730.000000   2715771   2715676   2715606   2715561   2715537  
  5720.000000   2715556   2715638   2715822   2716117   2716530  
  5710.000000   2717029   2717581   2718143   2718694   2719224  
  5700.000000   2719751   2720293   2720872   2721496   2722160  
  5690.000000   2722856   2723575   2724320   2725090   2725893  
  5680.000000   2726715   2727537   2728318   2729015   2729584  
  5670.000000   2729994   2730220   2730253   2730084   2729717  
  5660.000000   2729155   2728425   2727561   2726623   2725664  
  5650.000000   2724744   2723894   2723130   2722441   2721811  
  5640.000000   2721214   2720636   2720059   2719477   2718877  
  5630.000000   2718252   2717604   2716947   2716312   2715738  
  5620.000000   2715262   2714899   2714638   2714439   2714243  
  5610.000000   2714001   2713679   2713276   2712810   2712311  
  5600.000000   2711799   2711278   2710732   2710144   2709503  
  5590.000000   2708815   2708098   2707380   2706672   2705975  
  5580.000000   2705264   2704516   2703708   2702838   2701914  
  5570.000000   2700958   2699983   2698995   2697983   2696936  
  5560.000000   2695843   2694711   2693554   2692397   2691256  
  5550.000000   2690135   2689022   2687903   2686763   2685600  
  5540.000000   2684423   2683249   2682091   2680955   2679836  
  5530.000000   2678728   2677625   2676534   2675464   2674427  
  5520.000000   2673421   2672437   2671449   2670433   2669368  
  5510.000000   2668247   2667072   2665856   2664602   2663314  
  5500.000000   2661989   2660629   2659243   2657855   2656485  
  5490.000000   2655156   2653860   2652582   2651282   2649932  
  5480.000000   2648505   2647002   2645429   2643802   2642121  
  5470.000000   2640377   2638545   2636611   2634568   2632439  
  5460.000000   2630257   2628062   2625874   2623702   2621525  
  5450.000000   2619325   2617086   2614811   2612520   2610239  
  5440.000000   2607989   2605777   2603605   2601467   2599376  
  5430.000000   2597344   2595404   2593567   2591839   2590196  
  5420.000000   2588620   2587085   2585610   2584222   2582989  
  5410.000000   2581948   2581134   2580518   2580067   2579716  
  5400.000000   2579444   2579230   2579118   2579136   2579344  
  5390.000000   2579747   2580367   2581170   2582164   2583331  
  5380.000000   2584707   2586291   2588116   2590154   2592405  
  5370.000000   2594810   2597372   2600052   2602895   2605898  
  5360.000000   2609139   2612616   2616415   2620531   2625055  
  5350.000000   2629987   2635420   2641332   2647787   2654721  
  5340.000000   2662173   2670069   2678480   2687365   2696827  
  5330.000000   2706831   2717470   2728676   2740520   2752932  
  5320.000000   2766015   2779739   2794253   2809540   2825746  
  5310.000000   2842813   2860842   2879737   2899584   2920304  
  5300.000000   2942011   2964667   2988415   3013234   3039252  
  5290.000000   3066404   3094729   3124063   3154322   3185282  
  5280.000000   3216857   3248921   3281535   3314747   3348720  
  5270.000000   3383510   3419120   3455378   3492006   3528677  
  5260.000000   3565088   3601087   3636615   3671771   3706595  
  5250.000000   3741152   3775285   3808856   3841535   3873184  
  5240.000000   3903592   3932857   3960980   3988214   4014591  
  5230.000000   4040292   4065204   4089349   4112489   4134600  
  5220.000000   4155486   4175235   4193790   4211366   4227985  
  5210.000000   4243865   4258958   4273353   4286868   4299496  
  5200.000000   4311042   4321571   4331012   4339549   4347188  
  5190.000000   4354109   4360268   4365756   4370468   4374468  
  5180.000000   4377678   4380203   4382007   4383203   4383740  
  5170.000000   4383695   4383005   4381751   4379910   4377598  
  5160.000000   4374819   4371672   4368125   4364230   4359931  
  5150.000000   4355284   4350271   4344979   4339415   4333643  
  5140.000000   4327629   4321380   4314836   4308004   4300867  
  5130.000000   4293483   4285880   4278132   4270254   4262288  
  5120.000000   4254224   4246090   4237891   4229671   4221447  
  5110.000000   4213251   4205077   4196924   4188766   4180602  
  5100.000000   4172423   4164256   4156113   4148015   4139955  
  5090.000000   4131921   4123882   4115821   4107721   4099592  
  5080.000000   4091442   4083290   4075133   4066971   4058782  
  5070.000000   4050558   4042279   4033953   4025577   4017166  
  5060.000000   4008720   4000250   3991747   3983222   3974669  
  5050.000000   3966099   3957505   3948887   3940225   3931505  
  5040.000000   3922708   3913832   3904886   3895898   3886901  
  5030.000000   3877929   3869010   3860158   3851383   3842685  
  5020.000000   3834074   3825553   3817138   3808834   3800657  
  5010.000000   3792600   3784675   3776871   3769205   3761671  
  5000.000000   3754301   3747089   3740069   3733230   3726604  
  4990.000000   3720176   3713984   3708015   3702315   3696871  
  4980.000000   3691728   3686868   3682335   3678111   3674246  
  4970.000000   3670728   3667608   3664863   3662531   3660566  
  4960.000000   3658988   3657740   3656845   3656259   3656026  
  4950.000000   3656120   3656597   3657432   3658680   3660307  
  4940.000000   3662358   3664795   3667654   3670888   3674521  
  4930.000000   3678498   3682836   3687484   3692470   3697756  
  4920.000000   3703382   3709313   3715575   3722121   3728958  
  4910.000000   3736035   3743365   3750921   3758733   3766788  
  4900.000000   3775110   3783671   3792466   3801446   3810587  
  4890.000000   3819845   3829199   3838621   3848089   3857574  
  4880.000000   3867042   3876456   3885776   3894975   3904019  
  4870.000000   3912898   3921584   3930073   3938337   3946379  
  4860.000000   3954178   3961748   3969075   3976176   3983033  
  4850.000000   3989661   3996037   4002184   4008099   4013828  
  4840.000000   4019385   4024822   4030144   4035384   4040523  
  4830.000000   4045573   4050509   4055345   4060063   4064677  
  4820.000000   4069162   4073516   4077705   4081723   4085551  
  4810.000000   4089212   4092716   4096109   4099410   4102649  
  4800.000000   4105822   4108935   4111967   4114922   4117787  
  4790.000000   4120582   4123304   4125970   4128571   4131111  
  4780.000000   4133571   4135952   4138239   4140442   4142554  
  4770.000000   4144588   4146531   4148391   4150142   4151786  
  4760.000000   4153292   4154664   4155876   4156940   4157843  
  4750.000000   4158604   4159215   4159696   4160030   4160223  
  4740.000000   4160244   4160086   4159717   4159143   4158349  
  4730.000000   4157365   4156197   4154880   4153416   4151821  
  4720.000000   4150080   4148195   4146157   4143979   4141676  
  4710.000000   4139286   4136844   4134400   4131988   4129652  
  4700.000000   4127417   4125309   4123336   4121501   4119788  
  4690.000000   4118173   4116620   4115092   4113553   4111973  
  4680.000000   4110331   4108608   4106796   4104878   4102851  
  4670.000000   4100705   4098453   4096108   4093709   4091296  
  4660.000000   4088925   4086641   4084492   4082509   4080721  
  4650.000000   4079142   4077787   4076650   4075732   4075007  
  4640.000000   4074457   4074041   4073732   4073496   4073315  
  4630.000000   4073171   4073060   4072969   4072899   4072835  
  4620.000000   4072773   4072698   4072607   4072491   4072343  
  4610.000000   4072152   4071904   4071585   4071186   4070707  
  4600.000000   4070161   4069576   4068979   4068407   4067877  
  4590.000000   4067403   4066973   4066571   4066165   4065730  
  4580.000000   4065237   4064670   4064019   4063289   4062488  
  4570.000000   4061640   4060763   4059877   4058992   4058106  
  4560.000000   4057204   4056267   4055276   4054222   4053110  
  4550.000000   4051957   4050792   4049640   4048525   4047456  
  4540.000000   4046442   4045472   4044555   4043680   4042867  
  4530.000000   4042106   4041424   4040813   4040309   4039914  
  4520.000000   4039689   4039651   4039884   4040401   4041280  
  4510.000000   4042508   4044147   4046165   4048635   4051539  
  4500.000000   4054979   4058960   4063597   4068895   4074956  
  4490.000000   4081762   4089390   4097797   4107031   4117022  
  4480.000000   4127786   4139228   4151341   4164021   4177254  
  4470.000000   4190946   4205083   4219574   4234392   4249442  
  4460.000000   4264680   4280013   4295393   4310743   4326017  
  4450.000000   4341157   4356118   4370861   4385356   4399599  
  4440.000000   4413583   4427347   4440898   4454290   4467511  
  4430.000000   4480604   4493523   4506299   4518860   4531231  
  4420.000000   4543326   4555156   4566610   4577674   4588207  
  4410.000000   4598172   4607417   4615907   4623512   4630226  
  4400.000000   4635971   4640787   4644656   4647669   4649860  
  4390.000000   4651353   4652221   4652605   4652596   4652338  
  4380.000000   4651935   4651528   4651228   4651172   4651471  
  4370.000000   4652232   4653537   4655434   4657945   4661043  
  4360.000000   4664693   4668822   4673368   4678252   4683417  
  4350.000000   4688803   4694369   4700080   4705910   4711847  
  4340.000000   4717874   4723970   4730079   4736109   4741906  
  4330.000000   4747277   4751990   4755844   4758682   4760470  
  4320.000000   4761277   4761318   4760858   4760227   4759681  
  4310.000000   4759446   4759604   4760195   4761140   4762372  
  4300.000000   4763769   4765255   4766730   4768137   4769401  
  4290.000000   4770477   4771326   4771945   4772354   4772606  
  4280.000000   4772760   4772891   4773045   4773268   4773558  
  4270.000000   4773924   4774322   4774725   4775049   4775220  
  4260.000000   4775120   4774647   4773693   4772205   4770170  
  4250.000000   4767651   4764751   4761630   4758432   4755311  
  4240.000000   4752355   4749633   4747141   4744863   4742738  
  4230.000000   4740710   4738705   4736663   4734520   4732226  
  4220.000000   4729747   4727060   4724180   4721135   4717993  
  4210.000000   4714824   4711720   4708752   4705991   4703472  
  4200.000000   4701220   4699220   4697460   4695895   4694500  
  4190.000000   4693220   4692045   4690927   4689888   4688901  
  4180.000000   4688023   4687253   4686676   4686314   4686273  
  4170.000000   4686590   4687384   4688690   4690619   4693173  
  4160.000000   4696423   4700320   4704885   4710031   4715766  
  4150.000000   4722005   4728780   4736031   4743820   4752103  
  4140.000000   4760955   4770336   4780318   4790852   4801993  
  4130.000000   4813677   4825930   4838674   4851923   4865606  
  4120.000000   4879754   4894328   4909385   4924908   4940948  
  4110.000000   4957472   4974486   4991914   5009714   5027786  
  4100.000000   5046077   5064508   5083054   5101686   5120416  
  4090.000000   5139247   5158195   5177261   5196433   5215705  
  4080.000000   5235053   5254484   5273979   5293556   5313174  
  4070.000000   5332822   5352404   5371870   5391096   5410050  
  4060.000000   5428641   5446887   5464723   5482184   5499188  
  4050.000000   5515761   5531801   5547349   5562308   5576731  
  4040.000000   5590499   5603641   5615994   5627571   5638218  
  4030.000000   5647989   5656778   5664664   5671547   5677463  
  4020.000000   5682250   5685939   5688460   5689911   5690258  
  4010.000000   5689716   5688413   5686443   5683610   5680033  
  4000.000000   5676077  
##END= 
