##TITLE= Sample 033 By ssteindl date Dienstag, November 20 2018
##JCAMP-DX= 4.24
##DATA TYPE= INFRARED SPECTRUM
##ORIGIN= Exported PE Spectrum Data File
##OWNER= Sandra Steindl
##DATE= 18/11/20
##TIME= 11:52:21.00
##SPECTROMETER/DATA SYSTEM= PERKIN-ELMER Frontier FT-IR/NIR IR
##INSTRUMENT PARAMETERS=
  APODIZATION=stark
  DETECTOR=INGAAS
##RESOLUTION= 16.000000
##DELTAX= -2.000000
##XUNITS= 1/CM
##YUNITS= A
##XFACTOR= 1.00
##YFACTOR= 0.00000011920928955078
##FIRSTX= 10000.00
##LASTX= 4000.00
##NPOINTS= 3001
##FIRSTY= 0.198222
##MAXY= 0.625281
##MINY= 0.175178
##XYDATA= (X++(Y..Y))
 10000.000000   1662808   1662595   1662788   1663488   1663825  
  9990.000000   1662945   1660944   1658974   1658237   1659573  
  9980.000000   1663214   1668648   1674657   1679608   1682162  
  9970.000000   1681426   1677209   1669785   1659868   1648332  
  9960.000000   1636203   1624688   1615121   1608976   1607423  
  9950.000000   1611140   1619773   1632059   1645888   1658946  
  9940.000000   1669267   1675664   1678004   1676810   1673103  
  9930.000000   1667658   1661059   1653434   1644963   1636009  
  9920.000000   1627393   1620296   1615855   1614965   1617745  
  9910.000000   1623783   1631986   1641173   1650168   1658172  
  9900.000000   1664753   1669752   1673176   1674971   1675086  
  9890.000000   1673400   1669935   1664811   1658409   1651193  
  9880.000000   1643789   1636775   1630686   1625882   1622462  
  9870.000000   1620280   1618892   1617824   1616688   1615537  
  9860.000000   1614876   1615665   1618925   1625357   1634908  
  9850.000000   1646613   1658763   1669306   1676500   1679338  
  9840.000000   1677893   1673107   1666478   1659459   1653087  
  9830.000000   1647783   1643429   1639677   1636166   1632808  
  9820.000000   1629685   1627089   1625195   1624125   1623771  
  9810.000000   1623975   1624524   1625214   1625866   1626230  
  9800.000000   1626073   1625135   1623327   1620741   1617723  
  9790.000000   1614733   1612230   1610469   1609478   1609047  
  9780.000000   1608898   1608783   1608585   1608317   1608037  
  9770.000000   1607788   1607542   1607253   1606937   1606757  
  9760.000000   1607003   1607991   1609853   1612411   1615135  
  9750.000000   1617302   1618247   1617640   1615617   1612729  
  9740.000000   1609671   1607007   1604893   1603079   1601074  
  9730.000000   1598437   1595094   1591361   1587886   1585268  
  9720.000000   1583769   1583125   1582600   1581330   1578716  
  9710.000000   1574817   1570444   1566967   1565829   1568021  
  9700.000000   1573624   1581749   1590687   1598469   1603408  
  9690.000000   1604606   1602179   1597116   1590931   1585109  
  9680.000000   1580678   1577918   1576401   1575211   1573365  
  9670.000000   1570153   1565405   1559520   1553313   1547754  
  9660.000000   1543625   1541332   1540798   1541566   1543009  
  9650.000000   1544545   1545878   1547031   1548359   1550327  
  9640.000000   1553348   1557512   1562546   1567749   1572258  
  9630.000000   1575202   1576080   1574870   1572135   1568845  
  9620.000000   1566088   1564784   1565361   1567729   1571280  
  9610.000000   1575200   1578669   1581167   1582525   1582919  
  9600.000000   1582702   1582217   1581671   1581052   1580215  
  9590.000000   1578952   1577118   1574721   1571910   1569027  
  9580.000000   1566475   1564754   1564271   1565332   1567952  
  9570.000000   1571825   1576264   1580308   1582915   1583236  
  9560.000000   1580909   1576180   1569925   1563360   1557747  
  9550.000000   1553961   1552297   1552401   1553454   1554517  
  9540.000000   1554807   1554006   1552239   1550059   1548167  
  9530.000000   1547220   1547625   1549417   1552302   1555633  
  9520.000000   1558643   1560496   1560588   1558634   1554855  
  9510.000000   1549918   1544829   1540652   1538239   1537987  
  9500.000000   1539749   1542923   1546666   1550203   1553013  
  9490.000000   1554982   1556267   1557219   1558139   1559213  
  9480.000000   1560467   1561808   1563125   1564282   1565161  
  9470.000000   1565582   1565320   1564113   1561768   1558282  
  9460.000000   1553906   1549160   1544683   1541085   1538736  
  9450.000000   1537719   1537823   1538706   1539998   1541435  
  9440.000000   1542851   1544156   1545254   1546007   1546260  
  9430.000000   1545904   1544963   1543604   1542124   1540829  
  9420.000000   1539953   1539552   1539506   1539544   1539352  
  9410.000000   1538649   1537279   1535214   1532570   1529557  
  9400.000000   1526452   1523562   1521187   1519587   1518931  
  9390.000000   1519271   1520515   1522453   1524788   1527214  
  9380.000000   1529434   1531221   1532385   1532799   1532431  
  9370.000000   1531359   1529834   1528180   1526766   1525821  
  9360.000000   1525384   1525208   1524845   1523772   1521624  
  9350.000000   1518405   1514536   1510792   1508010   1506857  
  9340.000000   1507582   1509994   1513529   1517468   1521124  
  9330.000000   1524031   1525964   1526921   1526988   1526284  
  9320.000000   1524951   1523166   1521213   1519387   1517953  
  9310.000000   1516965   1516230   1515339   1513779   1511176  
  9300.000000   1507432   1502913   1498356   1494702   1492741  
  9290.000000   1492860   1494885   1498162   1501732   1504615  
  9280.000000   1506072   1505806   1504033   1501337   1498488  
  9270.000000   1496156   1494786   1494430   1494788   1495254  
  9260.000000   1495166   1494021   1491681   1488435   1484896  
  9250.000000   1481862   1480022   1479783   1481083   1483450  
  9240.000000   1486172   1488520   1490002   1490419   1489930  
  9230.000000   1488847   1487542   1486241   1485020   1483789  
  9220.000000   1482416   1480837   1479140   1477624   1476709  
  9210.000000   1476850   1478349   1481296   1485474   1490350  
  9200.000000   1495141   1498959   1501081   1501083   1498999  
  9190.000000   1495294   1490793   1486454   1483121   1481301  
  9180.000000   1481066   1482129   1483983   1486086   1487969  
  9170.000000   1489342   1490087   1490215   1489782   1488865  
  9160.000000   1487605   1486241   1485122   1484606   1484958  
  9150.000000   1486254   1488343   1490874   1493376   1495435  
  9140.000000   1496792   1497409   1497385   1496889   1496081  
  9130.000000   1495065   1493906   1492661   1491442   1490395  
  9120.000000   1489668   1489320   1489262   1489308   1489215  
  9110.000000   1488834   1488136   1487282   1486546   1486209  
  9100.000000   1486451   1487273   1488516   1489891   1491062  
  9090.000000   1491729   1491698   1490898   1489392   1487396  
  9080.000000   1485259   1483409   1482220   1481933   1482543  
  9070.000000   1483781   1485155   1486122   1486297   1485574  
  9060.000000   1484152   1482415   1480768   1479435   1478403  
  9050.000000   1477424   1476227   1474671   1472891   1471260  
  9040.000000   1470221   1470115   1470983   1472588   1474472  
  9030.000000   1476203   1477542   1478514   1479348   1480285  
  9020.000000   1481437   1482661   1483632   1483954   1483373  
  9010.000000   1481883   1479758   1477428   1475328   1473767  
  9000.000000   1472875   1472641   1472943   1473669   1474688  
  8990.000000   1475884   1477078   1478072   1478701   1478905  
  8980.000000   1478797   1478601   1478594   1478897   1479419  
  8970.000000   1479807   1479638   1478567   1476567   1473980  
  8960.000000   1471474   1469797   1469496   1470739   1473263  
  8950.000000   1476512   1479844   1482793   1485184   1487130  
  8940.000000   1488866   1490594   1492361   1494060   1495500  
  8930.000000   1496518   1497078   1497246   1497149   1496861  
  8920.000000   1496357   1495538   1494284   1492595   1490592  
  8910.000000   1488562   1486816   1485626   1485110   1485235  
  8900.000000   1485847   1486744   1487742   1488672   1489386  
  8890.000000   1489718   1489514   1488659   1487175   1485265  
  8880.000000   1483341   1481911   1481449   1482204   1484118  
  8870.000000   1486813   1489706   1492188   1493808   1494399  
  8860.000000   1494084   1493211   1492216   1491485   1491281  
  8850.000000   1491689   1492670   1494060   1495648   1497185  
  8840.000000   1498445   1499239   1499465   1499133   1498391  
  8830.000000   1497493   1496764   1496500   1496915   1498082  
  8820.000000   1499936   1502292   1504905   1507536   1510001  
  8810.000000   1512214   1514167   1515929   1517594   1519246  
  8800.000000   1520921   1522581   1524142   1525477   1526498  
  8790.000000   1527151   1527471   1527541   1527460   1527296  
  8780.000000   1527058   1526723   1526277   1525789   1525431  
  8770.000000   1525479   1526212   1527826   1530297   1533371  
  8760.000000   1536610   1539525   1541757   1543166   1543904  
  8750.000000   1544275   1544647   1545238   1546080   1546992  
  8740.000000   1547723   1548080   1548069   1547932   1548065  
  8730.000000   1548902   1550710   1553527   1557092   1560978  
  8720.000000   1564694   1567854   1570260   1571903   1572938  
  8710.000000   1573562   1573970   1574256   1574447   1574489  
  8700.000000   1574334   1573958   1573405   1572794   1572305  
  8690.000000   1572173   1572620   1573846   1575943   1578877  
  8680.000000   1582448   1586321   1590093   1593375   1595898  
  8670.000000   1597558   1598464   1598876   1599151   1599612  
  8660.000000   1600473   1601781   1603436   1605245   1606988  
  8650.000000   1608506   1609714   1610638   1611362   1612018  
  8640.000000   1612718   1613546   1614538   1615673   1616896  
  8630.000000   1618109   1619197   1620047   1620584   1620812  
  8620.000000   1620835   1620857   1621133   1621896   1623278  
  8610.000000   1625243   1627594   1630009   1632162   1633806  
  8600.000000   1634888   1635530   1636000   1636583   1637492  
  8590.000000   1638781   1640359   1642055   1643711   1645271  
  8580.000000   1646781   1648395   1650265   1652495   1655053  
  8570.000000   1657798   1660519   1662989   1665035   1666533  
  8560.000000   1667439   1667726   1667406   1666521   1665200  
  8550.000000   1663670   1662235   1661260   1661049   1661807  
  8540.000000   1663517   1666012   1668993   1672155   1675236  
  8530.000000   1678067   1680563   1682649   1684233   1685170  
  8520.000000   1685346   1684716   1683401   1681690   1680019  
  8510.000000   1678846   1678514   1679158   1680654   1682685  
  8500.000000   1684816   1686659   1687961   1688668   1688896  
  8490.000000   1688869   1688853   1689066   1689659   1690660  
  8480.000000   1692016   1693582   1695188   1696651   1697846  
  8470.000000   1698722   1699338   1699834   1700392   1701168  
  8460.000000   1702240   1703584   1705093   1706632   1708096  
  8450.000000   1709476   1710859   1712390   1714184   1716265  
  8440.000000   1718525   1720734   1722610   1723887   1724430  
  8430.000000   1724249   1723509   1722469   1721413   1720608  
  8420.000000   1720234   1720407   1721142   1722412   1724126  
  8410.000000   1726156   1728314   1730395   1732197   1733555  
  8400.000000   1734382   1734670   1734512   1734052   1733472  
  8390.000000   1732933   1732566   1732464   1732675   1733228  
  8380.000000   1734107   1735283   1736681   1738204   1739711  
  8370.000000   1741049   1742065   1742642   1742732   1742350  
  8360.000000   1741598   1740631   1739638   1738803   1738261  
  8350.000000   1738093   1738297   1738835   1739611   1740545  
  8340.000000   1741545   1742555   1743514   1744364   1745034  
  8330.000000   1745442   1745519   1745218   1744549   1743567  
  8320.000000   1742375   1741082   1739778   1738524   1737346  
  8310.000000   1736280   1735373   1734718   1734415   1734554  
  8300.000000   1735150   1736110   1737232   1738238   1738873  
  8290.000000   1738960   1738489   1737580   1736471   1735413  
  8280.000000   1734602   1734132   1733985   1734091   1734370  
  8270.000000   1734798   1735402   1736240   1737325   1738595  
  8260.000000   1739878   1740941   1741554   1741568   1740967  
  8250.000000   1739874   1738511   1737119   1735884   1734895  
  8240.000000   1734135   1733527   1732962   1732366   1731680  
  8230.000000   1730900   1730016   1729055   1728041   1727031  
  8220.000000   1726100   1725328   1724783   1724457   1724259  
  8210.000000   1723997   1723440   1722396   1720790   1718722  
  8200.000000   1716441   1714297   1712620   1711643   1711426  
  8190.000000   1711865   1712727   1713729   1714601   1715131  
  8180.000000   1715172   1714644   1713531   1711879   1709816  
  8170.000000   1707551   1705356   1703511   1702209   1701509  
  8160.000000   1701282   1701281   1701195   1700779   1699920  
  8150.000000   1698667   1697187   1695663   1694201   1692765  
  8140.000000   1691213   1689376   1687176   1684704   1682215  
  8130.000000   1680070   1678589   1677959   1678130   1678858  
  8120.000000   1679756   1680428   1680582   1680078   1678955  
  8110.000000   1677348   1675453   1673434   1671422   1669498  
  8100.000000   1667718   1666129   1664777   1663700   1662910  
  8090.000000   1662401   1662123   1662010   1661966   1661892  
  8080.000000   1661671   1661201   1660406   1659261   1657822  
  8070.000000   1656217   1654632   1653246   1652183   1651448  
  8060.000000   1650932   1650421   1649686   1648556   1646984  
  8050.000000   1645072   1643033   1641128   1639581   1638526  
  8040.000000   1637985   1637890   1638120   1638544   1639046  
  8030.000000   1639525   1639893   1640052   1639919   1639419  
  8020.000000   1638538   1637310   1635842   1634263   1632719  
  8010.000000   1631317   1630126   1629173   1628461   1627985  
  8000.000000   1627730   1627679   1627782   1627960   1628103  
  7990.000000   1628104   1627884   1627425   1626784   1626071  
  7980.000000   1625423   1624945   1624692   1624631   1624674  
  7970.000000   1624692   1624563   1624203   1623585   1622741  
  7960.000000   1621752   1620729   1619790   1619038   1618542  
  7950.000000   1618324   1618353   1618549   1618802   1619001  
  7940.000000   1619054   1618920   1618606   1618158   1617647  
  7930.000000   1617124   1616622   1616119   1615581   1614951  
  7920.000000   1614196   1613309   1612326   1611327   1610413  
  7910.000000   1609705   1609310   1609319   1609773   1610664  
  7900.000000   1611909   1613366   1614840   1616122   1617031  
  7890.000000   1617447   1617349   1616804   1615959   1614986  
  7880.000000   1614047   1613253   1612642   1612203   1611879  
  7870.000000   1611622   1611387   1611170   1610970   1610797  
  7860.000000   1610632   1610443   1610177   1609786   1609248  
  7850.000000   1608574   1607817   1607045   1606327   1605700  
  7840.000000   1605168   1604696   1604230   1603725   1603161  
  7830.000000   1602563   1601996   1601550   1601307   1601325  
  7820.000000   1601603   1602087   1602663   1603197   1603554  
  7810.000000   1603637   1603413   1602913   1602224   1601451  
  7800.000000   1600681   1599951   1599237   1598465   1597548  
  7790.000000   1596434   1595134   1593737   1592387   1591237  
  7780.000000   1590397   1589889   1589637   1589497   1589301  
  7770.000000   1588923   1588322   1587562   1586787   1586168  
  7760.000000   1585853   1585904   1586281   1586842   1587388  
  7750.000000   1587708   1587645   1587128   1586195   1584983  
  7740.000000   1583686   1582520   1581654   1581183   1581096  
  7730.000000   1581294   1581611   1581871   1581925   1581703  
  7720.000000   1581206   1580506   1579702   1578882   1578095  
  7710.000000   1577340   1576586   1575791   1574940   1574047  
  7700.000000   1573161   1572340   1571629   1571040   1570547  
  7690.000000   1570101   1569658   1569195   1568735   1568331  
  7680.000000   1568049   1567937   1568004   1568204   1568463  
  7670.000000   1568691   1568828   1568854   1568810   1568769  
  7660.000000   1568814   1568992   1569300   1569671   1570005  
  7650.000000   1570203   1570204   1570020   1569725   1569436  
  7640.000000   1569262   1569263   1569424   1569656   1569830  
  7630.000000   1569823   1569570   1569077   1568427   1567730  
  7620.000000   1567089   1566556   1566133   1565777   1565453  
  7610.000000   1565152   1564925   1564855   1565038   1565526  
  7600.000000   1566308   1567308   1568408   1569492   1570491  
  7590.000000   1571391   1572241   1573111   1574059   1575088  
  7580.000000   1576155   1577166   1578032   1578684   1579112  
  7570.000000   1579354   1579485   1579587   1579725   1579928  
  7560.000000   1580204   1580539   1580928   1581369   1581878  
  7550.000000   1582465   1583139   1583889   1584701   1585555  
  7540.000000   1586453   1587411   1588473   1589679   1591063  
  7530.000000   1592615   1594290   1596001   1597661   1599192  
  7520.000000   1600571   1601811   1602982   1604158   1605408  
  7510.000000   1606759   1608211   1609734   1611309   1612933  
  7500.000000   1614640   1616467   1618440   1620540   1622704  
  7490.000000   1624828   1626822   1628631   1630281   1631860  
  7480.000000   1633507   1635334   1637401   1639677   1642069  
  7470.000000   1644446   1646711   1648824   1650831   1652822  
  7460.000000   1654903   1657137   1659538   1662062   1664651  
  7450.000000   1667254   1669864   1672504   1675213   1678007  
  7440.000000   1680862   1683717   1686493   1689131   1691616  
  7430.000000   1693987   1696323   1698702   1701173   1703732  
  7420.000000   1706324   1708864   1711272   1713492   1715516  
  7410.000000   1717373   1719118   1720812   1722515   1724275  
  7400.000000   1726126   1728093   1730190   1732418   1734769  
  7390.000000   1737223   1739758   1742357   1745012   1747722  
  7380.000000   1750489   1753306   1756155   1759002   1761814  
  7370.000000   1764558   1767215   1769779   1772258   1774657  
  7360.000000   1776980   1779223   1781379   1783448   1785442  
  7350.000000   1787391   1789339   1791338   1793436   1795665  
  7340.000000   1798030   1800510   1803052   1805591   1808049  
  7330.000000   1810368   1812517   1814510   1816402   1818278  
  7320.000000   1820210   1822240   1824347   1826460   1828467  
  7310.000000   1830273   1831825   1833154   1834350   1835547  
  7300.000000   1836850   1838317   1839921   1841584   1843195  
  7290.000000   1844672   1845973   1847117   1848150   1849122  
  7280.000000   1850055   1850944   1851761   1852486   1853126  
  7270.000000   1853717   1854320   1854991   1855771   1856660  
  7260.000000   1857640   1858674   1859741   1860826   1861949  
  7250.000000   1863123   1864379   1865726   1867186   1868767  
  7240.000000   1870498   1872392   1874470   1876717   1879118  
  7230.000000   1881625   1884212   1886848   1889544   1892300  
  7220.000000   1895134   1898021   1900933   1903807   1906615  
  7210.000000   1909343   1912045   1914794   1917689   1920778  
  7200.000000   1924083   1927549   1931122   1934734   1938383  
  7190.000000   1942084   1945909   1949895   1954071   1958391  
  7180.000000   1962810   1967262   1971751   1976315   1981056  
  7170.000000   1986052   1991361   1996939   2002697   2008485  
  7160.000000   2014196   2019758   2025199   2030573   2035976  
  7150.000000   2041461   2047060   2052750   2058515   2064330  
  7140.000000   2070225   2076233   2082411   2088788   2095373  
  7130.000000   2102138   2109063   2116118   2123316   2130654  
  7120.000000   2138150   2145764   2153448   2161094   2168615  
  7110.000000   2175925   2183018   2189930   2196776   2203687  
  7100.000000   2210821   2218297   2226195   2234528   2243246  
  7090.000000   2252244   2261383   2270514   2279515   2288302  
  7080.000000   2296855   2305193   2313370   2321433   2329418  
  7070.000000   2337325   2345141   2352853   2360476   2368057  
  7060.000000   2375663   2383364   2391195   2399155   2407184  
  7050.000000   2415198   2423103   2430835   2438361   2445695  
  7040.000000   2452878   2459976   2467049   2474165   2481365  
  7030.000000   2488684   2496107   2503601   2511081   2518460  
  7020.000000   2525641   2532574   2539240   2545674   2551920  
  7010.000000   2558030   2564011   2569860   2575542   2581052  
  7000.000000   2586407   2591681   2596948   2602292   2607723  
  6990.000000   2613215   2618660   2623958   2629005   2633770  
  6980.000000   2638258   2642537   2646666   2650707   2654667  
  6970.000000   2658548   2662311   2665945   2669426   2672770  
  6960.000000   2675979   2679080   2682085   2685028   2687920  
  6950.000000   2690789   2693624   2696406   2699074   2701578  
  6940.000000   2703870   2705961   2707902   2709794   2711726  
  6930.000000   2713761   2715878   2718004   2720018   2721827  
  6920.000000   2723387   2724741   2725986   2727241   2728580  
  6910.000000   2730022   2731506   2732950   2734273   2735452  
  6900.000000   2736512   2737523   2738548   2739623   2740732  
  6890.000000   2741828   2742852   2743775   2744603   2745380  
  6880.000000   2746161   2746989   2747879   2748820   2749781  
  6870.000000   2750738   2751672   2752585   2753482   2754370  
  6860.000000   2755253   2756137   2757032   2757955   2758917  
  6850.000000   2759914   2760917   2761872   2762717   2763407  
  6840.000000   2763935   2764349   2764729   2765171   2765739  
  6830.000000   2766454   2767277   2768140   2768962   2769688  
  6820.000000   2770294   2770794   2771210   2771567   2771873  
  6810.000000   2772125   2772312   2772437   2772506   2772538  
  6800.000000   2772545   2772540   2772520   2772487   2772442  
  6790.000000   2772398   2772359   2772325   2772267   2772141  
  6780.000000   2771890   2771472   2770876   2770138   2769325  
  6770.000000   2768527   2767815   2767236   2766791   2766460  
  6760.000000   2766198   2765966   2765725   2765446   2765099  
  6750.000000   2764659   2764103   2763426   2762635   2761761  
  6740.000000   2760833   2759879   2758908   2757911   2756873  
  6730.000000   2755793   2754685   2753588   2752538   2751560  
  6720.000000   2750639   2749733   2748780   2747734   2746581  
  6710.000000   2745349   2744085   2742841   2741635   2740459  
  6700.000000   2739274   2738051   2736784   2735510   2734280  
  6690.000000   2733146   2732115   2731150   2730166   2729079  
  6680.000000   2727828   2726413   2724880   2723309   2721759  
  6670.000000   2720256   2718766   2717227   2715571   2713772  
  6660.000000   2711845   2709860   2707897   2706029   2704283  
  6650.000000   2702652   2701084   2699517   2697887   2696148  
  6640.000000   2694273   2692258   2690119   2687898   2685652  
  6630.000000   2683451   2681355   2679400   2677585   2675871  
  6620.000000   2674195   2672496   2670734   2668910   2667047  
  6610.000000   2665182   2663336   2661502   2659648   2657733  
  6600.000000   2655733   2653653   2651531   2649416   2647349  
  6590.000000   2645339   2643363   2641380   2639353   2637273  
  6580.000000   2635163   2633073   2631052   2629130   2627307  
  6570.000000   2625549   2623812   2622055   2620262   2618443  
  6560.000000   2616631   2614861   2613167   2611568   2610067  
  6550.000000   2608652   2607302   2605987   2604675   2603335  
  6540.000000   2601958   2600551   2599152   2597816   2596595  
  6530.000000   2595516   2594569   2593700   2592831   2591885  
  6520.000000   2590815   2589621   2588347   2587057   2585812  
  6510.000000   2584641   2583540   2582475   2581405   2580302  
  6500.000000   2579162   2578005   2576859   2575749   2574685  
  6490.000000   2573660   2572657   2571660   2570655   2569634  
  6480.000000   2568589   2567512   2566394   2565235   2564045  
  6470.000000   2562850   2561679   2560559   2559498   2558480  
  6460.000000   2557471   2556428   2555323   2554148   2552918  
  6450.000000   2551664   2550416   2549193   2547998   2546825  
  6440.000000   2545670   2544537   2543440   2542398   2541423  
  6430.000000   2540509   2539633   2538760   2537856   2536901  
  6420.000000   2535893   2534845   2533780   2532717   2531673  
  6410.000000   2530654   2529670   2528724   2527825   2526970  
  6400.000000   2526151   2525350   2524541   2523708   2522846  
  6390.000000   2521970   2521107   2520284   2519518   2518807  
  6380.000000   2518131   2517461   2516773   2516056   2515312  
  6370.000000   2514554   2513794   2513040   2512290   2511548  
  6360.000000   2510821   2510129   2509490   2508917   2508401  
  6350.000000   2507905   2507373   2506743   2505971   2505045  
  6340.000000   2503988   2502857   2501712   2500614   2499596  
  6330.000000   2498672   2497831   2497053   2496308   2495571  
  6320.000000   2494806   2493990   2493089   2492094   2491000  
  6310.000000   2489831   2488614   2487390   2486179   2484986  
  6300.000000   2483786   2482540   2481198   2479723   2478089  
  6290.000000   2476306   2474391   2472391   2470347   2468313  
  6280.000000   2466324   2464413   2462580   2460812   2459061  
  6270.000000   2457272   2455378   2453332   2451104   2448701  
  6260.000000   2446146   2443492   2440785   2438075   2435394  
  6250.000000   2432772   2430219   2427749   2425355   2423027  
  6240.000000   2420733   2418436   2416092   2413671   2411155  
  6230.000000   2408548   2405868   2403144   2400404   2397667  
  6220.000000   2394945   2392246   2389574   2386941   2384356  
  6210.000000   2381829   2379364   2376956   2374593   2372259  
  6200.000000   2369938   2367619   2365290   2362947   2360586  
  6190.000000   2358210   2355830   2353459   2351119   2348822  
  6180.000000   2346572   2344357   2342150   2339926   2337668  
  6170.000000   2335381   2333093   2330844   2328673   2326600  
  6160.000000   2324617   2322688   2320770   2318821   2316825  
  6150.000000   2314787   2312738   2310707   2308718   2306774  
  6140.000000   2304865   2302965   2301062   2299144   2297223  
  6130.000000   2295314   2293441   2291624   2289887   2288244  
  6120.000000   2286714   2285297   2283992   2282770   2281599  
  6110.000000   2280431   2279237   2278000   2276740   2275493  
  6100.000000   2274312   2273234   2272287   2271459   2270730  
  6090.000000   2270061   2269428   2268814   2268228   2267675  
  6080.000000   2267178   2266741   2266380   2266092   2265890  
  6070.000000   2265768   2265729   2265752   2265821   2265901  
  6060.000000   2265982   2266053   2266145   2266288   2266538  
  6050.000000   2266922   2267464   2268150   2268966   2269880  
  6040.000000   2270888   2271983   2273181   2274486   2275905  
  6030.000000   2277419   2279016   2280673   2282390   2284168  
  6020.000000   2286021   2287947   2289935   2291949   2293950  
  6010.000000   2295898   2297781   2299602   2301395   2303185  
  6000.000000   2304995   2306816   2308629   2310404   2312125  
  5990.000000   2313796   2315448   2317119   2318846   2320643  
  5980.000000   2322505   2324410   2326340   2328285   2330256  
  5970.000000   2332275   2334366   2336540   2338792   2341098  
  5960.000000   2343431   2345764   2348083   2350377   2352646  
  5950.000000   2354878   2357065   2359188   2361248   2363249  
  5940.000000   2365223   2367207   2369245   2371367   2373590  
  5930.000000   2375908   2378304   2380755   2383241   2385747  
  5920.000000   2388263   2390779   2393288   2395778   2398239  
  5910.000000   2400661   2403043   2405377   2407665   2409902  
  5900.000000   2412092   2414243   2416371   2418501   2420660  
  5890.000000   2422873   2425147   2427477   2429843   2432218  
  5880.000000   2434580   2436911   2439206   2441461   2443673  
  5870.000000   2445830   2447920   2449928   2451859   2453725  
  5860.000000   2455565   2457417   2459330   2461330   2463440  
  5850.000000   2465662   2468000   2470450   2473017   2475703  
  5840.000000   2478507   2481421   2484432   2487523   2490677  
  5830.000000   2493884   2497135   2500421   2503716   2506989  
  5820.000000   2510189   2513268   2516176   2518887   2521380  
  5810.000000   2523663   2525732   2527605   2529276   2530764  
  5800.000000   2532067   2533225   2534249   2535188   2536041  
  5790.000000   2536826   2537505   2538059   2538430   2538591  
  5780.000000   2538499   2538146   2537513   2536613   2535453  
  5770.000000   2534075   2532524   2530870   2529182   2527529  
  5760.000000   2525957   2524497   2523156   2521937   2520840  
  5750.000000   2519879   2519071   2518431   2517966   2517657  
  5740.000000   2517470   2517355   2517271   2517180   2517077  
  5730.000000   2516960   2516852   2516767   2516727   2516740  
  5720.000000   2516824   2516982   2517228   2517562   2517983  
  5710.000000   2518470   2519003   2519554   2520108   2520654  
  5700.000000   2521199   2521749   2522315   2522898   2523495  
  5690.000000   2524103   2524718   2525353   2526018   2526733  
  5680.000000   2527498   2528310   2529138   2529948   2530691  
  5670.000000   2531330   2531826   2532158   2532306   2532264  
  5660.000000   2532033   2531634   2531096   2530470   2529803  
  5650.000000   2529142   2528513   2527928   2527378   2526857  
  5640.000000   2526353   2525872   2525418   2525004   2524626  
  5630.000000   2524273   2523925   2523563   2523181   2522787  
  5620.000000   2522402   2522052   2521753   2521504   2521286  
  5610.000000   2521074   2520843   2520581   2520287   2519974  
  5600.000000   2519650   2519320   2518976   2518607   2518200  
  5590.000000   2517749   2517249   2516701   2516093   2515416  
  5580.000000   2514645   2513769   2512784   2511710   2510574  
  5570.000000   2509417   2508266   2507139   2506030   2504930  
  5560.000000   2503824   2502713   2501601   2500503   2499429  
  5550.000000   2498382   2497352   2496327   2495293   2494247  
  5540.000000   2493197   2492157   2491138   2490142   2489161  
  5530.000000   2488185   2487200   2486208   2485217   2484243  
  5520.000000   2483302   2482404   2481545   2480712   2479885  
  5510.000000   2479043   2478166   2477238   2476244   2475178  
  5500.000000   2474037   2472838   2471605   2470378   2469188  
  5490.000000   2468060   2466983   2465931   2464851   2463699  
  5480.000000   2462436   2461054   2459563   2457994   2456371  
  5470.000000   2454715   2453027   2451304   2449537   2447724  
  5460.000000   2445869   2443980   2442059   2440108   2438119  
  5450.000000   2436091   2434025   2431939   2429856   2427803  
  5440.000000   2425798   2423847   2421951   2420101   2418294  
  5430.000000   2416523   2414789   2413078   2411384   2409690  
  5420.000000   2408004   2406339   2404751   2403293   2402035  
  5410.000000   2400998   2400185   2399541   2399020   2398561  
  5400.000000   2398163   2397832   2397627   2397582   2397744  
  5390.000000   2398096   2398627   2399288   2400071   2400959  
  5380.000000   2401991   2403177   2404555   2406104   2407833  
  5370.000000   2409694   2411702   2413833   2416137   2418609  
  5360.000000   2421305   2424203   2427350   2430725   2434406  
  5350.000000   2438409   2442846   2447734   2453155   2459065  
  5340.000000   2465490   2472345   2479669   2487412   2495659  
  5330.000000   2504381   2513665   2523452   2533799   2544629  
  5320.000000   2556022   2567945   2580534   2593788   2607856  
  5310.000000   2622703   2638427   2654941   2672310   2690451  
  5300.000000   2709457   2729292   2750092   2771850   2794694  
  5290.000000   2818576   2843535   2869419   2896152   2923523  
  5280.000000   2951454   2979826   3008697   3038110   3068215  
  5270.000000   3099067   3130677   3162895   3195476   3228121  
  5260.000000   3260550   3292610   3324233   3355491   3386419  
  5250.000000   3417078   3447348   3477124   3506135   3534270  
  5240.000000   3561347   3587446   3612559   3636888   3660439  
  5230.000000   3683345   3705477   3726828   3747174   3766493  
  5220.000000   3784623   3801673   3817626   3832704   3846948  
  5210.000000   3860560   3873488   3885798   3897307   3908005  
  5200.000000   3917720   3926524   3934370   3941436   3947729  
  5190.000000   3953404   3958404   3962799   3966481   3969506  
  5180.000000   3971800   3973462   3974454   3974873   3974659  
  5170.000000   3973869   3972440   3970446   3967876   3964852  
  5160.000000   3961391   3957596   3953442   3948972   3944132  
  5150.000000   3938965   3933454   3927684   3921669   3915483  
  5140.000000   3909105   3902556   3895781   3888790   3881563  
  5130.000000   3874150   3866570   3858887   3851112   3843277  
  5120.000000   3835369   3827404   3819377   3811313   3803220  
  5110.000000   3795120   3787004   3778873   3770711   3762523  
  5100.000000   3754311   3746105   3737923   3729789   3721702  
  5090.000000   3713659   3705643   3697647   3689668   3681717  
  5080.000000   3673804   3665939   3658111   3650308   3642506  
  5070.000000   3634691   3626853   3619000   3611139   3603278  
  5060.000000   3595411   3587525   3579595   3571609   3563560  
  5050.000000   3555465   3547346   3539234   3531149   3523102  
  5040.000000   3515091   3507105   3499138   3491184   3483251  
  5030.000000   3475344   3467476   3459653   3451884   3444169  
  5020.000000   3436526   3428964   3421515   3414192   3407030  
  5010.000000   3400027   3393201   3386530   3380022   3373653  
  5000.000000   3367439   3361369   3355479   3349770   3344286  
  4990.000000   3339026   3334034   3329298   3324855   3320680  
  4980.000000   3316805   3313200   3309897   3306871   3304166  
  4970.000000   3301766   3299723   3298017   3296691   3295705  
  4960.000000   3295087   3294786   3294832   3295188   3295899  
  4950.000000   3296944   3298376   3300169   3302359   3304901  
  4940.000000   3307814   3311044   3314609   3318456   3322608  
  4930.000000   3327017   3331704   3336627   3341815   3347237  
  4920.000000   3352934   3358888   3365140   3371667   3378495  
  4910.000000   3385589   3392954   3400552   3408382   3416409  
  4900.000000   3424632   3433019   3441569   3450252   3459063  
  4890.000000   3467978   3476984   3486056   3495166   3504277  
  4880.000000   3513351   3522353   3531247   3540014   3548627  
  4870.000000   3557075   3565330   3573378   3581187   3588750  
  4860.000000   3596046   3603096   3609898   3616493   3622885  
  4850.000000   3629113   3635170   3641084   3646839   3652458  
  4840.000000   3657924   3663258   3668443   3673496   3678404  
  4830.000000   3683191   3687852   3692423   3696902   3701316  
  4820.000000   3705646   3709893   3714019   3718010   3721830  
  4810.000000   3725477   3728935   3732219   3735326   3738278  
  4800.000000   3741075   3743739   3746272   3748697   3751014  
  4790.000000   3753246   3755386   3757455   3759448   3761391  
  4780.000000   3763287   3765165   3767019   3768857   3770642  
  4770.000000   3772347   3773915   3775316   3776512   3777511  
  4760.000000   3778313   3778960   3779465   3779867   3780163  
  4750.000000   3780374   3780478   3780483   3780362   3780119  
  4740.000000   3779722   3779169   3778432   3777516   3776408  
  4730.000000   3775132   3773694   3772125   3770427   3768615  
  4720.000000   3766677   3764616   3762427   3760133   3757756  
  4710.000000   3755345   3752937   3750578   3748286   3746076  
  4700.000000   3743940   3741870   3739847   3737862   3735904  
  4690.000000   3733968   3732046   3730132   3728213   3726275  
  4680.000000   3724303   3722275   3720176   3717982   3715685  
  4670.000000   3713273   3710762   3708170   3705545   3702934  
  4660.000000   3700401   3697996   3695765   3693729   3691902  
  4650.000000   3690271   3688829   3687551   3686425   3685431  
  4640.000000   3684563   3683806   3683162   3682620   3682183  
  4630.000000   3681837   3681573   3681362   3681182   3680991  
  4620.000000   3680765   3680475   3680114   3679684   3679202  
  4610.000000   3678685   3678158   3677634   3677125   3676637  
  4600.000000   3676172   3675733   3675322   3674942   3674591  
  4590.000000   3674269   3673966   3673675   3673385   3673087  
  4580.000000   3672770   3672427   3672051   3671637   3671182  
  4570.000000   3670687   3670157   3669603   3669033   3668461  
  4560.000000   3667890   3667325   3666759   3666184   3665589  
  4550.000000   3664957   3664280   3663545   3662753   3661902  
  4540.000000   3661015   3660107   3659218   3658374   3657618  
  4530.000000   3656961   3656437   3656036   3655785   3655667  
  4520.000000   3655723   3655943   3656386   3657050   3658009  
  4510.000000   3659261   3660892   3662906   3665402   3668387  
  4500.000000   3671958   3676104   3680904   3686323   3692422  
  4490.000000   3699157   3706590   3714679   3723485   3732954  
  4480.000000   3743124   3753920   3765354   3777343   3789896  
  4470.000000   3802934   3816457   3830380   3844673   3859233  
  4460.000000   3874007   3888896   3903850   3918800   3933716  
  4450.000000   3948550   3963272   3977844   3992231   4006414  
  4440.000000   4020370   4034118   4047650   4061013   4074191  
  4430.000000   4087227   4100076   4112763   4125209   4137423  
  4420.000000   4149299   4160829   4171887   4182453   4192390  
  4410.000000   4201681   4210194   4217928   4224773   4230747  
  4400.000000   4235769   4239882   4243046   4245338   4246775  
  4390.000000   4247478   4247516   4247041   4246149   4244987  
  4380.000000   4243650   4242261   4240908   4239702   4238741  
  4370.000000   4238136   4237992   4238401   4239441   4241144  
  4360.000000   4243527   4246546   4250155   4254256   4258765  
  4350.000000   4263571   4268590   4273742   4278986   4284298  
  4340.000000   4289686   4295158   4300708   4306283   4311765  
  4330.000000   4316975   4321681   4325656   4328718   4330796  
  4320.000000   4331936   4332337   4332263   4332042   4331932  
  4310.000000   4332150   4332757   4333762   4335055   4336541  
  4300.000000   4338087   4339626   4341083   4342438   4343651  
  4290.000000   4344709   4345582   4346262   4346744   4347053  
  4280.000000   4347212   4347271   4347259   4347224   4347177  
  4270.000000   4347154   4347144   4347156   4347139   4347039  
  4260.000000   4346744   4346145   4345116   4343579   4341494  
  4250.000000   4338907   4335909   4332653   4329290   4325974  
  4240.000000   4322805   4319854   4317129   4314623   4312290  
  4230.000000   4310092   4307973   4305887   4303781   4301603  
  4220.000000   4299313   4296875   4294290   4291571   4288776  
  4210.000000   4285963   4283221   4280616   4278220   4276067  
  4200.000000   4274183   4272556   4271173   4269984   4268959  
  4190.000000   4268028   4267168   4266322   4265500   4264680  
  4180.000000   4263925   4263253   4262765   4262501   4262576  
  4170.000000   4263027   4263963   4265405   4267443   4270071  
  4160.000000   4273347   4277227   4281736   4286796   4292423  
  4150.000000   4298535   4305161   4312238   4319817   4327855  
  4140.000000   4336420   4345479   4355105   4365261   4376006  
  4130.000000   4387284   4399124   4411453   4424280   4437530  
  4120.000000   4451220   4465299   4479801   4494694   4510013  
  4110.000000   4525722   4541835   4558295   4575088   4592143  
  4100.000000   4609434   4626904   4644546   4662337   4680296  
  4090.000000   4698426   4716739   4735225   4753863   4772624  
  4080.000000   4791468   4810381   4829339   4848359   4867418  
  4070.000000   4886521   4905603   4924635   4943514   4962210  
  4060.000000   4980631   4998782   5016581   5034040   5051054  
  4050.000000   5067627   5083647   5099146   5114038   5128391  
  4040.000000   5142114   5155251   5167660   5179348   5190156  
  4030.000000   5200117   5209109   5217206   5224312   5230479  
  4020.000000   5235563   5239604   5242532   5244429   5245237  
  4010.000000   5245146   5244271   5242701   5240238   5237010  
  4000.000000   5233397  
##END= 
