##TITLE= Sample 005 By ssteindl date Dienstag, November 20 2018
##JCAMP-DX= 4.24
##DATA TYPE= INFRARED SPECTRUM
##ORIGIN= Exported PE Spectrum Data File
##OWNER= Sandra Steindl
##DATE= 18/11/20
##TIME= 09:56:07.00
##SPECTROMETER/DATA SYSTEM= PERKIN-ELMER Frontier FT-IR/NIR IR
##INSTRUMENT PARAMETERS=
  APODIZATION=stark
  DETECTOR=INGAAS
##RESOLUTION= 16.000000
##DELTAX= -2.000000
##XUNITS= 1/CM
##YUNITS= A
##XFACTOR= 1.00
##YFACTOR= 0.00000011920928955078
##FIRSTX= 10000.00
##LASTX= 4000.00
##NPOINTS= 3001
##FIRSTY= 0.235599
##MAXY= 0.600399
##MINY= 0.196310
##XYDATA= (X++(Y..Y))
 10000.000000   1976343   1974471   1972621   1970984   1969751  
  9990.000000   1968835   1967693   1965662   1962454   1958282  
  9980.000000   1953778   1949618   1946330   1943966   1942076  
  9970.000000   1939862   1936574   1931843   1925968   1919844  
  9960.000000   1914805   1912100   1912508   1915988   1921618  
  9950.000000   1927878   1933080   1935968   1936140   1934185  
  9940.000000   1931527   1929876   1930644   1934354   1940414  
  9930.000000   1947240   1952760   1955128   1953330   1947611  
  9920.000000   1939324   1930581   1923463   1919477   1919073  
  9910.000000   1921633   1925700   1929444   1931191   1929832  
  9900.000000   1925062   1917368   1907856   1897959   1889162  
  9890.000000   1882681   1879271   1878994   1881277   1884996  
  9880.000000   1888879   1891845   1893359   1893541   1893036  
  9870.000000   1892722   1893318   1895114   1897891   1901051  
  9860.000000   1903959   1906218   1907855   1909213   1910703  
  9850.000000   1912496   1914362   1915687   1915730   1913893  
  9840.000000   1910039   1904522   1898147   1891884   1886609  
  9830.000000   1882936   1881077   1881004   1882438   1885105  
  9820.000000   1888671   1892860   1897348   1901801   1905871  
  9810.000000   1909217   1911561   1912641   1912290   1910380  
  9800.000000   1906931   1902146   1896456   1890548   1885177  
  9790.000000   1881090   1878703   1878081   1878848   1880353  
  9780.000000   1881842   1882618   1882205   1880313   1876893  
  9770.000000   1872012   1865948   1859134   1852288   1846315  
  9760.000000   1842221   1840824   1842514   1847086   1853741  
  9750.000000   1861318   1868586   1874564   1878746   1881093  
  9740.000000   1881984   1881922   1881426   1880842   1880383  
  9730.000000   1880161   1880216   1880599   1881277   1882234  
  9720.000000   1883366   1884622   1885912   1887198   1888326  
  9710.000000   1889035   1888839   1887172   1883547   1877833  
  9700.000000   1870443   1862357   1854889   1849294   1846295  
  9690.000000   1845794   1846885   1848177   1848352   1846607  
  9680.000000   1842964   1838134   1833207   1829169   1826594  
  9670.000000   1825525   1825644   1826542   1827984   1829997  
  9660.000000   1832766   1836427   1840801   1845378   1849376  
  9650.000000   1852038   1852901   1851915   1849491   1846191  
  9640.000000   1842606   1839029   1835508   1831848   1827823  
  9630.000000   1823335   1818508   1813725   1809514   1806463  
  9620.000000   1805044   1805572   1808083   1812351   1817846  
  9610.000000   1823813   1829415   1833904   1836873   1838313  
  9600.000000   1838668   1838587   1838759   1839562   1841008  
  9590.000000   1842677   1843961   1844290   1843371   1841348  
  9580.000000   1838676   1836054   1834083   1833211   1833531  
  9570.000000   1834923   1837044   1839503   1841868   1843739  
  9560.000000   1844744   1844587   1843104   1840318   1836484  
  9550.000000   1832025   1827448   1823186   1819503   1816473  
  9540.000000   1814002   1811968   1810251   1808855   1807819  
  9530.000000   1807232   1807118   1807402   1807924   1808418  
  9520.000000   1808641   1808332   1807344   1805565   1803023  
  9510.000000   1799850   1796345   1792950   1790178   1788531  
  9500.000000   1788338   1789687   1792371   1795938   1799782  
  9490.000000   1803246   1805763   1806908   1806519   1804647  
  9480.000000   1801622   1797925   1794180   1791005   1788896  
  9470.000000   1788134   1788665   1790214   1792342   1794699  
  9460.000000   1797083   1799510   1802062   1804732   1807292  
  9450.000000   1809258   1810031   1809107   1806325   1801999  
  9440.000000   1796876   1791954   1788148   1786040   1785710  
  9430.000000   1786771   1788566   1790364   1791545   1791658  
  9420.000000   1790399   1787632   1783398   1778054   1772335  
  9410.000000   1767327   1764247   1764078   1767173   1773036  
  9400.000000   1780335   1787267   1792095   1793713   1792005  
  9390.000000   1787798   1782520   1777585   1773950   1771819  
  9380.000000   1770793   1770131   1769181   1767658   1765719  
  9370.000000   1763861   1762558   1762107   1762420   1763208  
  9360.000000   1764096   1764842   1765408   1765877   1766371  
  9350.000000   1766860   1767169   1766990   1766071   1764309  
  9340.000000   1761868   1759089   1756387   1754086   1752311  
  9330.000000   1751027   1750082   1749396   1748978   1748978  
  9320.000000   1749557   1750806   1752633   1754713   1756564  
  9310.000000   1757632   1757526   1756053   1753367   1749834  
  9300.000000   1746011   1742452   1739602   1737722   1736859  
  9290.000000   1736926   1737761   1739226   1741236   1743753  
  9280.000000   1746712   1749911   1752981   1755413   1756734  
  9270.000000   1756643   1755169   1752706   1749949   1747729  
  9260.000000   1746742   1747351   1749470   1752646   1756228  
  9250.000000   1759539   1762001   1763209   1762938   1761164  
  9240.000000   1758021   1753847   1749174   1744767   1741480  
  9230.000000   1740088   1740953   1743911   1748182   1752639  
  9220.000000   1756076   1757588   1756808   1753967   1749771  
  9210.000000   1745033   1740397   1736116   1732147   1728294  
  9200.000000   1724476   1720849   1717830   1715937   1715540  
  9190.000000   1716682   1718980   1721756   1724242   1725854  
  9180.000000   1726376   1725956   1725054   1724230   1724009  
  9170.000000   1724692   1726292   1728567   1731106   1733434  
  9160.000000   1735101   1735755   1735247   1733642   1731226  
  9150.000000   1728399   1725558   1722967   1720673   1718551  
  9140.000000   1716389   1714077   1711719   1709711   1708614  
  9130.000000   1708938   1710872   1714154   1718085   1721683  
  9120.000000   1723998   1724422   1722941   1720096   1716802  
  9110.000000   1714052   1712639   1712936   1714804   1717710  
  9100.000000   1720927   1723759   1725673   1726398   1725906  
  9090.000000   1724380   1722123   1719492   1716850   1714491  
  9080.000000   1712630   1711326   1710513   1710013   1709603  
  9070.000000   1709120   1708482   1707782   1707207   1707033  
  9060.000000   1707480   1708658   1710505   1712788   1715172  
  9050.000000   1717254   1718684   1719204   1718736   1717359  
  9040.000000   1715303   1712891   1710477   1708381   1706819  
  9030.000000   1705883   1705529   1705634   1706010   1706497  
  9020.000000   1706935   1707236   1707331   1707188   1706795  
  9010.000000   1706166   1705376   1704509   1703674   1702917  
  9000.000000   1702238   1701543   1700709   1699612   1698231  
  8990.000000   1696684   1695220   1694168   1693798   1694257  
  8980.000000   1695490   1697275   1699305   1701278   1703012  
  8970.000000   1704421   1705506   1706254   1706588   1706373  
  8960.000000   1705476   1703896   1701854   1699798   1698291  
  8950.000000   1697824   1698602   1700445   1702777   1704810  
  8940.000000   1705794   1705290   1703320   1700336   1697054  
  8930.000000   1694211   1692351   1691675   1692041   1693082  
  8920.000000   1694381   1695624   1696646   1697443   1698085  
  8910.000000   1698665   1699218   1699734   1700184   1700520  
  8900.000000   1700727   1700763   1700612   1700213   1699537  
  8890.000000   1698569   1697361   1696025   1694696   1693525  
  8880.000000   1692627   1692104   1692032   1692508   1693624  
  8870.000000   1695453   1697958   1700940   1704012   1706662  
  8860.000000   1708404   1708907   1708141   1706376   1704123  
  8850.000000   1701938   1700243   1699199   1698704   1698501  
  8840.000000   1698333   1698077   1697777   1697583   1697624  
  8830.000000   1697897   1698242   1698393   1698138   1697435  
  8820.000000   1696502   1695738   1695580   1696332   1698027  
  8810.000000   1700450   1703204   1705899   1708271   1710243  
  8800.000000   1711884   1713274   1714418   1715170   1715307  
  8790.000000   1714616   1713057   1710807   1708262   1705908  
  8780.000000   1704168   1703301   1703316   1704051   1705210  
  8770.000000   1706528   1707809   1708977   1710034   1711010  
  8760.000000   1711939   1712815   1713627   1714326   1714877  
  8750.000000   1715213   1715285   1715044   1714497   1713718  
  8740.000000   1712864   1712170   1711865   1712134   1713009  
  8730.000000   1714397   1716063   1717745   1719193   1720263  
  8720.000000   1720916   1721201   1721212   1721018   1720661  
  8710.000000   1720129   1719421   1718520   1717453   1716241  
  8700.000000   1714940   1713601   1712303   1711150   1710287  
  8690.000000   1709886   1710100   1711036   1712707   1715031  
  8680.000000   1717847   1720956   1724187   1727393   1730476  
  8670.000000   1733317   1735802   1737775   1739124   1739786  
  8660.000000   1739834   1739471   1739006   1738784   1739074  
  8650.000000   1740036   1741649   1743795   1746247   1748784  
  8640.000000   1751173   1753240   1754842   1755881   1756310  
  8630.000000   1756142   1755496   1754546   1753517   1752587  
  8620.000000   1751876   1751397   1751089   1750884   1750759  
  8610.000000   1750813   1751211   1752166   1753807   1756132  
  8600.000000   1758957   1761961   1764787   1767123   1768811  
  8590.000000   1769833   1770325   1770462   1770431   1770340  
  8580.000000   1770246   1770151   1770057   1769997   1770034  
  8570.000000   1770281   1770845   1771840   1773312   1775266  
  8560.000000   1777605   1780175   1782751   1785087   1786965  
  8550.000000   1788229   1788850   1788900   1788551   1787994  
  8540.000000   1787395   1786845   1786366   1785942   1785565  
  8530.000000   1785276   1785170   1785371   1785968   1786967  
  8520.000000   1788255   1789637   1790900   1791885   1792570  
  8510.000000   1793051   1793537   1794238   1795306   1796764  
  8500.000000   1798503   1800331   1802042   1803491   1804641  
  8490.000000   1805552   1806361   1807201   1808164   1809238  
  8480.000000   1810321   1811246   1811855   1812045   1811817  
  8470.000000   1811312   1810769   1810505   1810782   1811795  
  8460.000000   1813577   1816015   1818837   1821692   1824227  
  8450.000000   1826149   1827272   1827531   1826998   1825829  
  8440.000000   1824241   1822460   1820715   1819211   1818112  
  8430.000000   1817532   1817512   1818038   1819012   1820303  
  8420.000000   1821721   1823099   1824287   1825204   1825831  
  8410.000000   1826213   1826447   1826633   1826849   1827108  
  8400.000000   1827377   1827566   1827583   1827356   1826886  
  8390.000000   1826240   1825533   1824893   1824403   1824103  
  8380.000000   1823965   1823950   1824019   1824204   1824573  
  8370.000000   1825226   1826201   1827453   1828808   1830010  
  8360.000000   1830778   1830899   1830306   1829095   1827493  
  8350.000000   1825766   1824142   1822735   1821540   1820456  
  8340.000000   1819360   1818168   1816883   1815590   1814412  
  8330.000000   1813480   1812877   1812637   1812738   1813125  
  8320.000000   1813730   1814477   1815309   1816159   1816978  
  8310.000000   1817698   1818276   1818661   1818822   1818725  
  8300.000000   1818347   1817703   1816864   1815986   1815282  
  8290.000000   1815001   1815326   1816334   1817899   1819730  
  8280.000000   1821393   1822458   1822612   1821765   1820059  
  8270.000000   1817821   1815446   1813274   1811494   1810111  
  8260.000000   1808991   1807946   1806824   1805573   1804228  
  8250.000000   1802893   1801653   1800567   1799612   1798738  
  8240.000000   1797891   1797057   1796273   1795606   1795125  
  8230.000000   1794847   1794719   1794612   1794361   1793804  
  8220.000000   1792840   1791449   1789704   1787748   1785752  
  8210.000000   1783885   1782258   1780926   1779872   1779038  
  8200.000000   1778343   1777710   1777073   1776392   1775623  
  8190.000000   1774735   1773684   1772444   1771016   1769453  
  8180.000000   1767867   1766396   1765175   1764265   1763634  
  8170.000000   1763126   1762506   1761519   1759982   1757857  
  8160.000000   1755276   1752523   1749950   1747895   1746580  
  8150.000000   1746075   1746267   1746911   1747685   1748271  
  8140.000000   1748419   1747980   1746927   1745328   1743335  
  8130.000000   1741128   1738886   1736749   1734806   1733091  
  8120.000000   1731612   1730360   1729336   1728544   1727970  
  8110.000000   1727559   1727197   1726724   1725982   1724861  
  8100.000000   1723376   1721660   1719974   1718602   1717778  
  8090.000000   1717585   1717928   1718568   1719214   1719630  
  8080.000000   1719719   1719539   1719259   1719061   1719049  
  8070.000000   1719203   1719378   1719377   1719036   1718298  
  8060.000000   1717238   1716036   1714895   1713971   1713305  
  8050.000000   1712824   1712367   1711759   1710867   1709648  
  8040.000000   1708154   1706507   1704868   1703386   1702170  
  8030.000000   1701269   1700669   1700298   1700048   1699807  
  8020.000000   1699488   1699061   1698560   1698072   1697707  
  8010.000000   1697543   1697598   1697801   1698023   1698110  
  8000.000000   1697948   1697497   1696807   1695992   1695182  
  7990.000000   1694476   1693912   1693466   1693080   1692697  
  7980.000000   1692290   1691867   1691452   1691065   1690692  
  7970.000000   1690295   1689827   1689267   1688640   1688012  
  7960.000000   1687476   1687104   1686919   1686881   1686902  
  7950.000000   1686881   1686740   1686458   1686068   1685637  
  7940.000000   1685239   1684922   1684699   1684548   1684434  
  7930.000000   1684322   1684192   1684035   1683843   1683609  
  7920.000000   1683324   1682990   1682630   1682289   1682031  
  7910.000000   1681908   1681948   1682126   1682378   1682615  
  7900.000000   1682758   1682769   1682660   1682492   1682345  
  7890.000000   1682292   1682367   1682565   1682847   1683157  
  7880.000000   1683450   1683692   1683869   1683966   1683965  
  7870.000000   1683827   1683512   1682990   1682271   1681412  
  7860.000000   1680525   1679758   1679251   1679115   1679383  
  7850.000000   1680018   1680902   1681884   1682805   1683541  
  7840.000000   1684025   1684240   1684216   1683993   1683612  
  7830.000000   1683094   1682464   1681744   1680987   1680267  
  7820.000000   1679669   1679272   1679103   1679147   1679326  
  7810.000000   1679546   1679711   1679774   1679730   1679616  
  7800.000000   1679478   1679331   1679150   1678865   1678401  
  7790.000000   1677708   1676803   1675765   1674716   1673785  
  7780.000000   1673050   1672538   1672206   1671994   1671844  
  7770.000000   1671733   1671665   1671644   1671649   1671596  
  7760.000000   1671365   1670815   1669859   1668491   1666827  
  7750.000000   1665067   1663452   1662192   1661407   1661109  
  7740.000000   1661209   1661562   1662013   1662439   1662760  
  7730.000000   1662934   1662944   1662771   1662403   1661831  
  7720.000000   1661082   1660212   1659320   1658515   1657903  
  7710.000000   1657548   1657463   1657607   1657895   1658227  
  7700.000000   1658502   1658651   1658637   1658468   1658187  
  7690.000000   1657873   1657614   1657494   1657569   1657842  
  7680.000000   1658257   1658701   1659023   1659080   1658766  
  7670.000000   1658059   1657018   1655791   1654566   1653535  
  7660.000000   1652835   1652514   1652524   1652728   1652946  
  7650.000000   1653001   1652768   1652200   1651333   1650273  
  7640.000000   1649163   1648156   1647383   1646931   1646843  
  7630.000000   1647100   1647637   1648347   1649098   1649759  
  7620.000000   1650227   1650446   1650435   1650266   1650058  
  7610.000000   1649924   1649937   1650097   1650337   1650557  
  7600.000000   1650662   1650615   1650449   1650255   1650138  
  7590.000000   1650166   1650334   1650549   1650672   1650563  
  7580.000000   1650149   1649453   1648595   1647753   1647102  
  7570.000000   1646771   1646807   1647181   1647809   1648586  
  7560.000000   1649417   1650213   1650904   1651418   1651699  
  7550.000000   1651710   1651471   1651052   1650588   1650226  
  7540.000000   1650104   1650293   1650796   1651541   1652421  
  7530.000000   1653333   1654216   1655063   1655911   1656810  
  7520.000000   1657801   1658883   1660026   1661171   1662261  
  7510.000000   1663247   1664114   1664865   1665528   1666138  
  7500.000000   1666737   1667356   1668019   1668719   1669432  
  7490.000000   1670110   1670706   1671192   1671587   1671962  
  7480.000000   1672430   1673113   1674094   1675387   1676926  
  7470.000000   1678573   1680170   1681578   1682736   1683650  
  7460.000000   1684403   1685088   1685798   1686572   1687421  
  7450.000000   1688314   1689232   1690169   1691152   1692230  
  7440.000000   1693452   1694860   1696469   1698277   1700264  
  7430.000000   1702395   1704621   1706866   1709041   1711038  
  7420.000000   1712767   1714164   1715230   1716020   1716650  
  7410.000000   1717252   1717948   1718816   1719887   1721148  
  7400.000000   1722560   1724084   1725694   1727380   1729134  
  7390.000000   1730943   1732777   1734598   1736364   1738050  
  7380.000000   1739660   1741223   1742790   1744407   1746105  
  7370.000000   1747873   1749671   1751431   1753079   1754559  
  7360.000000   1755846   1756966   1757982   1758991   1760091  
  7350.000000   1761362   1762840   1764511   1766303   1768116  
  7340.000000   1769844   1771409   1772775   1773956   1774999  
  7330.000000   1775980   1776963   1778001   1779116   1780306  
  7320.000000   1781552   1782828   1784112   1785385   1786637  
  7310.000000   1787856   1789025   1790123   1791123   1792006  
  7300.000000   1792774   1793453   1794107   1794821   1795682  
  7290.000000   1796756   1798053   1799526   1801067   1802548  
  7280.000000   1803853   1804925   1805776   1806482   1807158  
  7270.000000   1807900   1808760   1809708   1810665   1811528  
  7260.000000   1812229   1812764   1813211   1813694   1814357  
  7250.000000   1815303   1816576   1818144   1819934   1821842  
  7240.000000   1823789   1825709   1827580   1829376   1831099  
  7230.000000   1832735   1834309   1835848   1837426   1839109  
  7220.000000   1840975   1843055   1845352   1847816   1850399  
  7210.000000   1853046   1855748   1858514   1861380   1864358  
  7200.000000   1867441   1870579   1873718   1876802   1879832  
  7190.000000   1882835   1885890   1889056   1892377   1895819  
  7180.000000   1899312   1902746   1906034   1909132   1912072  
  7170.000000   1914936   1917854   1920944   1924305   1927968  
  7160.000000   1931919   1936078   1940353   1944633   1948835  
  7150.000000   1952894   1956809   1960611   1964403   1968298  
  7140.000000   1972427   1976870   1981664   1986762   1992082  
  7130.000000   1997500   2002924   2008278   2013553   2018765  
  7120.000000   2023971   2029213   2034538   2039946   2045436  
  7110.000000   2050971   2056533   2062092   2067646   2073197  
  7100.000000   2078773   2084401   2090124   2095971   2101968  
  7090.000000   2108117   2114411   2120820   2127318   2133865  
  7080.000000   2140432   2146975   2153456   2159822   2166037  
  7070.000000   2172072   2177937   2183670   2189346   2195042  
  7060.000000   2200830   2206747   2212795   2218947   2225161  
  7050.000000   2231402   2237639   2243859   2250044   2256174  
  7040.000000   2262219   2268164   2274011   2279802   2285600  
  7030.000000   2291471   2297446   2303499   2309538   2315435  
  7020.000000   2321065   2326361   2331325   2336043   2340625  
  7010.000000   2345186   2349784   2354438   2359113   2363791  
  7000.000000   2368460   2373159   2377913   2382744   2387602  
  6990.000000   2392395   2396985   2401263   2405171   2408741  
  6980.000000   2412068   2415283   2418488   2421746   2425047  
  6970.000000   2428359   2431637   2434875   2438083   2441301  
  6960.000000   2444541   2447793   2450994   2454075   2456966  
  6950.000000   2459650   2462145   2464519   2466842   2469180  
  6940.000000   2471555   2473967   2476383   2478772   2481096  
  6930.000000   2483335   2485467   2487487   2489387   2491186  
  6920.000000   2492906   2494588   2496256   2497929   2499581  
  6910.000000   2501170   2502641   2503961   2505122   2506164  
  6900.000000   2507137   2508098   2509067   2510040   2510981  
  6890.000000   2511861   2512670   2513436   2514206   2515030  
  6880.000000   2515925   2516879   2517844   2518772   2519630  
  6870.000000   2520428   2521198   2521986   2522812   2523664  
  6860.000000   2524497   2525255   2525897   2526419   2526854  
  6850.000000   2527257   2527679   2528145   2528653   2529177  
  6840.000000   2529687   2530166   2530607   2531018   2531400  
  6830.000000   2531758   2532088   2532401   2532719   2533086  
  6820.000000   2533535   2534083   2534698   2535311   2535825  
  6810.000000   2536162   2536285   2536218   2536025   2535791  
  6800.000000   2535571   2535380   2535180   2534927   2534581  
  6790.000000   2534156   2533702   2533291   2532977   2532772  
  6780.000000   2532625   2532459   2532189   2531769   2531207  
  6770.000000   2530560   2529906   2529315   2528824   2528435  
  6760.000000   2528125   2527874   2527665   2527501   2527383  
  6750.000000   2527309   2527259   2527205   2527125   2527009  
  6740.000000   2526868   2526719   2526572   2526411   2526193  
  6730.000000   2525862   2525369   2524707   2523912   2523071  
  6720.000000   2522284   2521648   2521210   2520972   2520877  
  6710.000000   2520846   2520785   2520625   2520318   2519855  
  6700.000000   2519246   2518528   2517739   2516921   2516102  
  6690.000000   2515302   2514519   2513748   2512970   2512184  
  6680.000000   2511388   2510601   2509829   2509083   2508342  
  6670.000000   2507577   2506743   2505807   2504753   2503591  
  6660.000000   2502353   2501073   2499774   2498463   2497125  
  6650.000000   2495753   2494344   2492930   2491553   2490272  
  6640.000000   2489122   2488110   2487202   2486339   2485445  
  6630.000000   2484458   2483336   2482072   2480683   2479209  
  6620.000000   2477692   2476183   2474717   2473322   2472000  
  6610.000000   2470734   2469481   2468187   2466795   2465268  
  6600.000000   2463593   2461793   2459907   2457990   2456086  
  6590.000000   2454235   2452458   2450781   2449223   2447800  
  6580.000000   2446516   2445346   2444234   2443100   2441857  
  6570.000000   2440440   2438831   2437063   2435213   2433373  
  6560.000000   2431625   2430011   2428535   2427163   2425851  
  6550.000000   2424562   2423272   2421974   2420666   2419343  
  6540.000000   2417996   2416615   2415200   2413767   2412348  
  6530.000000   2410975   2409677   2408458   2407302   2406175  
  6520.000000   2405040   2403867   2402646   2401378   2400079  
  6510.000000   2398767   2397459   2396172   2394923   2393728  
  6500.000000   2392601   2391549   2390562   2389621   2388692  
  6490.000000   2387745   2386756   2385717   2384631   2383503  
  6480.000000   2382342   2381144   2379908   2378632   2377325  
  6470.000000   2376009   2374708   2373449   2372245   2371098  
  6460.000000   2370000   2368943   2367924   2366948   2366022  
  6450.000000   2365141   2364288   2363427   2362520   2361536  
  6440.000000   2360472   2359352   2358225   2357144   2356154  
  6430.000000   2355273   2354496   2353801   2353165   2352570  
  6420.000000   2352008   2351473   2350956   2350434   2349883  
  6410.000000   2349277   2348612   2347904   2347195   2346530  
  6400.000000   2345951   2345476   2345101   2344800   2344545  
  6390.000000   2344308   2344077   2343849   2343625   2343408  
  6380.000000   2343197   2342992   2342792   2342607   2342443  
  6370.000000   2342306   2342181   2342042   2341846   2341553  
  6360.000000   2341133   2340579   2339908   2339155   2338354  
  6350.000000   2337536   2336710   2335883   2335045   2334200  
  6340.000000   2333346   2332494   2331652   2330830   2330030  
  6330.000000   2329259   2328521   2327824   2327168   2326548  
  6320.000000   2325944   2325320   2324633   2323848   2322941  
  6310.000000   2321919   2320808   2319651   2318490   2317360  
  6300.000000   2316277   2315244   2314247   2313273   2312296  
  6290.000000   2311296   2310241   2309108   2307876   2306542  
  6280.000000   2305123   2303659   2302199   2300793   2299469  
  6270.000000   2298229   2297042   2295866   2294643   2293337  
  6260.000000   2291922   2290402   2288793   2287125   2285421  
  6250.000000   2283708   2282001   2280311   2278641   2276993  
  6240.000000   2275362   2273742   2272127   2270519   2268919  
  6230.000000   2267338   2265782   2264255   2262752   2261262  
  6220.000000   2259773   2258277   2256773   2255268   2253776  
  6210.000000   2252304   2250853   2249416   2247979   2246531  
  6200.000000   2245070   2243604   2242154   2240745   2239399  
  6190.000000   2238127   2236927   2235787   2234682   2233583  
  6180.000000   2232461   2231289   2230053   2228752   2227402  
  6170.000000   2226031   2224676   2223371   2222134   2220963  
  6160.000000   2219842   2218741   2217637   2216519   2215396  
  6150.000000   2214285   2213205   2212164   2211154   2210151  
  6140.000000   2209129   2208069   2206968   2205834   2204687  
  6130.000000   2203539   2202396   2201253   2200108   2198961  
  6120.000000   2197829   2196732   2195693   2194718   2193799  
  6110.000000   2192906   2192012   2191100   2190179   2189280  
  6100.000000   2188453   2187739   2187163   2186716   2186369  
  6090.000000   2186070   2185778   2185459   2185105   2184715  
  6080.000000   2184307   2183888   2183479   2183091   2182752  
  6070.000000   2182486   2182330   2182300   2182411   2182646  
  6060.000000   2182984   2183386   2183830   2184297   2184800  
  6050.000000   2185350   2185984   2186714   2187563   2188523  
  6040.000000   2189588   2190729   2191930   2193161   2194420  
  6030.000000   2195702   2197035   2198444   2199973   2201645  
  6020.000000   2203479   2205453   2207537   2209672   2211818  
  6010.000000   2213933   2216017   2218077   2220146   2222243  
  6000.000000   2224390   2226583   2228828   2231115   2233462  
  5990.000000   2235879   2238395   2241016   2243750   2246570  
  5980.000000   2249458   2252384   2255346   2258348   2261418  
  5970.000000   2264572   2267832   2271183   2274617   2278099  
  5960.000000   2281618   2285159   2288733   2292342   2295998  
  5950.000000   2299692   2303421   2307170   2310941   2314744  
  5940.000000   2318607   2322558   2326623   2330813   2335122  
  5930.000000   2339530   2344001   2348500   2352982   2357404  
  5920.000000   2361718   2365881   2369852   2373611   2377150  
  5910.000000   2380489   2383651   2386669   2389561   2392349  
  5900.000000   2395038   2397649   2400200   2402739   2405294  
  5890.000000   2407907   2410574   2413284   2415991   2418652  
  5880.000000   2421224   2423690   2426048   2428314   2430502  
  5870.000000   2432619   2434663   2436627   2438512   2440328  
  5860.000000   2442101   2443865   2445654   2447496   2449411  
  5850.000000   2451410   2453503   2455695   2457991   2460382  
  5840.000000   2462848   2465358   2467880   2470387   2472876  
  5830.000000   2475361   2477871   2480433   2483065   2485754  
  5820.000000   2488473   2491181   2493845   2496440   2498961  
  5810.000000   2501413   2503801   2506134   2508407   2510641  
  5800.000000   2512842   2515058   2517310   2519641   2522027  
  5790.000000   2524447   2526800   2529005   2530930   2532490  
  5780.000000   2533581   2534150   2534132   2533509   2532269  
  5770.000000   2530462   2528162   2525512   2522660   2519776  
  5760.000000   2516984   2514383   2512001   2509852   2507910  
  5750.000000   2506169   2504607   2503225   2502004   2500914  
  5740.000000   2499912   2498944   2497968   2496954   2495905  
  5730.000000   2494827   2493746   2492671   2491618   2490581  
  5720.000000   2489566   2488574   2487615   2486693   2485810  
  5710.000000   2484954   2484112   2483276   2482453   2481669  
  5700.000000   2480961   2480361   2479881   2479504   2479182  
  5690.000000   2478862   2478493   2478059   2477564   2477045  
  5680.000000   2476531   2476047   2475578   2475089   2474511  
  5670.000000   2473781   2472826   2471601   2470071   2468234  
  5660.000000   2466108   2463746   2461221   2458633   2456074  
  5650.000000   2453627   2451335   2449207   2447212   2445311  
  5640.000000   2443464   2441651   2439872   2438141   2436475  
  5630.000000   2434876   2433340   2431848   2430394   2428973  
  5620.000000   2427603   2426297   2425070   2423917   2422825  
  5610.000000   2421764   2420718   2419674   2418642   2417634  
  5600.000000   2416668   2415746   2414861   2413997   2413139  
  5590.000000   2412281   2411426   2410579   2409742   2408903  
  5580.000000   2408037   2407117   2406122   2405047   2403910  
  5570.000000   2402740   2401568   2400416   2399290   2398184  
  5560.000000   2397084   2395983   2394878   2393774   2392674  
  5550.000000   2391578   2390473   2389347   2388186   2386983  
  5540.000000   2385745   2384485   2383221   2381966   2380730  
  5530.000000   2379519   2378339   2377198   2376105   2375066  
  5520.000000   2374077   2373124   2372185   2371240   2370269  
  5510.000000   2369267   2368232   2367170   2366079   2364957  
  5500.000000   2363793   2362586   2361342   2360082   2358826  
  5490.000000   2357594   2356382   2355167   2353908   2352567  
  5480.000000   2351111   2349539   2347866   2346130   2344365  
  5470.000000   2342599   2340841   2339090   2337340   2335588  
  5460.000000   2333832   2332072   2330301   2328508   2326677  
  5450.000000   2324799   2322877   2320933   2319000   2317115  
  5440.000000   2315303   2313571   2311914   2310312   2308753  
  5430.000000   2307225   2305728   2304254   2302801   2301350  
  5420.000000   2299903   2298464   2297077   2295790   2294675  
  5410.000000   2293767   2293083   2292577   2292199   2291878  
  5400.000000   2291585   2291308   2291089   2290964   2290988  
  5390.000000   2291168   2291512   2291982   2292570   2293254  
  5380.000000   2294063   2295005   2296117   2297389   2298828  
  5370.000000   2300392   2302085   2303883   2305827   2307921  
  5360.000000   2310231   2312754   2315544   2318581   2321916  
  5350.000000   2325535   2329507   2333824   2338555   2343667  
  5340.000000   2349208   2355125   2361469   2368198   2375383  
  5330.000000   2382984   2391066   2399568   2408544   2417933  
  5320.000000   2427822   2438194   2449188   2460815   2473219  
  5310.000000   2486374   2500371   2515124   2530684   2546959  
  5300.000000   2564018   2581813   2600459   2619944   2640391  
  5290.000000   2661756   2684091   2707262   2731217   2755763  
  5280.000000   2780839   2806329   2832287   2858736   2885814  
  5270.000000   2913565   2942028   2971089   3000587   3030296  
  5260.000000   3060023   3089647   3119129   3148509   3177802  
  5250.000000   3207015   3236016   3264668   3292725   3320065  
  5240.000000   3346544   3372232   3397155   3421503   3445321  
  5230.000000   3468736   3491661   3514078   3535783   3556717  
  5220.000000   3576709   3595814   3614000   3631451   3648215  
  5210.000000   3664477   3680208   3695461   3710058   3723957  
  5200.000000   3736965   3749113   3760336   3770786   3780474  
  5190.000000   3789550   3797969   3805792   3812905   3819339  
  5180.000000   3825000   3829967   3834197   3837793   3840714  
  5170.000000   3843043   3844735   3845885   3846479   3846639  
  5160.000000   3846364   3845748   3844741   3843375   3841566  
  5150.000000   3839338   3836642   3833542   3830030   3826179  
  5140.000000   3821975   3817469   3812640   3807545   3802191  
  5130.000000   3796655   3790957   3785155   3779235   3773212  
  5120.000000   3767052   3760769   3754361   3747873   3741324  
  5110.000000   3734750   3728146   3721508   3714810   3708050  
  5100.000000   3701233   3694401   3687598   3680877   3674264  
  5090.000000   3667772   3661386   3655087   3648849   3642662  
  5080.000000   3636513   3630401   3624312   3618231   3612128  
  5070.000000   3605978   3599756   3593452   3587059   3580588  
  5060.000000   3574041   3567429   3560749   3554006   3547187  
  5050.000000   3540291   3533300   3526213   3519017   3511721  
  5040.000000   3504333   3496884   3489403   3481930   3474493  
  5030.000000   3467109   3459784   3452513   3445290   3438113  
  5020.000000   3430994   3423943   3416983   3410120   3403366  
  5010.000000   3396710   3390156   3383692   3377335   3371088  
  5000.000000   3364983   3359025   3353246   3347636   3342217  
  4990.000000   3336972   3331929   3327078   3322457   3318057  
  4980.000000   3313915   3310014   3306382   3302996   3299887  
  4970.000000   3297034   3294477   3292194   3290223   3288534  
  4960.000000   3287161   3286073   3285313   3284862   3284777  
  4950.000000   3285040   3285706   3286741   3288181   3289982  
  4940.000000   3292173   3294713   3297643   3300931   3304621  
  4930.000000   3308675   3313124   3317919   3323080   3328556  
  4920.000000   3334369   3340471   3346887   3353576   3360561  
  4910.000000   3367810   3375350   3383160   3391264   3399642  
  4900.000000   3408298   3417196   3426306   3435580   3444967  
  4890.000000   3454417   3463871   3473281   3482579   3491717  
  4880.000000   3500621   3509257   3517555   3525501   3533031  
  4870.000000   3540136   3546745   3552847   3558371   3563324  
  4860.000000   3567668   3571455   3574692   3577465   3579797  
  4850.000000   3581775   3583412   3584780   3585884   3586788  
  4840.000000   3587498   3588073   3588517   3588876   3589148  
  4830.000000   3589368   3589540   3589697   3589854   3590040  
  4820.000000   3590270   3590561   3590919   3591348   3591852  
  4810.000000   3592434   3593100   3593850   3594685   3595597  
  4800.000000   3596582   3597629   3598736   3599902   3601131  
  4790.000000   3602424   3603781   3605188   3606632   3608088  
  4780.000000   3609538   3610966   3612364   3613730   3615065  
  4770.000000   3616373   3617652   3618905   3620126   3621314  
  4760.000000   3622461   3623564   3624612   3625599   3626513  
  4750.000000   3627352   3628109   3628792   3629402   3629950  
  4740.000000   3630437   3630870   3631249   3631583   3631876  
  4730.000000   3632144   3632395   3632637   3632868   3633077  
  4720.000000   3633253   3633380   3633462   3633507   3633548  
  4710.000000   3633614   3633752   3633988   3634351   3634847  
  4700.000000   3635491   3636282   3637235   3638358   3639671  
  4690.000000   3641180   3642895   3644802   3646891   3649122  
  4680.000000   3651467   3653868   3656289   3658667   3660975  
  4670.000000   3663169   3665254   3667232   3669152   3671062  
  4660.000000   3673036   3675132   3677411   3679906   3682636  
  4650.000000   3685595   3688766   3692116   3695606   3699193  
  4640.000000   3702836   3706501   3710161   3713801   3717412  
  4630.000000   3720994   3724537   3728029   3731441   3734741  
  4620.000000   3737876   3740810   3743493   3745908   3748029  
  4610.000000   3749872   3751436   3752762   3753868   3754806  
  4600.000000   3755597   3756290   3756894   3757440   3757914  
  4590.000000   3758328   3758647   3758869   3758953   3758895  
  4580.000000   3758660   3758248   3757637   3756835   3755834  
  4570.000000   3754654   3753299   3751801   3750172   3748443  
  4560.000000   3746626   3744747   3742812   3740845   3738852  
  4550.000000   3736856   3734863   3732889   3730934   3728996  
  4540.000000   3727068   3725141   3723209   3721270   3719333  
  4530.000000   3717404   3715501   3713625   3711794   3709997  
  4520.000000   3708254   3706555   3704937   3703400   3701999  
  4510.000000   3700741   3699694   3698861   3698323   3698084  
  4500.000000   3698237   3698794   3699861   3701444   3703648  
  4490.000000   3706463   3709978   3714163   3719092   3724723  
  4480.000000   3731119   3738231   3746112   3754703   3764044  
  4470.000000   3774059   3784761   3796050   3807912   3820228  
  4460.000000   3832967   3846015   3859349   3872881   3886610  
  4450.000000   3900483   3914515   3928680   3942993   3957439  
  4440.000000   3972012   3986691   4001436   4016213   4030954  
  4430.000000   4045619   4060127   4074451   4088509   4102283  
  4420.000000   4115688   4128708   4141248   4153288   4164728  
  4410.000000   4175551   4185670   4195088   4203748   4211698  
  4400.000000   4218930   4225540   4231572   4237155   4242354  
  4390.000000   4247304   4252065   4256749   4261395   4266079  
  4380.000000   4270809   4275625   4280508   4285471   4290487  
  4370.000000   4295565   4300688   4305863   4311076   4316328  
  4360.000000   4321596   4326879   4332147   4337414   4342634  
  4350.000000   4347827   4352917   4357915   4362733   4367403  
  4340.000000   4371871   4376200   4380330   4384223   4387640  
  4330.000000   4390276   4391647   4391290   4388778   4383937  
  4320.000000   4376860   4367993   4358003   4347709   4337853  
  4310.000000   4329037   4321570   4315538   4310797   4307126  
  4300.000000   4304274   4302043   4300312   4299002   4298090  
  4290.000000   4297523   4297291   4297331   4297648   4298210  
  4280.000000   4299048   4300163   4301565   4303241   4305158  
  4270.000000   4307279   4309537   4311861   4314113   4316115  
  4260.000000   4317600   4318272   4317826   4316038   4312809  
  4250.000000   4308232   4302555   4296178   4289532   4283049  
  4240.000000   4277035   4271696   4267065   4263101   4259659  
  4230.000000   4256599   4253766   4251045   4248349   4245616  
  4220.000000   4242838   4240004   4237175   4234391   4231762  
  4210.000000   4229352   4227261   4225517   4224158   4223144  
  4200.000000   4222446   4221983   4221713   4221566   4221536  
  4190.000000   4221592   4221766   4222047   4222481   4223049  
  4180.000000   4223788   4224672   4225745   4226997   4228500  
  4170.000000   4230273   4232409   4234931   4237915   4241356  
  4160.000000   4245299   4249709   4254614   4259971   4265806  
  4150.000000   4272067   4278765   4285826   4293246   4300945  
  4140.000000   4308935   4317168   4325697   4334507   4343665  
  4130.000000   4353147   4362996   4373159   4383662   4394462  
  4120.000000   4405607   4417101   4429024   4441402   4454310  
  4110.000000   4467748   4481741   4496233   4511192   4526517  
  4100.000000   4542137   4557941   4573863   4589833   4605834  
  4090.000000   4621859   4637939   4654105   4670382   4686790  
  4080.000000   4703309   4719931   4736593   4753266   4769855  
  4070.000000   4786313   4802514   4818396   4833824   4848761  
  4060.000000   4863105   4876869   4889992   4902526   4914428  
  4050.000000   4925773   4936532   4946801   4956553   4965875  
  4040.000000   4974698   4983055   4990821   4998007   5004504  
  4030.000000   5010373   5015571   5020203   5024248   5027773  
  4020.000000   5030694   5033043   5034773   5035932   5036471  
  4010.000000   5036508   5036114   5035306   5033894   5031921  
  4000.000000   5029663  
##END= 
