##TITLE= Sample 039 By ssteindl date Dienstag, November 20 2018
##JCAMP-DX= 4.24
##DATA TYPE= INFRARED SPECTRUM
##ORIGIN= Exported PE Spectrum Data File
##OWNER= Sandra Steindl
##DATE= 18/11/20
##TIME= 11:59:57.00
##SPECTROMETER/DATA SYSTEM= PERKIN-ELMER Frontier FT-IR/NIR IR
##INSTRUMENT PARAMETERS=
  APODIZATION=stark
  DETECTOR=INGAAS
##RESOLUTION= 16.000000
##DELTAX= -2.000000
##XUNITS= 1/CM
##YUNITS= A
##XFACTOR= 1.00
##YFACTOR= 0.00000011920928955078
##FIRSTX= 10000.00
##LASTX= 4000.00
##NPOINTS= 3001
##FIRSTY= 0.216493
##MAXY= 0.595245
##MINY= 0.181961
##XYDATA= (X++(Y..Y))
 10000.000000   1816072   1814826   1814168   1814712   1816111  
  9990.000000   1817374   1817590   1816228   1812966   1807799  
  9980.000000   1801237   1794122   1787380   1781677   1777430  
  9970.000000   1774588   1772758   1771216   1769228   1766204  
  9960.000000   1762000   1757019   1752174   1748722   1747858  
  9950.000000   1750429   1756578   1765717   1776651   1787895  
  9940.000000   1798097   1806260   1811943   1815087   1815919  
  9930.000000   1814660   1811512   1806631   1800329   1793173  
  9920.000000   1786023   1779914   1775731   1774028   1774710  
  9910.000000   1777217   1780531   1783664   1785759   1786419  
  9900.000000   1785614   1783674   1781127   1778540   1776461  
  9890.000000   1775235   1775018   1775577   1776415   1776750  
  9880.000000   1775834   1773149   1768666   1762936   1756932  
  9870.000000   1751831   1748589   1747722   1749166   1752416  
  9860.000000   1756763   1761524   1766172   1770309   1773569  
  9850.000000   1775530   1775791   1774095   1770616   1765980  
  9840.000000   1761271   1757616   1755852   1756142   1757923  
  9830.000000   1760138   1761670   1761837   1760647   1758791  
  9820.000000   1757286   1757037   1758420   1761197   1764622  
  9810.000000   1767866   1770304   1771818   1772686   1773452  
  9800.000000   1774568   1776232   1778284   1780294   1781732  
  9790.000000   1782056   1780863   1777828   1772800   1765820  
  9780.000000   1757213   1747723   1738382   1730470   1725091  
  9770.000000   1722989   1724237   1728284   1734069   1740321  
  9760.000000   1745846   1749710   1751350   1750523   1747315  
  9750.000000   1742067   1735469   1728470   1722283   1718045  
  9740.000000   1716588   1718049   1721817   1726591   1730792  
  9730.000000   1733033   1732556   1729473   1724616   1719284  
  9720.000000   1714728   1711895   1711224   1712755   1716269  
  9710.000000   1721428   1727806   1734797   1741519   1746821  
  9700.000000   1749469   1748485   1743542   1735161   1724730  
  9690.000000   1714107   1705153   1699167   1696582   1696944  
  9680.000000   1699145   1701906   1704140   1705285   1705283  
  9670.000000   1704479   1703353   1702314   1701625   1701348  
  9660.000000   1701486   1701969   1702763   1703796   1704966  
  9650.000000   1706124   1707078   1707701   1707955   1707934  
  9640.000000   1707811   1707702   1707597   1707264   1706328  
  9630.000000   1704409   1701284   1697084   1692267   1687612  
  9620.000000   1683926   1681892   1681791   1683470   1686367  
  9610.000000   1689654   1692480   1694096   1694048   1692148  
  9600.000000   1688520   1683495   1677605   1671493   1665912  
  9590.000000   1661594   1659172   1658996   1661027   1664791  
  9580.000000   1669438   1673972   1677481   1679411   1679697  
  9570.000000   1678745   1677286   1676088   1675744   1676459  
  9560.000000   1678068   1680113   1682042   1683397   1683918  
  9550.000000   1683601   1682610   1681224   1679701   1678249  
  9540.000000   1676960   1675828   1674749   1673564   1672108  
  9530.000000   1670275   1668078   1665695   1663435   1661683  
  9520.000000   1660748   1660761   1661585   1662859   1664087  
  9510.000000   1664840   1664872   1664219   1663152   1662059  
  9500.000000   1661320   1661137   1661539   1662303   1663081  
  9490.000000   1663419   1662901   1661215   1658264   1654227  
  9480.000000   1649587   1645094   1641631   1640013   1640734  
  9470.000000   1643772   1648487   1653773   1658334   1661130  
  9460.000000   1661683   1660255   1657704   1655168   1653635  
  9450.000000   1653606   1654960   1657031   1658919   1659803  
  9440.000000   1659241   1657253   1654219   1650672   1647056  
  9430.000000   1643647   1640535   1637747   1635332   1633402  
  9420.000000   1632119   1631615   1631906   1632865   1634205  
  9410.000000   1635611   1636789   1637595   1638018   1638149  
  9400.000000   1638130   1638061   1638021   1637999   1637951  
  9390.000000   1637742   1637203   1636125   1634331   1631744  
  9380.000000   1628428   1624654   1620849   1617574   1615363  
  9370.000000   1614594   1615334   1617311   1619968   1622602  
  9360.000000   1624541   1625278   1624595   1622570   1619586  
  9350.000000   1616197   1613032   1610622   1609313   1609196  
  9340.000000   1610109   1611705   1613522   1615143   1616255  
  9330.000000   1616753   1616690   1616233   1615549   1614733  
  9320.000000   1613796   1612655   1611242   1609505   1607509  
  9310.000000   1605369   1603237   1601237   1599413   1597756  
  9300.000000   1596208   1594777   1593550   1592721   1592523  
  9290.000000   1593123   1594554   1596654   1599087   1601394  
  9280.000000   1603098   1603845   1603501   1602222   1600384  
  9270.000000   1598498   1597069   1596484   1596911   1598199  
  9260.000000   1599912   1601383   1601957   1601100   1598595  
  9250.000000   1594543   1589397   1583860   1578737   1574777  
  9240.000000   1572496   1572140   1573655   1576780   1581072  
  9230.000000   1586017   1591053   1595688   1599491   1602152  
  9220.000000   1603491   1603478   1602299   1600260   1597797  
  9210.000000   1595279   1593001   1591065   1589385   1587722  
  9200.000000   1585756   1583286   1580306   1577088   1574083  
  9190.000000   1571832   1570803   1571218   1572965   1575614  
  9180.000000   1578550   1581152   1582957   1583812   1583883  
  9170.000000   1583614   1583536   1584097   1585525   1587760  
  9160.000000   1590508   1593228   1595298   1596110   1595264  
  9150.000000   1592601   1588254   1582675   1576580   1570862  
  9140.000000   1566347   1563681   1563140   1564631   1567656  
  9130.000000   1571495   1575355   1578594   1580813   1581863  
  9120.000000   1581808   1580805   1579100   1576892   1574405  
  9110.000000   1571829   1569439   1567502   1566251   1565803  
  9100.000000   1566103   1566980   1568120   1569257   1570160  
  9090.000000   1570777   1571163   1571481   1571901   1572515  
  9080.000000   1573309   1574116   1574705   1574765   1574026  
  9070.000000   1572275   1569461   1565723   1561392   1556987  
  9060.000000   1553092   1550305   1549047   1549498   1551491  
  9050.000000   1554589   1558149   1561480   1563962   1565182  
  9040.000000   1565017   1563592   1561259   1558451   1555650  
  9030.000000   1553228   1551419   1550259   1549641   1549351  
  9020.000000   1549151   1548877   1548480   1548055   1547740  
  9010.000000   1547680   1547926   1548428   1549053   1549652  
  9000.000000   1550142   1550540   1550949   1551487   1552204  
  8990.000000   1553008   1553692   1553985   1553699   1552765  
  8980.000000   1551303   1549525   1547683   1545942   1544346  
  8970.000000   1542875   1541510   1540349   1539590   1539535  
  8960.000000   1540418   1542313   1545009   1548078   1550987  
  8950.000000   1553257   1554583   1554877   1554273   1552981  
  8940.000000   1551229   1549157   1546890   1544541   1542286  
  8930.000000   1540342   1538917   1538136   1537943   1538158  
  8920.000000   1538521   1538841   1539067   1539325   1539850  
  8910.000000   1540824   1542278   1543987   1545596   1546689  
  8900.000000   1547026   1546597   1545677   1544699   1544105  
  8890.000000   1544193   1545047   1546581   1548606   1550943  
  8880.000000   1553437   1555985   1558452   1560670   1562398  
  8870.000000   1563426   1563654   1563164   1562220   1561165  
  8860.000000   1560307   1559763   1559422   1558997   1558161  
  8850.000000   1556721   1554701   1552387   1550210   1548614  
  8840.000000   1547867   1548012   1548854   1550076   1551357  
  8830.000000   1552471   1553359   1554062   1554689   1555292  
  8820.000000   1555858   1556282   1556445   1556262   1555755  
  8810.000000   1555067   1554448   1554194   1554572   1555737  
  8800.000000   1557665   1560149   1562819   1565229   1566953  
  8790.000000   1567697   1567401   1566246   1564638   1563066  
  8780.000000   1561983   1561658   1562110   1563121   1564314  
  8770.000000   1565315   1565877   1565985   1565844   1565806  
  8760.000000   1566224   1567309   1569035   1571134   1573173  
  8750.000000   1574700   1575402   1575219   1574367   1573282  
  8740.000000   1572468   1572344   1573094   1574611   1576533  
  8730.000000   1578343   1579555   1579824   1579072   1577449  
  8720.000000   1575296   1573025   1571031   1569618   1568974  
  8710.000000   1569176   1570213   1572008   1574420   1577250  
  8700.000000   1580242   1583126   1585688   1587791   1589448  
  8690.000000   1590743   1591838   1592838   1593790   1594640  
  8680.000000   1595308   1595757   1596073   1596483   1597293  
  8670.000000   1598790   1601092   1604091   1607426   1610599  
  8660.000000   1613121   1614674   1615221   1615005   1614467  
  8650.000000   1614096   1614276   1615186   1616764   1618769  
  8640.000000   1620879   1622812   1624400   1625622   1626570  
  8630.000000   1627407   1628278   1629284   1630435   1631673  
  8620.000000   1632891   1633990   1634915   1635678   1636342  
  8610.000000   1637006   1637746   1638587   1639466   1640252  
  8600.000000   1640791   1640946   1640671   1640020   1639166  
  8590.000000   1638334   1637754   1637601   1637959   1638829  
  8580.000000   1640121   1641731   1643548   1645498   1647521  
  8570.000000   1649573   1651616   1653590   1655429   1657027  
  8560.000000   1658296   1659118   1659416   1659144   1658359  
  8550.000000   1657209   1655951   1654910   1654425   1654764  
  8540.000000   1656033   1658157   1660880   1663861   1666745  
  8530.000000   1669284   1671371   1673067   1674531   1675948  
  8520.000000   1677443   1679045   1680694   1682260   1683617  
  8510.000000   1684655   1685326   1685611   1685503   1685004  
  8500.000000   1684126   1682930   1681540   1680168   1679089  
  8490.000000   1678585   1678859   1679978   1681825   1684135  
  8480.000000   1686542   1688707   1690401   1691583   1692399  
  8470.000000   1693115   1694040   1695377   1697177   1699268  
  8460.000000   1701340   1703005   1703961   1704074   1703453  
  8450.000000   1702414   1701382   1700783   1700897   1701808  
  8440.000000   1703378   1705329   1707334   1709138   1710605  
  8430.000000   1711755   1712686   1713544   1714420   1715348  
  8420.000000   1716288   1717167   1717913   1718481   1718855  
  8410.000000   1719021   1718947   1718576   1717851   1716735  
  8400.000000   1715254   1713496   1711613   1709778   1708142  
  8390.000000   1706815   1705837   1705235   1705025   1705255  
  8380.000000   1705967   1707191   1708879   1710886   1712964  
  8370.000000   1714805   1716129   1716740   1716607   1715831  
  8360.000000   1714652   1713332   1712119   1711156   1710485  
  8350.000000   1710060   1709793   1709610   1709444   1709294  
  8340.000000   1709171   1709131   1709209   1709449   1709865  
  8330.000000   1710461   1711208   1712019   1712771   1713283  
  8320.000000   1713385   1712923   1711821   1710096   1707884  
  8310.000000   1705420   1702994   1700902   1699381   1698591  
  8300.000000   1698567   1699233   1700398   1701800   1703151  
  8290.000000   1704193   1704748   1704744   1704228   1703347  
  8280.000000   1702303   1701302   1700494   1699960   1699692  
  8270.000000   1699633   1699688   1699764   1699765   1699605  
  8260.000000   1699190   1698423   1697217   1695522   1693352  
  8250.000000   1690807   1688070   1685391   1683025   1681200  
  8240.000000   1680045   1679592   1679748   1680340   1681132  
  8230.000000   1681865   1682297   1682233   1681572   1680307  
  8220.000000   1678554   1676509   1674422   1672533   1671022  
  8210.000000   1669977   1669371   1669110   1669046   1669049  
  8200.000000   1668999   1668826   1668463   1667858   1666946  
  8190.000000   1665673   1664008   1661971   1659652   1657194  
  8180.000000   1654767   1652526   1650568   1648927   1647564  
  8170.000000   1646411   1645380   1644399   1643411   1642376  
  8160.000000   1641268   1640068   1638777   1637413   1636024  
  8150.000000   1634666   1633406   1632280   1631294   1630412  
  8140.000000   1629570   1628706   1627773   1626764   1625708  
  8130.000000   1624660   1623679   1622809   1622068   1621427  
  8120.000000   1620823   1620150   1619288   1618128   1616612  
  8110.000000   1614763   1612706   1610656   1608862   1607555  
  8100.000000   1606854   1606745   1607059   1607533   1607891  
  8090.000000   1607924   1607560   1606843   1605899   1604853  
  8080.000000   1603772   1602649   1601440   1600109   1598695  
  8070.000000   1597320   1596155   1595355   1594979   1594951  
  8060.000000   1595067   1595068   1594728   1593935   1592736  
  8050.000000   1591294   1589839   1588564   1587578   1586889  
  8040.000000   1586430   1586119   1585899   1585766   1585745  
  8030.000000   1585862   1586094   1586371   1586572   1586572  
  8020.000000   1586281   1585667   1584764   1583647   1582408  
  8010.000000   1581132   1579877   1578687   1577585   1576585  
  8000.000000   1575683   1574857   1574057   1573218   1572274  
  7990.000000   1571182   1569950   1568631   1567331   1566163  
  7980.000000   1565236   1564600   1564257   1564142   1564154  
  7970.000000   1564190   1564164   1564047   1563865   1563700  
  7960.000000   1563663   1563848   1564304   1564978   1565734  
  7950.000000   1566337   1566547   1566152   1565068   1563362  
  7940.000000   1561261   1559102   1557244   1555994   1555518  
  7930.000000   1555829   1556787   1558163   1559687   1561113  
  7920.000000   1562254   1562987   1563265   1563089   1562525  
  7910.000000   1561674   1560692   1559744   1558999   1558579  
  7900.000000   1558536   1558839   1559380   1560022   1560624  
  7890.000000   1561103   1561429   1561636   1561787   1561933  
  7880.000000   1562092   1562231   1562283   1562173   1561856  
  7870.000000   1561337   1560678   1559991   1559397   1559005  
  7860.000000   1558878   1559013   1559348   1559770   1560147  
  7850.000000   1560353   1560301   1559959   1559361   1558608  
  7840.000000   1557840   1557220   1556894   1556964   1557456  
  7830.000000   1558319   1559419   1560575   1561583   1562276  
  7820.000000   1562545   1562373   1561830   1561050   1560190  
  7810.000000   1559384   1558703   1558138   1557612   1557012  
  7800.000000   1556238   1555248   1554070   1552816   1551628  
  7790.000000   1550655   1549985   1549637   1549548   1549603  
  7780.000000   1549673   1549649   1549475   1549135   1548657  
  7770.000000   1548065   1547387   1546622   1545778   1544866  
  7760.000000   1543935   1543061   1542340   1541863   1541679  
  7750.000000   1541784   1542116   1542579   1543065   1543497  
  7740.000000   1543828   1544057   1544198   1544267   1544263  
  7730.000000   1544165   1543946   1543588   1543097   1542501  
  7720.000000   1541843   1541160   1540465   1539747   1538977  
  7710.000000   1538143   1537255   1536368   1535565   1534943  
  7700.000000   1534571   1534474   1534614   1534906   1535234  
  7690.000000   1535483   1535562   1535418   1535048   1534476  
  7680.000000   1533758   1532957   1532142   1531365   1530667  
  7670.000000   1530059   1529532   1529062   1528618   1528191  
  7660.000000   1527794   1527470   1527279   1527268   1527455  
  7650.000000   1527799   1528219   1528598   1528837   1528865  
  7640.000000   1528683   1528342   1527946   1527600   1527390  
  7630.000000   1527360   1527505   1527790   1528163   1528589  
  7620.000000   1529047   1529543   1530083   1530666   1531262  
  7610.000000   1531813   1532238   1532449   1532384   1532015  
  7600.000000   1531379   1530551   1529642   1528760   1527994  
  7590.000000   1527388   1526944   1526644   1526462   1526398  
  7580.000000   1526474   1526732   1527209   1527904   1528776  
  7570.000000   1529730   1530658   1531453   1532062   1532475  
  7560.000000   1532746   1532939   1533129   1533361   1533662  
  7550.000000   1534043   1534516   1535100   1535818   1536677  
  7540.000000   1537650   1538674   1539656   1540508   1541180  
  7530.000000   1541678   1542073   1542465   1542957   1543598  
  7520.000000   1544382   1545240   1546082   1546821   1547421  
  7510.000000   1547893   1548296   1548702   1549180   1549768  
  7500.000000   1550482   1551316   1552262   1553311   1554460  
  7490.000000   1555705   1557039   1558446   1559906   1561394  
  7480.000000   1562886   1564356   1565779   1567122   1568363  
  7470.000000   1569485   1570498   1571432   1572340   1573271  
  7460.000000   1574266   1575334   1576464   1577637   1578843  
  7450.000000   1580097   1581437   1582910   1584544   1586322  
  7440.000000   1588183   1590028   1591766   1593328   1594709  
  7430.000000   1595949   1597135   1598356   1599685   1601154  
  7420.000000   1602772   1604524   1606395   1608367   1610422  
  7410.000000   1612526   1614631   1616674   1618597   1620366  
  7400.000000   1621992   1623526   1625043   1626621   1628312  
  7390.000000   1630130   1632048   1634018   1635989   1637922  
  7380.000000   1639794   1641595   1643319   1644957   1646499  
  7370.000000   1647939   1649280   1650549   1651786   1653040  
  7360.000000   1654357   1655772   1657294   1658916   1660608  
  7350.000000   1662331   1664034   1665676   1667226   1668680  
  7340.000000   1670058   1671404   1672768   1674187   1675671  
  7330.000000   1677193   1678709   1680162   1681518   1682772  
  7320.000000   1683954   1685111   1686286   1687499   1688742  
  7310.000000   1689998   1691254   1692529   1693874   1695354  
  7300.000000   1697021   1698881   1700875   1702894   1704804  
  7290.000000   1706494   1707908   1709058   1710019   1710887  
  7280.000000   1711753   1712673   1713667   1714723   1715812  
  7270.000000   1716905   1717977   1719014   1720008   1720962  
  7260.000000   1721896   1722842   1723856   1724987   1726280  
  7250.000000   1727735   1729325   1730978   1732626   1734210  
  7240.000000   1735730   1737219   1738757   1740409   1742231  
  7230.000000   1744214   1746327   1748503   1750703   1752898  
  7220.000000   1755112   1757374   1759733   1762209   1764814  
  7210.000000   1767519   1770297   1773098   1775895   1778659  
  7200.000000   1781396   1784119   1786877   1789729   1792749  
  7190.000000   1795989   1799480   1803190   1807054   1810952  
  7180.000000   1814775   1818426   1821872   1825119   1828227  
  7170.000000   1831252   1834262   1837294   1840392   1843583  
  7160.000000   1846919   1850435   1854169   1858114   1862238  
  7150.000000   1866463   1870720   1874945   1879145   1883364  
  7140.000000   1887708   1892261   1897094   1902194   1907518  
  7130.000000   1912961   1918450   1923911   1929340   1934732  
  7120.000000   1940126   1945528   1950958   1956408   1961896  
  7110.000000   1967435   1973076   1978854   1984813   1990952  
  7100.000000   1997261   2003690   2010199   2016741   2023298  
  7090.000000   2029858   2036425   2043000   2049587   2056184  
  7080.000000   2062799   2069432   2076093   2082768   2089439  
  7070.000000   2096059   2102581   2108958   2115164   2121199  
  7060.000000   2127090   2132881   2138626   2144380   2150198  
  7050.000000   2156133   2162221   2168483   2174901   2181421  
  7040.000000   2187952   2194393   2200659   2206713   2212571  
  7030.000000   2218300   2223983   2229694   2235465   2241287  
  7020.000000   2247114   2252903   2258624   2264278   2269876  
  7010.000000   2275432   2280929   2286334   2291593   2296680  
  7000.000000   2301594   2306390   2311137   2315912   2320747  
  6990.000000   2325646   2330559   2335441   2340240   2344949  
  6980.000000   2349557   2354072   2358462   2362687   2366680  
  6970.000000   2370405   2373857   2377097   2380208   2383292  
  6960.000000   2386397   2389536   2392648   2395672   2398539  
  6950.000000   2401252   2403842   2406396   2408981   2411650  
  6940.000000   2414384   2417136   2419814   2422346   2424669  
  6930.000000   2426769   2428657   2430379   2431987   2433551  
  6920.000000   2435125   2436755   2438452   2440197   2441933  
  6910.000000   2443593   2445112   2446470   2447684   2448826  
  6900.000000   2449974   2451197   2452513   2453896   2455281  
  6890.000000   2456602   2457820   2458940   2460000   2461058  
  6880.000000   2462145   2463274   2464417   2465548   2466648  
  6870.000000   2467727   2468812   2469929   2471074   2472213  
  6860.000000   2473273   2474184   2474897   2475410   2475769  
  6850.000000   2476048   2476323   2476650   2477049   2477519  
  6840.000000   2478044   2478615   2479220   2479852   2480491  
  6830.000000   2481108   2481664   2482137   2482521   2482846  
  6820.000000   2483151   2483477   2483834   2484205   2484543  
  6810.000000   2484804   2484960   2485018   2485005   2484957  
  6800.000000   2484888   2484787   2484617   2484351   2483978  
  6790.000000   2483538   2483096   2482729   2482488   2482379  
  6780.000000   2482357   2482353   2482296   2482150   2481913  
  6770.000000   2481622   2481322   2481045   2480802   2480582  
  6760.000000   2480362   2480123   2479859   2479563   2479231  
  6750.000000   2478849   2478400   2477878   2477297   2476706  
  6740.000000   2476171   2475764   2475534   2475491   2475599  
  6730.000000   2475791   2475991   2476133   2476175   2476098  
  6720.000000   2475900   2475583   2475156   2474630   2474029  
  6710.000000   2473390   2472757   2472174   2471669   2471248  
  6700.000000   2470898   2470596   2470316   2470040   2469749  
  6690.000000   2469428   2469046   2468572   2467978   2467260  
  6680.000000   2466440   2465573   2464723   2463943   2463248  
  6670.000000   2462622   2462009   2461360   2460633   2459830  
  6660.000000   2458968   2458079   2457172   2456235   2455227  
  6650.000000   2454111   2452870   2451522   2450113   2448701  
  6640.000000   2447320   2445978   2444645   2443290   2441886  
  6630.000000   2440455   2439043   2437723   2436544   2435522  
  6620.000000   2434611   2433732   2432786   2431689   2430392  
  6610.000000   2428889   2427205   2425385   2423476   2421527  
  6600.000000   2419583   2417690   2415886   2414202   2412641  
  6590.000000   2411185   2409793   2408415   2407010   2405553  
  6580.000000   2404038   2402473   2400867   2399227   2397559  
  6570.000000   2395873   2394198   2392574   2391044   2389638  
  6560.000000   2388348   2387129   2385906   2384604   2383170  
  6550.000000   2381603   2379949   2378280   2376672   2375166  
  6540.000000   2373763   2372424   2371092   2369719   2368282  
  6530.000000   2366787   2365264   2363748   2362270   2360849  
  6520.000000   2359498   2358225   2357035   2355928   2354893  
  6510.000000   2353899   2352908   2351876   2350775   2349602  
  6500.000000   2348381   2347155   2345967   2344844   2343789  
  6490.000000   2342779   2341781   2340763   2339709   2338621  
  6480.000000   2337510   2336393   2335279   2334173   2333070  
  6470.000000   2331967   2330859   2329739   2328601   2327428  
  6460.000000   2326206   2324917   2323556   2322132   2320672  
  6450.000000   2319208   2317778   2316409   2315120   2313917  
  6440.000000   2312805   2311787   2310869   2310051   2309333  
  6430.000000   2308699   2308133   2307609   2307112   2306626  
  6420.000000   2306148   2305673   2305195   2304697   2304167  
  6410.000000   2303592   2302976   2302340   2301720   2301150  
  6400.000000   2300660   2300254   2299917   2299616   2299313  
  6390.000000   2298977   2298593   2298163   2297703   2297240  
  6380.000000   2296801   2296416   2296107   2295891   2295765  
  6370.000000   2295711   2295689   2295648   2295532   2295302  
  6360.000000   2294938   2294454   2293877   2293246   2292589  
  6350.000000   2291919   2291231   2290516   2289766   2288993  
  6340.000000   2288216   2287470   2286774   2286139   2285549  
  6330.000000   2284978   2284387   2283750   2283045   2282270  
  6320.000000   2281427   2280527   2279578   2278589   2277563  
  6310.000000   2276508   2275427   2274328   2273213   2272087  
  6300.000000   2270950   2269812   2268677   2267562   2266470  
  6290.000000   2265406   2264356   2263304   2262222   2261096  
  6280.000000   2259912   2258676   2257393   2256073   2254714  
  6270.000000   2253311   2251846   2250312   2248707   2247047  
  6260.000000   2245356   2243664   2241994   2240358   2238752  
  6250.000000   2237164   2235572   2233959   2232307   2230605  
  6240.000000   2228848   2227045   2225210   2223376   2221576  
  6230.000000   2219845   2218200   2216639   2215136   2213649  
  6220.000000   2212139   2210581   2208975   2207346   2205730  
  6210.000000   2204157   2202643   2201182   2199754   2198333  
  6200.000000   2196906   2195474   2194051   2192653   2191288  
  6190.000000   2189952   2188630   2187306   2185973   2184636  
  6180.000000   2183314   2182023   2180776   2179571   2178391  
  6170.000000   2177217   2176032   2174830   2173615   2172396  
  6160.000000   2171180   2169966   2168745   2167503   2166229  
  6150.000000   2164921   2163585   2162235   2160886   2159551  
  6140.000000   2158238   2156952   2155695   2154464   2153255  
  6130.000000   2152058   2150859   2149643   2148404   2147143  
  6120.000000   2145879   2144636   2143443   2142314   2141255  
  6110.000000   2140250   2139280   2138325   2137379   2136450  
  6100.000000   2135562   2134733   2133986   2133320   2132735  
  6090.000000   2132213   2131747   2131325   2130950   2130613  
  6080.000000   2130314   2130037   2129777   2129518   2129268  
  6070.000000   2129029   2128824   2128664   2128567   2128531  
  6060.000000   2128565   2128661   2128828   2129064   2129384  
  6050.000000   2129783   2130267   2130818   2131440   2132128  
  6040.000000   2132906   2133795   2134836   2136047   2137444  
  6030.000000   2139006   2140707   2142499   2144352   2146232  
  6020.000000   2148138   2150063   2152023   2154016   2156051  
  6010.000000   2158118   2160218   2162336   2164479   2166634  
  6000.000000   2168808   2170990   2173191   2175414   2177686  
  5990.000000   2180027   2182476   2185054   2187790   2190678  
  5980.000000   2193720   2196887   2200161   2203504   2206900  
  5970.000000   2210314   2213739   2217162   2220604   2224087  
  5960.000000   2227665   2231381   2235283   2239381   2243671  
  5950.000000   2248105   2252633   2257191   2261742   2266268  
  5940.000000   2270777   2275293   2279843   2284443   2289097  
  5930.000000   2293795   2298512   2303219   2307877   2312450  
  5920.000000   2316891   2321165   2325239   2329105   2332768  
  5910.000000   2336262   2339620   2342880   2346056   2349156  
  5900.000000   2352163   2355075   2357889   2360639   2363357  
  5890.000000   2366099   2368887   2371740   2374633   2377535  
  5880.000000   2380387   2383146   2385767   2388225   2390499  
  5870.000000   2392590   2394504   2396272   2397938   2399560  
  5860.000000   2401201   2402912   2404724   2406640   2408642  
  5850.000000   2410706   2412812   2414955   2417143   2419392  
  5840.000000   2421716   2424112   2426571   2429068   2431589  
  5830.000000   2434119   2436658   2439203   2441756   2444304  
  5820.000000   2446836   2449336   2451806   2454259   2456717  
  5810.000000   2459204   2461726   2464280   2466831   2469362  
  5800.000000   2471838   2474283   2476704   2479156   2481644  
  5790.000000   2484180   2486693   2489109   2491283   2493096  
  5780.000000   2494403   2495114   2495149   2494495   2493165  
  5770.000000   2491243   2488834   2486097   2483181   2480252  
  5760.000000   2477420   2474784   2472374   2470214   2468280  
  5750.000000   2466566   2465037   2463668   2462415   2461233  
  5740.000000   2460074   2458896   2457681   2456424   2455150  
  5730.000000   2453878   2452635   2451423   2450244   2449080  
  5720.000000   2447930   2446793   2445684   2444619   2443614  
  5710.000000   2442672   2441786   2440941   2440130   2439350  
  5700.000000   2438610   2437922   2437292   2436719   2436187  
  5690.000000   2435679   2435176   2434675   2434170   2433674  
  5680.000000   2433177   2432675   2432132   2431514   2430768  
  5670.000000   2429852   2428718   2427336   2425677   2423741  
  5660.000000   2421541   2419127   2416562   2413938   2411334  
  5650.000000   2408820   2406426   2404158   2401990   2399897  
  5640.000000   2397856   2395866   2393938   2392089   2390328  
  5630.000000   2388650   2387043   2385483   2383962   2382474  
  5620.000000   2381029   2379632   2378292   2376995   2375733  
  5610.000000   2374488   2373261   2372061   2370910   2369825  
  5600.000000   2368815   2367870   2366966   2366071   2365164  
  5590.000000   2364233   2363285   2362333   2361388   2360455  
  5580.000000   2359528   2358598   2357657   2356697   2355716  
  5570.000000   2354708   2353659   2352554   2351376   2350121  
  5560.000000   2348804   2347459   2346125   2344839   2343615  
  5550.000000   2342447   2341306   2340162   2338993   2337800  
  5540.000000   2336600   2335421   2334278   2333175   2332091  
  5530.000000   2331003   2329889   2328743   2327577   2326410  
  5520.000000   2325262   2324140   2323033   2321925   2320791  
  5510.000000   2319623   2318416   2317180   2315924   2314659  
  5500.000000   2313384   2312105   2310817   2309527   2308231  
  5490.000000   2306923   2305582   2304182   2302691   2301093  
  5480.000000   2299384   2297591   2295751   2293911   2292099  
  5470.000000   2290331   2288595   2286875   2285147   2283401  
  5460.000000   2281628   2279830   2278000   2276132   2274217  
  5450.000000   2272253   2270254   2268248   2266273   2264355  
  5440.000000   2262508   2260719   2258966   2257226   2255491  
  5430.000000   2253773   2252099   2250494   2248975   2247534  
  5420.000000   2246159   2244829   2243547   2242321   2241185  
  5410.000000   2240155   2239247   2238437   2237708   2237024  
  5400.000000   2236389   2235808   2235331   2234986   2234820  
  5390.000000   2234828   2235013   2235342   2235818   2236430  
  5380.000000   2237209   2238156   2239293   2240586   2242025  
  5370.000000   2243556   2245182   2246884   2248715   2250686  
  5360.000000   2252867   2255259   2257917   2260825   2264043  
  5350.000000   2267567   2271471   2275745   2280444   2285518  
  5340.000000   2290996   2296816   2303035   2309625   2316679  
  5330.000000   2324177   2332195   2340667   2349633   2359011  
  5320.000000   2368866   2379171   2390058   2401541   2413771  
  5310.000000   2426730   2440516   2455048   2470376   2486407  
  5300.000000   2503208   2520724   2539067   2558219   2578301  
  5290.000000   2599280   2621216   2643995   2667579   2691789  
  5280.000000   2716567   2741789   2767499   2793702   2820528  
  5270.000000   2848005   2876168   2904897   2934029   2963335  
  5260.000000   2992630   3021808   3050862   3079868   3108886  
  5250.000000   3137954   3166965   3195772   3224107   3251808  
  5240.000000   3278691   3304788   3330108   3354829   3378999  
  5230.000000   3402750   3426003   3448745   3470781   3492059  
  5220.000000   3512420   3531923   3550544   3568463   3585723  
  5210.000000   3602502   3618761   3634551   3649697   3664163  
  5200.000000   3677766   3690540   3702421   3713556   3723943  
  5190.000000   3733722   3742834   3751333   3759102   3766175  
  5180.000000   3772471   3778083   3782987   3787302   3790992  
  5170.000000   3794138   3796672   3798658   3800047   3800926  
  5160.000000   3801275   3801183   3800617   3799635   3798183  
  5150.000000   3796315   3794003   3791324   3788277   3784940  
  5140.000000   3781295   3777391   3773195   3768746   3764024  
  5130.000000   3759080   3753909   3748556   3743004   3737279  
  5120.000000   3731364   3725290   3719066   3712744   3706349  
  5110.000000   3699924   3693475   3687021   3680553   3674087  
  5100.000000   3667629   3661205   3654829   3648516   3642259  
  5090.000000   3636054   3629884   3623744   3617630   3611552  
  5080.000000   3605509   3599500   3593502   3587490   3581433  
  5070.000000   3575314   3569120   3562863   3556548   3550191  
  5060.000000   3543789   3537341   3530827   3524242   3517568  
  5050.000000   3510808   3503954   3497011   3489972   3482846  
  5040.000000   3475636   3468366   3461059   3453748   3446456  
  5030.000000   3439197   3431965   3424752   3417544   3410337  
  5020.000000   3403143   3395982   3388885   3381872   3374964  
  5010.000000   3368155   3361449   3354829   3348306   3341877  
  5000.000000   3335573   3329402   3323403   3317577   3311961  
  4990.000000   3306551   3301383   3296448   3291777   3287346  
  4980.000000   3283171   3279212   3275483   3271956   3268677  
  4970.000000   3265650   3262947   3260577   3258597   3256972  
  4960.000000   3255719   3254768   3254128   3253744   3253661  
  4950.000000   3253866   3254433   3255357   3256705   3258444  
  4940.000000   3260614   3263162   3266115   3269422   3273118  
  4930.000000   3277162   3281594   3286379   3291558   3297102  
  4920.000000   3303055   3309389   3316142   3323281   3330826  
  4910.000000   3338730   3346990   3355547   3364383   3373436  
  4900.000000   3382677   3392053   3401539   3411103   3420728  
  4890.000000   3430400   3440094   3449789   3459425   3468954  
  4880.000000   3478283   3487355   3496073   3504404   3512267  
  4870.000000   3519653   3526495   3532796   3538498   3543624  
  4860.000000   3548135   3552080   3555447   3558302   3560639  
  4850.000000   3562528   3563966   3565027   3565726   3566147  
  4840.000000   3566322   3566335   3566215   3566029   3565791  
  4830.000000   3565550   3565318   3565131   3565003   3564956  
  4820.000000   3564992   3565113   3565310   3565574   3565904  
  4810.000000   3566298   3566765   3567307   3567934   3568637  
  4800.000000   3569416   3570256   3571159   3572116   3573132  
  4790.000000   3574200   3575318   3576468   3577640   3578816  
  4780.000000   3579994   3581175   3582372   3583597   3584858  
  4770.000000   3586148   3587453   3588751   3590020   3591250  
  4760.000000   3592436   3593588   3594716   3595832   3596938  
  4750.000000   3598032   3599101   3600134   3601114   3602027  
  4740.000000   3602860   3603605   3604255   3604815   3605294  
  4730.000000   3605712   3606095   3606467   3606846   3607242  
  4720.000000   3607652   3608067   3608480   3608885   3609293  
  4710.000000   3609716   3610184   3610714   3611338   3612069  
  4700.000000   3612935   3613948   3615135   3616507   3618089  
  4690.000000   3619877   3621876   3624062   3626415   3628896  
  4680.000000   3631478   3634114   3636782   3639441   3642074  
  4670.000000   3644652   3647178   3649644   3652079   3654501  
  4660.000000   3656957   3659475   3662100   3664854   3667766  
  4650.000000   3670843   3674094   3677509   3681073   3684761  
  4640.000000   3688543   3692393   3696286   3700213   3704166  
  4630.000000   3708149   3712151   3716158   3720126   3724010  
  4620.000000   3727733   3731239   3734454   3737350   3739884  
  4610.000000   3742067   3743889   3745388   3746573   3747494  
  4600.000000   3748166   3748648   3748954   3749138   3749200  
  4590.000000   3749173   3749030   3748774   3748355   3747758  
  4580.000000   3746937   3745886   3744585   3743060   3741322  
  4570.000000   3739423   3737393   3735287   3733133   3730970  
  4560.000000   3728806   3726659   3724518   3722384   3720239  
  4550.000000   3718078   3715886   3713661   3711398   3709098  
  4540.000000   3706765   3704404   3702026   3699639   3697261  
  4530.000000   3694902   3692583   3690312   3688110   3685970  
  4520.000000   3683910   3681909   3679984   3678115   3676341  
  4510.000000   3674663   3673160   3671858   3670869   3670224  
  4500.000000   3670031   3670297   3671109   3672445   3674382  
  4490.000000   3676897   3680079   3683913   3688496   3693800  
  4480.000000   3699899   3706736   3714352   3722664   3731702  
  4470.000000   3741380   3751721   3762636   3774138   3786130  
  4460.000000   3798610   3811481   3824738   3838301   3852168  
  4450.000000   3866273   3880611   3895126   3909807   3924616  
  4440.000000   3939538   3954551   3969632   3984755   3999869  
  4430.000000   4014930   4029852   4044586   4059033   4073160  
  4420.000000   4086882   4100190   4113015   4125366   4137177  
  4410.000000   4148457   4159137   4169228   4178666   4187482  
  4400.000000   4195645   4203223   4210231   4216774   4222899  
  4390.000000   4228730   4234320   4239781   4245152   4250510  
  4380.000000   4255860   4261241   4266627   4272031   4277426  
  4370.000000   4282824   4288213   4293611   4299009   4304415  
  4360.000000   4309804   4315171   4320475   4325720   4330854  
  4350.000000   4335902   4340799   4345589   4350216   4354757  
  4340.000000   4359185   4363589   4367906   4372086   4375851  
  4330.000000   4378857   4380572   4380489   4378146   4373344  
  4320.000000   4366164   4357056   4346700   4335939   4325545  
  4310.000000   4316148   4308081   4301446   4296105   4291835  
  4300.000000   4288377   4285535   4283192   4281283   4279811  
  4290.000000   4278745   4278099   4277820   4277918   4278350  
  4280.000000   4279141   4280274   4281755   4283561   4285650  
  4270.000000   4287975   4290452   4292988   4295425   4297563  
  4260.000000   4299124   4299806   4299301   4297392   4293983  
  4250.000000   4289171   4283207   4276497   4269476   4262592  
  4240.000000   4256161   4250409   4245380   4241046   4237267  
  4230.000000   4233905   4230800   4227832   4224906   4221955  
  4220.000000   4218959   4215901   4212834   4209787   4206865  
  4210.000000   4204124   4201672   4199542   4197794   4196412  
  4200.000000   4195393   4194678   4194234   4193988   4193913  
  4190.000000   4193951   4194110   4194362   4194750   4195271  
  4180.000000   4195986   4196889   4198036   4199408   4201055  
  4170.000000   4202964   4205198   4207763   4210738   4214130  
  4160.000000   4218002   4222328   4227139   4232376   4238050  
  4150.000000   4244098   4250535   4257310   4264453   4271923  
  4140.000000   4279765   4287945   4296515   4305440   4314763  
  4130.000000   4324429   4334456   4344774   4355394   4366268  
  4120.000000   4377445   4388934   4400832   4413188   4426099  
  4110.000000   4439582   4453668   4468298   4483418   4498906  
  4100.000000   4514672   4530601   4546631   4562704   4578811  
  4090.000000   4594949   4611127   4627350   4643607   4659892  
  4080.000000   4676174   4692455   4708699   4724916   4741045  
  4070.000000   4757065   4772858   4788368   4803451   4818069  
  4060.000000   4832119   4845616   4858497   4870806   4882477  
  4050.000000   4893555   4903978   4913814   4923024   4931698  
  4040.000000   4939788   4947357   4954317   4960705   4966436  
  4030.000000   4971580   4976099   4980097   4983551   4986531  
  4020.000000   4988959   4990866   4992205   4993022   4993277  
  4010.000000   4993079   4992491   4991547   4990103   4988210  
  4000.000000   4986087  
##END= 
