##TITLE= Sample 016 By ssteindl date Dienstag, November 20 2018
##JCAMP-DX= 4.24
##DATA TYPE= INFRARED SPECTRUM
##ORIGIN= Exported PE Spectrum Data File
##OWNER= Sandra Steindl
##DATE= 18/11/20
##TIME= 10:10:41.00
##SPECTROMETER/DATA SYSTEM= PERKIN-ELMER Frontier FT-IR/NIR IR
##INSTRUMENT PARAMETERS=
  APODIZATION=stark
  DETECTOR=INGAAS
##RESOLUTION= 16.000000
##DELTAX= -2.000000
##XUNITS= 1/CM
##YUNITS= A
##XFACTOR= 1.00
##YFACTOR= 0.00000011920928955078
##FIRSTX= 10000.00
##LASTX= 4000.00
##NPOINTS= 3001
##FIRSTY= 0.199707
##MAXY= 0.615405
##MINY= 0.171197
##XYDATA= (X++(Y..Y))
 10000.000000   1675267   1672422   1670493   1670737   1673453  
  9990.000000   1677845   1682854   1687348   1690233   1690662  
  9980.000000   1688474   1684228   1679003   1674197   1671252  
  9970.000000   1671334   1674935   1681784   1690795   1700384  
  9960.000000   1708793   1714594   1716952   1715870   1712004  
  9950.000000   1706465   1700383   1694627   1689665   1685567  
  9940.000000   1682202   1679337   1676748   1674210   1671403  
  9930.000000   1667989   1663583   1658072   1651669   1645119  
  9920.000000   1639502   1635978   1635363   1637765   1642546  
  9910.000000   1648384   1653789   1657383   1658383   1656574  
  9900.000000   1652373   1646498   1639857   1633330   1627754  
  9890.000000   1623898   1622403   1623720   1627882   1634503  
  9880.000000   1642643   1651102   1658563   1663997   1666842  
  9870.000000   1667079   1665173   1661733   1657397   1652520  
  9860.000000   1647310   1641815   1636150   1630541   1625317  
  9850.000000   1620885   1617538   1615510   1614829   1615463  
  9840.000000   1617241   1619955   1623308   1626928   1630394  
  9830.000000   1633252   1635155   1635907   1635600   1634530  
  9820.000000   1633159   1631877   1630919   1630241   1629625  
  9810.000000   1628766   1627435   1625578   1623296   1620855  
  9800.000000   1618508   1616521   1615028   1614126   1613853  
  9790.000000   1614246   1615333   1617052   1619199   1621354  
  9780.000000   1622940   1623325   1622046   1618973   1614462  
  9770.000000   1609291   1604494   1601065   1599619   1600243  
  9760.000000   1602411   1605222   1607693   1609109   1609261  
  9750.000000   1608408   1607106   1605853   1604845   1603865  
  9740.000000   1602447   1600160   1596940   1593263   1590033  
  9730.000000   1588327   1588869   1591802   1596444   1601596  
  9720.000000   1605880   1608232   1608248   1606136   1602600  
  9710.000000   1598344   1593867   1589234   1584255   1578707  
  9700.000000   1572636   1566508   1561128   1557450   1556184  
  9690.000000   1557638   1561505   1567059   1573268   1579102  
  9680.000000   1583719   1586549   1587426   1586442   1584040  
  9670.000000   1580766   1577293   1574167   1571738   1570057  
  9660.000000   1568895   1567921   1566851   1565715   1564832  
  9650.000000   1564776   1566051   1568828   1572732   1576850  
  9640.000000   1580029   1581217   1579912   1576290   1571203  
  9630.000000   1565872   1561505   1558989   1558658   1560371  
  9620.000000   1563585   1567643   1571867   1575704   1578695  
  9610.000000   1580515   1580955   1579986   1577752   1574563  
  9600.000000   1570809   1566843   1562936   1559221   1555799  
  9590.000000   1552769   1550277   1548478   1547395   1546864  
  9580.000000   1546459   1545645   1543965   1541290   1537975  
  9570.000000   1534789   1532695   1532437   1534233   1537604  
  9560.000000   1541538   1544843   1546604   1546495   1544863  
  9550.000000   1542524   1540424   1539250   1539256   1540194  
  9540.000000   1541568   1542782   1543442   1543346   1542507  
  9530.000000   1541027   1539004   1536605   1534068   1531858  
  9520.000000   1530566   1530835   1533075   1537297   1542986  
  9510.000000   1549197   1554774   1558667   1560213   1559262  
  9500.000000   1556184   1551666   1546520   1541448   1536949  
  9490.000000   1533303   1530599   1528841   1527939   1527779  
  9480.000000   1528160   1528854   1529582   1530089   1530172  
  9470.000000   1529705   1528686   1527176   1525342   1523374  
  9460.000000   1521505   1519964   1518965   1518677   1519191  
  9450.000000   1520498   1522484   1524919   1527488   1529793  
  9440.000000   1531419   1531985   1531267   1529283   1526337  
  9430.000000   1523012   1520006   1518013   1517461   1518460  
  9420.000000   1520727   1523720   1526780   1529299   1530836  
  9410.000000   1531115   1530007   1527461   1523517   1518328  
  9400.000000   1512257   1505908   1500126   1495834   1493772  
  9390.000000   1494248   1496933   1500976   1505199   1508520  
  9380.000000   1510209   1510103   1508572   1506327   1504173  
  9370.000000   1502671   1502038   1502100   1502473   1502713  
  9360.000000   1502464   1501539   1499915   1497760   1495349  
  9350.000000   1493049   1491185   1489979   1489464   1489433  
  9340.000000   1489505   1489172   1488038   1485917   1483004  
  9330.000000   1479776   1476872   1474820   1473883   1473966  
  9320.000000   1474736   1475775   1476800   1477779   1478921  
  9310.000000   1480551   1482883   1485918   1489385   1492867  
  9300.000000   1495951   1498374   1500102   1501254   1502012  
  9290.000000   1502466   1502592   1502251   1501286   1499605  
  9280.000000   1497233   1494349   1491223   1488201   1485578  
  9270.000000   1483640   1482556   1482458   1483313   1484960  
  9260.000000   1487036   1489068   1490563   1491136   1490605  
  9250.000000   1489018   1486624   1483772   1480815   1478007  
  9240.000000   1475502   1473371   1471672   1470454   1469729  
  9230.000000   1469400   1469240   1468911   1468088   1466556  
  9220.000000   1464342   1461704   1459099   1456998   1455740  
  9210.000000   1455432   1455941   1457025   1458442   1460092  
  9200.000000   1462003   1464251   1466836   1469576   1472111  
  9190.000000   1473952   1474637   1473876   1471684   1468360  
  9180.000000   1464425   1460475   1457076   1454652   1453417  
  9170.000000   1453317   1454049   1455128   1455997   1456139  
  9160.000000   1455206   1453179   1450421   1447601   1445487  
  9150.000000   1444726   1445656   1448206   1451909   1456067  
  9140.000000   1459963   1463062   1465100   1466061   1466124  
  9130.000000   1465516   1464479   1463161   1461662   1460022  
  9120.000000   1458273   1456450   1454580   1452743   1451058  
  9110.000000   1449789   1449256   1449790   1451533   1454353  
  9100.000000   1457767   1461014   1463242   1463769   1462370  
  9090.000000   1459337   1455432   1451607   1448733   1447291  
  9080.000000   1447264   1448196   1449405   1450269   1450404  
  9070.000000   1449794   1448699   1447555   1446761   1446576  
  9060.000000   1447044   1447998   1449135   1450077   1450507  
  9050.000000   1450182   1449053   1447250   1445110   1443062  
  9040.000000   1441511   1440706   1440662   1441172   1441888  
  9030.000000   1442487   1442817   1442978   1443269   1444047  
  9020.000000   1445535   1447690   1450192   1452532   1454214  
  9010.000000   1454936   1454714   1453835   1452723   1451782  
  9000.000000   1451251   1451183   1451454   1451891   1452345  
  8990.000000   1452739   1453035   1453189   1453118   1452695  
  8980.000000   1451803   1450408   1448620   1446674   1444872  
  8970.000000   1443484   1442657   1442404   1442596   1443090  
  8960.000000   1443767   1444612   1445670   1447005   1448635  
  8950.000000   1450433   1452151   1453419   1453893   1453288  
  8940.000000   1451519   1448707   1445242   1441680   1438639  
  8930.000000   1436668   1436102   1437008   1439112   1441929  
  8920.000000   1444856   1447387   1449214   1450316   1450902  
  8910.000000   1451273   1451671   1452138   1452536   1452573  
  8900.000000   1452002   1450704   1448826   1446699   1444747  
  8890.000000   1443321   1442563   1442398   1442550   1442718  
  8880.000000   1442681   1442425   1442129   1442111   1442682  
  8870.000000   1444033   1446139   1448745   1451418   1453657  
  8860.000000   1455048   1455333   1454524   1452851   1450760  
  8850.000000   1448738   1447221   1446433   1446368   1446787  
  8840.000000   1447346   1447720   1447753   1447526   1447330  
  8830.000000   1447578   1448640   1450704   1453707   1457334  
  8820.000000   1461152   1464704   1467675   1469915   1471483  
  8810.000000   1472552   1473362   1474121   1474992   1476067  
  8800.000000   1477379   1478909   1480584   1482294   1483878  
  8790.000000   1485203   1486166   1486793   1487207   1487639  
  8780.000000   1488327   1489439   1490988   1492797   1494545  
  8770.000000   1495856   1496428   1496145   1495119   1493691  
  8760.000000   1492315   1491464   1491466   1492451   1494297  
  8750.000000   1496689   1499209   1501434   1503049   1503890  
  8740.000000   1503975   1503441   1502511   1501392   1500276  
  8730.000000   1499300   1498584   1498236   1498371   1499100  
  8720.000000   1500489   1502539   1505130   1508062   1511069  
  8710.000000   1513896   1516350   1518324   1519827   1520928  
  8700.000000   1521759   1522431   1523061   1523713   1524440  
  8690.000000   1525254   1526130   1527013   1527819   1528493  
  8680.000000   1529027   1529521   1530158   1531175   1532763  
  8670.000000   1534995   1537745   1540699   1543426   1545514  
  8660.000000   1546722   1547068   1546852   1546530   1546587  
  8650.000000   1547330   1548817   1550813   1552899   1554623  
  8640.000000   1555674   1555997   1555817   1555572   1555755  
  8630.000000   1556767   1558763   1561645   1565088   1568662  
  8620.000000   1571961   1574703   1576811   1578371   1579578  
  8610.000000   1580610   1581560   1582395   1582999   1583249  
  8600.000000   1583116   1582729   1582365   1582396   1583139  
  8590.000000   1584779   1587257   1590297   1593452   1596246  
  8580.000000   1598310   1599461   1599744   1599385   1598735  
  8570.000000   1598159   1597976   1598379   1599442   1601101  
  8560.000000   1603196   1605491   1607737   1609721   1611324  
  8550.000000   1612542   1613487   1614353   1615338   1616584  
  8540.000000   1618121   1619896   1621817   1623825   1625921  
  8530.000000   1628170   1630642   1633323   1636053   1638526  
  8520.000000   1640380   1641312   1641206   1640211   1638726  
  8510.000000   1637294   1636432   1636497   1637595   1639591  
  8500.000000   1642165   1644946   1647589   1649857   1651596  
  8490.000000   1652760   1653376   1653564   1653523   1653516  
  8480.000000   1653842   1654720   1656235   1658239   1660413  
  8470.000000   1662313   1663548   1663903   1663450   1662506  
  8460.000000   1661542   1661029   1661298   1662466   1664419  
  8450.000000   1666937   1669776   1672782   1675871   1679025  
  8440.000000   1682202   1685302   1688125   1690417   1691957  
  8430.000000   1692617   1692430   1691549   1690230   1688739  
  8420.000000   1687303   1686086   1685150   1684534   1684218  
  8410.000000   1684216   1684512   1685118   1686004   1687141  
  8400.000000   1688458   1689856   1691208   1692352   1693139  
  8390.000000   1693428   1693154   1692314   1691014   1689438  
  8380.000000   1687825   1686423   1685419   1684939   1685004  
  8370.000000   1685582   1686562   1687820   1689203   1690567  
  8360.000000   1691754   1692618   1693035   1692927   1692286  
  8350.000000   1691165   1689687   1687999   1686265   1684629  
  8340.000000   1683198   1682048   1681206   1680681   1680423  
  8330.000000   1680369   1680398   1680401   1680277   1679982  
  8320.000000   1679531   1678995   1678473   1678025   1677646  
  8310.000000   1677237   1676657   1675757   1674474   1672850  
  8300.000000   1671053   1669322   1667895   1666934   1666464  
  8290.000000   1666397   1666558   1666776   1666922   1666966  
  8280.000000   1666957   1666985   1667123   1667382   1667700  
  8270.000000   1667953   1667995   1667695   1666965   1665795  
  8260.000000   1664244   1662444   1660564   1658788   1657284  
  8250.000000   1656161   1655433   1654995   1654632   1654082  
  8240.000000   1653107   1651593   1649586   1647321   1645153  
  8230.000000   1643475   1642584   1642587   1643343   1644519  
  8220.000000   1645677   1646412   1646457   1645748   1644410  
  8210.000000   1642706   1640920   1639275   1637863   1636652  
  8200.000000   1635520   1634324   1632942   1631318   1629445  
  8190.000000   1627374   1625156   1622855   1620514   1618176  
  8180.000000   1615874   1613638   1611484   1609406   1607374  
  8170.000000   1605343   1603277   1601180   1599115   1597185  
  8160.000000   1595522   1594215   1593292   1592677   1592224  
  8150.000000   1591735   1591042   1590043   1588752   1587285  
  8140.000000   1585821   1584545   1583591   1583001   1582722  
  8130.000000   1582624   1582543   1582316   1581822   1580992  
  8120.000000   1579814   1578324   1576598   1574731   1572830  
  8110.000000   1570987   1569279   1567747   1566401   1565226  
  8100.000000   1564193   1563285   1562494   1561842   1561353  
  8090.000000   1561049   1560919   1560912   1560946   1560918  
  8080.000000   1560740   1560350   1559739   1558933   1557988  
  8070.000000   1556970   1555932   1554912   1553931   1552999  
  8060.000000   1552121   1551294   1550506   1549725   1548896  
  8050.000000   1547960   1546862   1545585   1544161   1542681  
  8040.000000   1541277   1540086   1539222   1538728   1538576  
  8030.000000   1538656   1538820   1538906   1538790   1538403  
  8020.000000   1537751   1536902   1535970   1535081   1534355  
  8010.000000   1533877   1533683   1533754   1534019   1534370  
  8000.000000   1534677   1534824   1534723   1534345   1533717  
  7990.000000   1532914   1532039   1531193   1530444   1529818  
  7980.000000   1529295   1528828   1528364   1527869   1527339  
  7970.000000   1526799   1526285   1525820   1525402   1524991  
  7960.000000   1524534   1523972   1523278   1522469   1521612  
  7950.000000   1520812   1520183   1519821   1519780   1520049  
  7940.000000   1520565   1521217   1521877   1522412   1522726  
  7930.000000   1522749   1522475   1521932   1521206   1520404  
  7920.000000   1519653   1519072   1518752   1518746   1519054  
  7910.000000   1519633   1520407   1521282   1522167   1522980  
  7900.000000   1523661   1524161   1524451   1524511   1524343  
  7890.000000   1523969   1523446   1522866   1522347   1522019  
  7880.000000   1521992   1522337   1523050   1524056   1525207  
  7870.000000   1526317   1527201   1527716   1527799   1527478  
  7860.000000   1526870   1526142   1525473   1525007   1524819  
  7850.000000   1524913   1525223   1525660   1526137   1526598  
  7840.000000   1527025   1527428   1527813   1528171   1528461  
  7830.000000   1528624   1528609   1528398   1528027   1527583  
  7820.000000   1527175   1526900   1526802   1526860   1526986  
  7810.000000   1527067   1526994   1526710   1526219   1525585  
  7800.000000   1524903   1524268   1523747   1523370   1523130  
  7790.000000   1523001   1522948   1522937   1522937   1522911  
  7780.000000   1522825   1522644   1522350   1521948   1521470  
  7770.000000   1520972   1520516   1520161   1519940   1519876  
  7760.000000   1519963   1520195   1520552   1521003   1521491  
  7750.000000   1521929   1522206   1522206   1521840   1521077  
  7740.000000   1519964   1518608   1517160   1515762   1514514  
  7730.000000   1513461   1512591   1511873   1511278   1510807  
  7720.000000   1510481   1510328   1510350   1510507   1510725  
  7710.000000   1510910   1510989   1510930   1510759   1510530  
  7700.000000   1510318   1510166   1510083   1510035   1509973  
  7690.000000   1509852   1509656   1509407   1509151   1508944  
  7680.000000   1508825   1508808   1508875   1508993   1509120  
  7670.000000   1509215   1509251   1509205   1509075   1508860  
  7660.000000   1508576   1508238   1507862   1507459   1507034  
  7650.000000   1506599   1506174   1505811   1505589   1505604  
  7640.000000   1505937   1506623   1507613   1508771   1509895  
  7630.000000   1510762   1511209   1511164   1510688   1509936  
  7620.000000   1509115   1508404   1507921   1507686   1507654  
  7610.000000   1507741   1507880   1508041   1508235   1508495  
  7600.000000   1508838   1509254   1509701   1510130   1510513  
  7590.000000   1510863   1511239   1511715   1512349   1513143  
  7580.000000   1514031   1514889   1515577   1515975   1516035  
  7570.000000   1515786   1515337   1514838   1514443   1514261  
  7560.000000   1514342   1514666   1515166   1515751   1516335  
  7550.000000   1516861   1517309   1517697   1518072   1518482  
  7540.000000   1518975   1519570   1520276   1521066   1521920  
  7530.000000   1522800   1523685   1524557   1525413   1526256  
  7520.000000   1527106   1527983   1528924   1529961   1531125  
  7510.000000   1532423   1533843   1535336   1536838   1538271  
  7500.000000   1539579   1540729   1541738   1542653   1543547  
  7490.000000   1544488   1545526   1546682   1547948   1549301  
  7480.000000   1550713   1552160   1553630   1555111   1556588  
  7470.000000   1558031   1559399   1560641   1561727   1562639  
  7460.000000   1563403   1564073   1564741   1565502   1566450  
  7450.000000   1567644   1569107   1570816   1572718   1574740  
  7440.000000   1576814   1578891   1580954   1583016   1585104  
  7430.000000   1587245   1589456   1591723   1594024   1596314  
  7420.000000   1598562   1600739   1602830   1604821   1606694  
  7410.000000   1608428   1610003   1611417   1612709   1613960  
  7400.000000   1615287   1616815   1618638   1620790   1623218  
  7390.000000   1625808   1628409   1630882   1633146   1635192  
  7380.000000   1637081   1638906   1640754   1642668   1644632  
  7370.000000   1646590   1648476   1650253   1651936   1653597  
  7360.000000   1655334   1657241   1659356   1661646   1664001  
  7350.000000   1666263   1668270   1669909   1671158   1672095  
  7340.000000   1672875   1673689   1674710   1676052   1677742  
  7330.000000   1679724   1681888   1684101   1686242   1688234  
  7320.000000   1690051   1691722   1693303   1694857   1696438  
  7310.000000   1698074   1699764   1701478   1703179   1704828  
  7300.000000   1706405   1707914   1709385   1710865   1712397  
  7290.000000   1714013   1715706   1717439   1719146   1720753  
  7280.000000   1722210   1723499   1724651   1725727   1726807  
  7270.000000   1727957   1729217   1730580   1732013   1733467  
  7260.000000   1734905   1736306   1737681   1739055   1740469  
  7250.000000   1741950   1743531   1745225   1747051   1749004  
  7240.000000   1751088   1753268   1755511   1757758   1759973  
  7230.000000   1762134   1764275   1766457   1768780   1771318  
  7220.000000   1774122   1777171   1780406   1783717   1787004  
  7210.000000   1790183   1793230   1796159   1799031   1801902  
  7200.000000   1804828   1807831   1810919   1814075   1817293  
  7190.000000   1820555   1823864   1827213   1830604   1834022  
  7180.000000   1837461   1840897   1844317   1847699   1851036  
  7170.000000   1854318   1857573   1860836   1864190   1867711  
  7160.000000   1871481   1875532   1879854   1884374   1888998  
  7150.000000   1893616   1898162   1902608   1906995   1911379  
  7140.000000   1915836   1920391   1925044   1929746   1934462  
  7130.000000   1939166   1943896   1948708   1953688   1958888  
  7120.000000   1964325   1969954   1975704   1981484   1987239  
  7110.000000   1992940   1998602   2004242   2009887   2015532  
  7100.000000   2021172   2026788   2032384   2037972   2043585  
  7090.000000   2049247   2054973   2060755   2066574   2072411  
  7080.000000   2078263   2084140   2090069   2096063   2102120  
  7070.000000   2108203   2114258   2120226   2126068   2131775  
  7060.000000   2137371   2142899   2148407   2153932   2159494  
  7050.000000   2165096   2170727   2176370   2182000   2187588  
  7040.000000   2193101   2198514   2203811   2209006   2214134  
  7030.000000   2219250   2224401   2229618   2234890   2240178  
  7020.000000   2245415   2250549   2255539   2260387   2265111  
  7010.000000   2269747   2274310   2278812   2283238   2287586  
  7000.000000   2291853   2296071   2300265   2304472   2308690  
  6990.000000   2312901   2317045   2321067   2324910   2328558  
  6980.000000   2332013   2335316   2338504   2341621   2344685  
  6970.000000   2347709   2350682   2353601   2356446   2359209  
  6960.000000   2361874   2364442   2366918   2369334   2371724  
  6950.000000   2374138   2376604   2379134   2381698   2384252  
  6940.000000   2386737   2389117   2391376   2393538   2395635  
  6930.000000   2397707   2399768   2401813   2403808   2405725  
  6920.000000   2407537   2409248   2410869   2412431   2413949  
  6910.000000   2415440   2416899   2418328   2419722   2421088  
  6900.000000   2422423   2423724   2424966   2426126   2427178  
  6890.000000   2428117   2428963   2429760   2430558   2431392  
  6880.000000   2432269   2433164   2434032   2434832   2435547  
  6870.000000   2436200   2436850   2437576   2438452   2439526  
  6860.000000   2440811   2442284   2443894   2445568   2447229  
  6850.000000   2448799   2450220   2451454   2452501   2453401  
  6840.000000   2454224   2455058   2455976   2457020   2458181  
  6830.000000   2459410   2460627   2461761   2462754   2463588  
  6820.000000   2464266   2464816   2465258   2465618   2465909  
  6810.000000   2466155   2466381   2466628   2466920   2467272  
  6800.000000   2467661   2468043   2468357   2468555   2468609  
  6790.000000   2468533   2468365   2468163   2467979   2467850  
  6780.000000   2467799   2467833   2467952   2468151   2468416  
  6770.000000   2468724   2469043   2469338   2469588   2469791  
  6760.000000   2469974   2470178   2470448   2470800   2471225  
  6750.000000   2471680   2472116   2472492   2472804   2473074  
  6740.000000   2473352   2473680   2474083   2474559   2475082  
  6730.000000   2475629   2476189   2476776   2477416   2478128  
  6720.000000   2478909   2479720   2480502   2481193   2481751  
  6710.000000   2482176   2482499   2482775   2483049   2483349  
  6700.000000   2483668   2483982   2484256   2484468   2484605  
  6690.000000   2484673   2484675   2484620   2484502   2484324  
  6680.000000   2484082   2483790   2483461   2483116   2482762  
  6670.000000   2482406   2482039   2481661   2481270   2480882  
  6660.000000   2480508   2480161   2479837   2479522   2479186  
  6650.000000   2478803   2478344   2477798   2477155   2476411  
  6640.000000   2475560   2474601   2473535   2472387   2471191  
  6630.000000   2470002   2468867   2467823   2466871   2465995  
  6620.000000   2465145   2464280   2463358   2462361   2461279  
  6610.000000   2460117   2458874   2457556   2456167   2454729  
  6600.000000   2453270   2451829   2450436   2449103   2447813  
  6590.000000   2446530   2445213   2443837   2442403   2440942  
  6580.000000   2439495   2438101   2436773   2435495   2434234  
  6570.000000   2432952   2431627   2430256   2428856   2427447  
  6560.000000   2426041   2424638   2423227   2421801   2420363  
  6550.000000   2418931   2417525   2416160   2414827   2413504  
  6540.000000   2412157   2410766   2409336   2407902   2406514  
  6530.000000   2405214   2404017   2402896   2401797   2400652  
  6520.000000   2399414   2398070   2396648   2395204   2393803  
  6510.000000   2392499   2391319   2390263   2389313   2388438  
  6500.000000   2387602   2386770   2385901   2384960   2383915  
  6490.000000   2382751   2381474   2380115   2378714   2377314  
  6480.000000   2375940   2374596   2373261   2371909   2370516  
  6470.000000   2369078   2367610   2366142   2364700   2363302  
  6460.000000   2361941   2360596   2359230   2357810   2356316  
  6450.000000   2354744   2353118   2351478   2349878   2348374  
  6440.000000   2347012   2345808   2344752   2343795   2342872  
  6430.000000   2341910   2340865   2339721   2338518   2337316  
  6420.000000   2336197   2335217   2334410   2333758   2333228  
  6410.000000   2332769   2332347   2331945   2331573   2331242  
  6400.000000   2330971   2330756   2330588   2330442   2330303  
  6390.000000   2330155   2330001   2329845   2329700   2329575  
  6380.000000   2329480   2329424   2329409   2329436   2329495  
  6370.000000   2329567   2329621   2329626   2329557   2329409  
  6360.000000   2329193   2328934   2328653   2328362   2328051  
  6350.000000   2327698   2327279   2326786   2326226   2325634  
  6340.000000   2325043   2324485   2323961   2323458   2322941  
  6330.000000   2322386   2321773   2321113   2320420   2319719  
  6320.000000   2319015   2318302   2317558   2316764   2315905  
  6310.000000   2314991   2314038   2313073   2312106   2311142  
  6300.000000   2310164   2309159   2308111   2307023   2305904  
  6290.000000   2304769   2303626   2302477   2301310   2300113  
  6280.000000   2298871   2297580   2296236   2294845   2293413  
  6270.000000   2291952   2290473   2288999   2287551   2286153  
  6260.000000   2284813   2283525   2282260   2280982   2279651  
  6250.000000   2278245   2276765   2275235   2273688   2272152  
  6240.000000   2270642   2269156   2267682   2266209   2264738  
  6230.000000   2263278   2261848   2260459   2259110   2257788  
  6220.000000   2256475   2255158   2253840   2252541   2251286  
  6210.000000   2250096   2248978   2247914   2246877   2245834  
  6200.000000   2244770   2243680   2242583   2241498   2240444  
  6190.000000   2239426   2238441   2237480   2236538   2235612  
  6180.000000   2234709   2233832   2232978   2232139   2231298  
  6170.000000   2230444   2229570   2228680   2227784   2226891  
  6160.000000   2226002   2225112   2224210   2223286   2222335  
  6150.000000   2221362   2220373   2219375   2218368   2217345  
  6140.000000   2216302   2215232   2214143   2213047   2211962  
  6130.000000   2210901   2209875   2208886   2207942   2207049  
  6120.000000   2206227   2205491   2204854   2204306   2203824  
  6110.000000   2203364   2202885   2202354   2201769   2201150  
  6100.000000   2200539   2199981   2199515   2199156   2198908  
  6090.000000   2198749   2198662   2198615   2198588   2198552  
  6080.000000   2198491   2198386   2198239   2198062   2197896  
  6070.000000   2197775   2197749   2197834   2198040   2198341  
  6060.000000   2198718   2199136   2199594   2200090   2200654  
  6050.000000   2201298   2202051   2202910   2203891   2204983  
  6040.000000   2206208   2207567   2209087   2210763   2212599  
  6030.000000   2214569   2216659   2218841   2221118   2223479  
  6020.000000   2225940   2228487   2231112   2233773   2236447  
  6010.000000   2239099   2241738   2244374   2247057   2249814  
  6000.000000   2252682   2255656   2258732   2261881   2265098  
  5990.000000   2268373   2271734   2275193   2278785   2282512  
  5980.000000   2286386   2290393   2294538   2298814   2303240  
  5970.000000   2307816   2312553   2317432   2322442   2327543  
  5960.000000   2332716   2337922   2343151   2348370   2353571  
  5950.000000   2358727   2363838   2368906   2373970   2379082  
  5940.000000   2384306   2389703   2395305   2401120   2407112  
  5930.000000   2413227   2419393   2425545   2431610   2437533  
  5920.000000   2443247   2448699   2453833   2458622   2463060  
  5910.000000   2467188   2471060   2474753   2478321   2481813  
  5900.000000   2485229   2488576   2491831   2495010   2498119  
  5890.000000   2501208   2504301   2507436   2510605   2513799  
  5880.000000   2516970   2520079   2523072   2525916   2528580  
  5870.000000   2531049   2533320   2535408   2537341   2539167  
  5860.000000   2540938   2542712   2544533   2546436   2548441  
  5850.000000   2550559   2552795   2555151   2557621   2560191  
  5840.000000   2562828   2565490   2568134   2570723   2573245  
  5830.000000   2575706   2578139   2580573   2583035   2585528  
  5820.000000   2588045   2590563   2593068   2595556   2598031  
  5810.000000   2600508   2602987   2605471   2607935   2610376  
  5800.000000   2612776   2615164   2617547   2619972   2622430  
  5790.000000   2624923   2627372   2629710   2631803   2633546  
  5780.000000   2634802   2635480   2635483   2634782   2633364  
  5770.000000   2631305   2628708   2625748   2622586   2619402  
  5760.000000   2616300   2613363   2610594   2607997   2605542  
  5750.000000   2603238   2601085   2599112   2597317   2595688  
  5740.000000   2594177   2592721   2591263   2589752   2588178  
  5730.000000   2586539   2584863   2583168   2581482   2579816  
  5720.000000   2578190   2576616   2575118   2573706   2572389  
  5710.000000   2571156   2569992   2568875   2567790   2566732  
  5700.000000   2565706   2564721   2563776   2562863   2561961  
  5690.000000   2561055   2560132   2559205   2558282   2557392  
  5680.000000   2556529   2555681   2554792   2553804   2552635  
  5670.000000   2551229   2549531   2547523   2545194   2542564  
  5660.000000   2539659   2536533   2533246   2529880   2526510  
  5650.000000   2523209   2520022   2516977   2514078   2511320  
  5640.000000   2508694   2506194   2503817   2501558   2499407  
  5630.000000   2497342   2495353   2493421   2491557   2489768  
  5620.000000   2488080   2486496   2485017   2483612   2482253  
  5610.000000   2480903   2479558   2478223   2476933   2475718  
  5600.000000   2474607   2473597   2472674   2471804   2470962  
  5590.000000   2470133   2469318   2468528   2467772   2467050  
  5580.000000   2466349   2465646   2464921   2464160   2463357  
  5570.000000   2462514   2461635   2460721   2459769   2458780  
  5560.000000   2457758   2456720   2455686   2454676   2453698  
  5550.000000   2452753   2451822   2450887   2449930   2448941  
  5540.000000   2447918   2446864   2445780   2444665   2443517  
  5530.000000   2442344   2441163   2440002   2438895   2437868  
  5520.000000   2436931   2436076   2435273   2434492   2433700  
  5510.000000   2432879   2432014   2431103   2430135   2429105  
  5500.000000   2428001   2426828   2425597   2424335   2423069  
  5490.000000   2421821   2420583   2419332   2418024   2416622  
  5480.000000   2415103   2413477   2411772   2410036   2408306  
  5470.000000   2406610   2404949   2403320   2401706   2400098  
  5460.000000   2398487   2396867   2395221   2393532   2391778  
  5450.000000   2389948   2388048   2386105   2384161   2382255  
  5440.000000   2380417   2378653   2376964   2375337   2373771  
  5430.000000   2372269   2370841   2369482   2368182   2366906  
  5420.000000   2365634   2364346   2363072   2361856   2360779  
  5410.000000   2359892   2359235   2358782   2358493   2358292  
  5400.000000   2358143   2358010   2357916   2357881   2357955  
  5390.000000   2358151   2358496   2358976   2359608   2360384  
  5380.000000   2361335   2362460   2363779   2365262   2366906  
  5370.000000   2368667   2370556   2372554   2374709   2377020  
  5360.000000   2379542   2382255   2385200   2388350   2391765  
  5350.000000   2395445   2399477   2403869   2408697   2413924  
  5340.000000   2419587   2425621   2432074   2438902   2446186  
  5330.000000   2453896   2462115   2470791   2479986   2489643  
  5320.000000   2499846   2510574   2521952   2533975   2546768  
  5310.000000   2560294   2574638   2589722   2605615   2622246  
  5300.000000   2639702   2657940   2677063   2697029   2717920  
  5290.000000   2739657   2762257   2785579   2809571   2834067  
  5280.000000   2859029   2884371   2910165   2936447   2963356  
  5270.000000   2990925   3019174   3047969   3077125   3106401  
  5260.000000   3135602   3164625   3193464   3222201   3250904  
  5250.000000   3279619   3308244   3336649   3364579   3391889  
  5240.000000   3418410   3444184   3469223   3493703   3517667  
  5230.000000   3541240   3564346   3586976   3608944   3630204  
  5220.000000   3650603   3670191   3688928   3706968   3724330  
  5210.000000   3741167   3757438   3773191   3788278   3802681  
  5200.000000   3816247   3829024   3840961   3852199   3862742  
  5190.000000   3872722   3882090   3890903   3899056   3906590  
  5180.000000   3913428   3919660   3925258   3930326   3934825  
  5170.000000   3938827   3942269   3945213   3947616   3949565  
  5160.000000   3951036   3952103   3952718   3952912   3952614  
  5150.000000   3951857   3950606   3948936   3946854   3944445  
  5140.000000   3941707   3938695   3935387   3931828   3928010  
  5130.000000   3923994   3919787   3915443   3910951   3906336  
  5120.000000   3901571   3896675   3891646   3886524   3881330  
  5110.000000   3876103   3870850   3865585   3860300   3855006  
  5100.000000   3849710   3844445   3839237   3834117   3829091  
  5090.000000   3824155   3819282   3814448   3809625   3804807  
  5080.000000   3799986   3795173   3790365   3785565   3780756  
  5070.000000   3775927   3771047   3766102   3761060   3755912  
  5060.000000   3750633   3745224   3739673   3733993   3728184  
  5050.000000   3722266   3716233   3710096   3703842   3697475  
  5040.000000   3690989   3684405   3677734   3671008   3664242  
  5030.000000   3657452   3650634   3643785   3636895   3629968  
  5020.000000   3623016   3616064   3609146   3602291   3595532  
  5010.000000   3588880   3582354   3575949   3569677   3563527  
  5000.000000   3557509   3551611   3545843   3540193   3534683  
  4990.000000   3529313   3524123   3519123   3514355   3509817  
  4980.000000   3505534   3501478   3497658   3494034   3490625  
  4970.000000   3487404   3484409   3481628   3479111   3476843  
  4960.000000   3474874   3473189   3471837   3470805   3470145  
  4950.000000   3469837   3469928   3470379   3471225   3472416  
  4940.000000   3473984   3475884   3478160   3480778   3483791  
  4930.000000   3487168   3490962   3495141   3499757   3504776  
  4920.000000   3510247   3516133   3522475   3529230   3536426  
  4910.000000   3544019   3552027   3560411   3569178   3578286  
  4900.000000   3587724   3597442   3607411   3617584   3627921  
  4890.000000   3638381   3648907   3659446   3669901   3680198  
  4880.000000   3690207   3699855   3709015   3717648   3725653  
  4870.000000   3733026   3739679   3745621   3750770   3755153  
  4860.000000   3758708   3761491   3763474   3764739   3765278  
  4850.000000   3765183   3764455   3763191   3761413   3759231  
  4840.000000   3756690   3753910   3750941   3747891   3744800  
  4830.000000   3741743   3738744   3735847   3733064   3730413  
  4820.000000   3727899   3725526   3723304   3721235   3719339  
  4810.000000   3717619   3716098   3714772   3713655   3712725  
  4800.000000   3711991   3711428   3711048   3710838   3710819  
  4790.000000   3710978   3711325   3711834   3712495   3713271  
  4780.000000   3714150   3715103   3716132   3717223   3718386  
  4770.000000   3719606   3720883   3722197   3723543   3724907  
  4760.000000   3726291   3727696   3729133   3730603   3732112  
  4750.000000   3733654   3735222   3736803   3738390   3739969  
  4740.000000   3741537   3743086   3744620   3746137   3747650  
  4730.000000   3749166   3750702   3752265   3753867   3755500  
  4720.000000   3757165   3758840   3760529   3762218   3763931  
  4710.000000   3765680   3767511   3769454   3771562   3773862  
  4700.000000   3776401   3779191   3782264   3785619   3789270  
  4690.000000   3793200   3797405   3801854   3806532   3811395  
  4680.000000   3816420   3821555   3826767   3831991   3837191  
  4670.000000   3842303   3847306   3852169   3856910   3861550  
  4660.000000   3866148   3870759   3875456   3880296   3885327  
  4650.000000   3890574   3896044   3901724   3907578   3913567  
  4640.000000   3919633   3925736   3931826   3937879   3943865  
  4630.000000   3949776   3955584   3961275   3966803   3972130  
  4620.000000   3977187   3981930   3986292   3990259   3993799  
  4610.000000   3996943   3999703   4002144   4004290   4006213  
  4600.000000   4007924   4009480   4010877   4012159   4013314  
  4590.000000   4014376   4015317   4016146   4016813   4017300  
  4580.000000   4017549   4017548   4017268   4016734   4015963  
  4570.000000   4015014   4013924   4012749   4011510   4010237  
  4560.000000   4008930   4007602   4006244   4004868   4003464  
  4550.000000   4002045   4000602   3999144   3997664   3996173  
  4540.000000   3994667   3993155   3991633   3990096   3988527  
  4530.000000   3986906   3985213   3983425   3981539   3979549  
  4520.000000   3977479   3975340   3973178   3971007   3968882  
  4510.000000   3966816   3964875   3963074   3961497   3960171  
  4500.000000   3959198   3958602   3958491   3958873   3959844  
  4490.000000   3961395   3963612   3966472   3970061   3974350  
  4480.000000   3979422   3985233   3991848   3999201   4007336  
  4470.000000   4016165   4025713   4035889   4046713   4058099  
  4460.000000   4070065   4082529   4095495   4108870   4122636  
  4450.000000   4136693   4151006   4165493   4180128   4194862  
  4440.000000   4209681   4224557   4239465   4254372   4269225  
  4430.000000   4283982   4298575   4312975   4327114   4340983  
  4420.000000   4354519   4367719   4380515   4392899   4404796  
  4410.000000   4416194   4427019   4437268   4446889   4455908  
  4400.000000   4464316   4472187   4479564   4486561   4493253  
  4390.000000   4499770   4506186   4512621   4519127   4525789  
  4380.000000   4532623   4539668   4546898   4554311   4561848  
  4370.000000   4569483   4577149   4584809   4592398   4599878  
  4360.000000   4607186   4614303   4621175   4627819   4634187  
  4350.000000   4640325   4646167   4651769   4657049   4662081  
  4340.000000   4666797   4671270   4675391   4679098   4682079  
  4330.000000   4683989   4684287   4682496   4678187   4671231  
  4320.000000   4661780   4650365   4637737   4624793   4612338  
  4310.000000   4601020   4591185   4582947   4576195   4570730  
  4300.000000   4566329   4562805   4560045   4557953   4556497  
  4290.000000   4555600   4555251   4555381   4556014   4557122  
  4280.000000   4558748   4560870   4563465   4566454   4569730  
  4270.000000   4573174   4576645   4580013   4583097   4585693  
  4260.000000   4587521   4588285   4587682   4585510   4581689  
  4250.000000   4576354   4569786   4562436   4554765   4547247  
  4240.000000   4540196   4533838   4528187   4523196   4518695  
  4230.000000   4514528   4510520   4506549   4502522   4498385  
  4220.000000   4494135   4489776   4485382   4481011   4476791  
  4210.000000   4472808   4469190   4465994   4463288   4461058  
  4200.000000   4459295   4457923   4456893   4456111   4455539  
  4190.000000   4455102   4454795   4454573   4454465   4454447  
  4180.000000   4454570   4454827   4455284   4455948   4456893  
  4170.000000   4458134   4459741   4461719   4464120   4466924  
  4160.000000   4470160   4473784   4477810   4482183   4486917  
  4150.000000   4491959   4497333   4502994   4508977   4515248  
  4140.000000   4521856   4528774   4536052   4543655   4551624  
  4130.000000   4559905   4568526   4577435   4586670   4596207  
  4120.000000   4606117   4616414   4627197   4638498   4650410  
  4110.000000   4662945   4676149   4689975   4704394   4719292  
  4100.000000   4734574   4750101   4765777   4781504   4797242  
  4090.000000   4812970   4828695   4844434   4860191   4875976  
  4080.000000   4891762   4907549   4923282   4938951   4954466  
  4070.000000   4969782   4984755   4999313   5013297   5026664  
  4060.000000   5039307   5051255   5062452   5072967   5082755  
  4050.000000   5091891   5100336   5108179   5115395   5122080  
  4040.000000   5128188   5133782   5138781   5143226   5147057  
  4030.000000   5150356   5153120   5155467   5157411   5159036  
  4020.000000   5160301   5161260   5161907   5162295   5162391  
  4010.000000   5162276   5161987   5161476   5160510   5159065  
  4000.000000   5157372  
##END= 
