##TITLE= Sample 006 By ssteindl date Dienstag, November 20 2018
##JCAMP-DX= 4.24
##DATA TYPE= INFRARED SPECTRUM
##ORIGIN= Exported PE Spectrum Data File
##OWNER= Sandra Steindl
##DATE= 18/11/20
##TIME= 09:57:33.00
##SPECTROMETER/DATA SYSTEM= PERKIN-ELMER Frontier FT-IR/NIR IR
##INSTRUMENT PARAMETERS=
  APODIZATION=stark
  DETECTOR=INGAAS
##RESOLUTION= 16.000000
##DELTAX= -2.000000
##XUNITS= 1/CM
##YUNITS= A
##XFACTOR= 1.00
##YFACTOR= 0.00000011920928955078
##FIRSTX= 10000.00
##LASTX= 4000.00
##NPOINTS= 3001
##FIRSTY= 0.198711
##MAXY= 0.576853
##MINY= 0.170809
##XYDATA= (X++(Y..Y))
 10000.000000   1666904   1664156   1661625   1659432   1657399  
  9990.000000   1655172   1652652   1649937   1647128   1644225  
  9980.000000   1641204   1638112   1635110   1632595   1631148  
  9970.000000   1631396   1633664   1637768   1642906   1647823  
  9960.000000   1651208   1652076   1650155   1645835   1640091  
  9950.000000   1633957   1628306   1623484   1619472   1615984  
  9940.000000   1612804   1609954   1607685   1606425   1606480  
  9930.000000   1608023   1610966   1615172   1620490   1626833  
  9920.000000   1634033   1641681   1649018   1654965   1658441  
  9910.000000   1658679   1655667   1650145   1643529   1637332  
  9900.000000   1632697   1629963   1628572   1627456   1625429  
  9890.000000   1621937   1617137   1612111   1608234   1606843  
  9880.000000   1608571   1613220   1619778   1626681   1632296  
  9870.000000   1635124   1634258   1629300   1620644   1609215  
  9860.000000   1596525   1584287   1574194   1567519   1564852  
  9850.000000   1566032   1570212   1576270   1583094   1590004  
  9840.000000   1596739   1603401   1610108   1616719   1622742  
  9830.000000   1627383   1629931   1629985   1627794   1624104  
  9820.000000   1620010   1616510   1614196   1613106   1612723  
  9810.000000   1612297   1611053   1608563   1604783   1600123  
  9800.000000   1595227   1590872   1587694   1586137   1586282  
  9790.000000   1587885   1590392   1593064   1595199   1596275  
  9780.000000   1596151   1595019   1593318   1591481   1589745  
  9770.000000   1588037   1586072   1583539   1580396   1576979  
  9760.000000   1573976   1572162   1572029   1573521   1575942  
  9750.000000   1578196   1579195   1578288   1575560   1571756  
  9740.000000   1568014   1565375   1564413   1565046   1566656  
  9730.000000   1568405   1569623   1570056   1569911   1569672  
  9720.000000   1569797   1570508   1571641   1572807   1573547  
  9710.000000   1573598   1572974   1571963   1570944   1570227  
  9700.000000   1569869   1569672   1569257   1568222   1566323  
  9690.000000   1563510   1559952   1555894   1551573   1547162  
  9680.000000   1542753   1538478   1534522   1531223   1529002  
  9670.000000   1528272   1529305   1532051   1536103   1540664  
  9660.000000   1544768   1547440   1548023   1546287   1542575  
  9650.000000   1537684   1532729   1528863   1527026   1527746  
  9640.000000   1531006   1536282   1542616   1548853   1553856  
  9630.000000   1556777   1557224   1555335   1551726   1547293  
  9620.000000   1542971   1539486   1537177   1535987   1535536  
  9610.000000   1535371   1535138   1534758   1534374   1534245  
  9600.000000   1534505   1535015   1535327   1534811   1532941  
  9590.000000   1529523   1524887   1519808   1515311   1512337  
  9580.000000   1511449   1512693   1515623   1519493   1523493  
  9570.000000   1526937   1529367   1530527   1530341   1528863  
  9560.000000   1526318   1523107   1519838   1517205   1515844  
  9550.000000   1516106   1517897   1520686   1523630   1525893  
  9540.000000   1526891   1526494   1525018   1523045   1521179  
  9530.000000   1519785   1518888   1518226   1517427   1516261  
  9520.000000   1514759   1513266   1512280   1512283   1513508  
  9510.000000   1515852   1518853   1521807   1523965   1524691  
  9500.000000   1523674   1520940   1516919   1512294   1507897  
  9490.000000   1504488   1502579   1502323   1503484   1505575  
  9480.000000   1508007   1510320   1512250   1513821   1515190  
  9470.000000   1516563   1518012   1519427   1520568   1521138  
  9460.000000   1520987   1520089   1518609   1516727   1514583  
  9450.000000   1512210   1509541   1506556   1503298   1500057  
  9440.000000   1497236   1495377   1494894   1495997   1498529  
  9430.000000   1502007   1505706   1508794   1510526   1510312  
  9420.000000   1507890   1503315   1497047   1489834   1482629  
  9410.000000   1476380   1471827   1469370   1468966   1470216  
  9400.000000   1472477   1475096   1477544   1479514   1480880  
  9390.000000   1481592   1481625   1480909   1479467   1477402  
  9380.000000   1475052   1472863   1471344   1470862   1471518  
  9370.000000   1473135   1475276   1477490   1479397   1480858  
  9360.000000   1481909   1482710   1483398   1483984   1484329  
  9350.000000   1484185   1483328   1481639   1479175   1476113  
  9340.000000   1472712   1469232   1465932   1463051   1460791  
  9330.000000   1459289   1458553   1458454   1458733   1459085  
  9320.000000   1459276   1459254   1459202   1459482   1460490  
  9310.000000   1462435   1465226   1468430   1471466   1473771  
  9300.000000   1475056   1475347   1474972   1474343   1473782  
  9290.000000   1473380   1473028   1472536   1471806   1470942  
  9280.000000   1470227   1470009   1470482   1471617   1473101  
  9270.000000   1474539   1475576   1476114   1476309   1476493  
  9260.000000   1476994   1477923   1479134   1480244   1480832  
  9250.000000   1480557   1479295   1477149   1474399   1471426  
  9240.000000   1468576   1466170   1464454   1463674   1463995  
  9230.000000   1465459   1467867   1470772   1473532   1475472  
  9220.000000   1476065   1475094   1472738   1469512   1466111  
  9210.000000   1463168   1461100   1460041   1459907   1460465  
  9200.000000   1461425   1462479   1463380   1463918   1463952  
  9190.000000   1463379   1462181   1460469   1458491   1456614  
  9180.000000   1455203   1454594   1455003   1456566   1459276  
  9170.000000   1462993   1467378   1471947   1476075   1479066  
  9160.000000   1480267   1479250   1475997   1470921   1464799  
  9150.000000   1458557   1453070   1448930   1446340   1445120  
  9140.000000   1444837   1444997   1445168   1445074   1444567  
  9130.000000   1443655   1442459   1441173   1440053   1439385  
  9120.000000   1439487   1440566   1442648   1445489   1448658  
  9110.000000   1451625   1453937   1455328   1455804   1455581  
  9100.000000   1454983   1454276   1453592   1452907   1452132  
  9090.000000   1451210   1450183   1449225   1448547   1448327  
  9080.000000   1448559   1449093   1449647   1449958   1449871  
  9070.000000   1449395   1448701   1447991   1447429   1447009  
  9060.000000   1446585   1445914   1444794   1443162   1441159  
  9050.000000   1439118   1437468   1436621   1436832   1438147  
  9040.000000   1440374   1443139   1445965   1448376   1450005  
  9030.000000   1450649   1450306   1449138   1447441   1445548  
  9020.000000   1443773   1442333   1441326   1440716   1440368  
  9010.000000   1440099   1439728   1439133   1438279   1437230  
  9000.000000   1436128   1435141   1434408   1433987   1433841  
  8990.000000   1433855   1433894   1433876   1433824   1433890  
  8980.000000   1434297   1435257   1436846   1438945   1441235  
  8970.000000   1443271   1444628   1445020   1444427   1443048  
  8960.000000   1441257   1439431   1437853   1436619   1435674  
  8950.000000   1434882   1434144   1433467   1432970   1432853  
  8940.000000   1433280   1434327   1435896   1437791   1439753  
  8930.000000   1441565   1443103   1444338   1445348   1446212  
  8920.000000   1446991   1447654   1448106   1448197   1447783  
  8910.000000   1446798   1445317   1443570   1441908   1440733  
  8900.000000   1440378   1441009   1442522   1444558   1446596  
  8890.000000   1448100   1448697   1448294   1447117   1445634  
  8880.000000   1444384   1443807   1444097   1445193   1446836  
  8870.000000   1448716   1450562   1452222   1453639   1454801  
  8860.000000   1455668   1456129   1456046   1455301   1453911  
  8850.000000   1452009   1449843   1447674   1445718   1444108  
  8840.000000   1442893   1442116   1441842   1442183   1443218  
  8830.000000   1444937   1447157   1449539   1451661   1453148  
  8820.000000   1453836   1453795   1453354   1452901   1452794  
  8810.000000   1453162   1453929   1454830   1455580   1455999  
  8800.000000   1456086   1456035   1456122   1456635   1457751  
  8790.000000   1459526   1461872   1464608   1467493   1470255  
  8780.000000   1472630   1474371   1475306   1475387   1474739  
  8770.000000   1473653   1472529   1471758   1471606   1472130  
  8760.000000   1473168   1474413   1475529   1476282   1476591  
  8750.000000   1476549   1476342   1476186   1476251   1476631  
  8740.000000   1477351   1478384   1479687   1481192   1482803  
  8730.000000   1484398   1485856   1487095   1488116   1489010  
  8720.000000   1489922   1490977   1492209   1493514   1494688  
  8710.000000   1495504   1495838   1495737   1495437   1495275  
  8700.000000   1495563   1496448   1497859   1499524   1501100  
  8690.000000   1502290   1502973   1503219   1503259   1503382  
  8680.000000   1503832   1504766   1506229   1508210   1510654  
  8670.000000   1513501   1516658   1519973   1523227   1526143  
  8660.000000   1528464   1530002   1530715   1530687   1530102  
  8650.000000   1529180   1528123   1527096   1526235   1525697  
  8640.000000   1525651   1526280   1527671   1529776   1532346  
  8630.000000   1534992   1537257   1538762   1539337   1539062  
  8620.000000   1538262   1537363   1536774   1536735   1537304  
  8610.000000   1538358   1539698   1541127   1542525   1543845  
  8600.000000   1545092   1546279   1547391   1548400   1549289  
  8590.000000   1550085   1550892   1551849   1553119   1554793  
  8580.000000   1556865   1559204   1561587   1563768   1565541  
  8570.000000   1566813   1567628   1568163   1568682   1569461  
  8560.000000   1570708   1572490   1574706   1577099   1579327  
  8550.000000   1581061   1582077   1582354   1582067   1581569  
  8540.000000   1581257   1581500   1582504   1584282   1586629  
  8530.000000   1589209   1591638   1593579   1594801   1595223  
  8520.000000   1594919   1594082   1592978   1591889   1591076  
  8510.000000   1590718   1590875   1591495   1592439   1593540  
  8500.000000   1594651   1595712   1596755   1597881   1599182  
  8490.000000   1600672   1602269   1603776   1604985   1605714  
  8480.000000   1605946   1605795   1605530   1605443   1605780  
  8470.000000   1606659   1608044   1609800   1611740   1613736  
  8460.000000   1615730   1617764   1619899   1622179   1624579  
  8450.000000   1626991   1629249   1631165   1632590   1633431  
  8440.000000   1633680   1633397   1632710   1631805   1630900  
  8430.000000   1630236   1630009   1630356   1631289   1632699  
  8420.000000   1634342   1635934   1637213   1638030   1638380  
  8410.000000   1638399   1638313   1638347   1638650   1639246  
  8400.000000   1640043   1640887   1641615   1642138   1642444  
  8390.000000   1642621   1642773   1643013   1643377   1643833  
  8380.000000   1644260   1644497   1644386   1643804   1642706  
  8370.000000   1641112   1639124   1636885   1634560   1632307  
  8360.000000   1630255   1628506   1627128   1626174   1625670  
  8350.000000   1625634   1626039   1626827   1627875   1629030  
  8340.000000   1630123   1631004   1631593   1631864   1631881  
  8330.000000   1631708   1631415   1630994   1630401   1629557  
  8320.000000   1628423   1627037   1625544   1624189   1623232  
  8310.000000   1622901   1623271   1624270   1625671   1627183  
  8300.000000   1628517   1629469   1629950   1629978   1629641  
  8290.000000   1629033   1628227   1627259   1626164   1624987  
  8280.000000   1623812   1622746   1621877   1621259   1620856  
  8270.000000   1620581   1620291   1619892   1619352   1618749  
  8260.000000   1618217   1617891   1617832   1617979   1618147  
  8250.000000   1618071   1617503   1616300   1614501   1612319  
  8240.000000   1610084   1608138   1606722   1605922   1605625  
  8230.000000   1605601   1605559   1605284   1604687   1603835  
  8220.000000   1602895   1602053   1601425   1600999   1600626  
  8210.000000   1600059   1599047   1597437   1595246   1592679  
  8200.000000   1590067   1587788   1586144   1585286   1585152  
  8190.000000   1585495   1585942   1586100   1585656   1584461  
  8180.000000   1582552   1580137   1577527   1575056   1573004  
  8170.000000   1571533   1570665   1570282   1570173   1570089  
  8160.000000   1569804   1569170   1568135   1566748   1565128  
  8150.000000   1563433   1561822   1560415   1559280   1558425  
  8140.000000   1557804   1557345   1556955   1556551   1556061  
  8130.000000   1555446   1554689   1553798   1552795   1551692  
  8120.000000   1550491   1549172   1547709   1546087   1544320  
  8110.000000   1542474   1540655   1538997   1537619   1536589  
  8100.000000   1535895   1535439   1535060   1534577   1533843  
  8090.000000   1532788   1531441   1529923   1528421   1527132  
  8080.000000   1526219   1525758   1525729   1525999   1526367  
  8070.000000   1526601   1526505   1525964   1524985   1523690  
  8060.000000   1522293   1521025   1520071   1519506   1519270  
  8050.000000   1519201   1519094   1518786   1518220   1517467  
  8040.000000   1516690   1516076   1515749   1515717   1515861  
  8030.000000   1515984   1515886   1515449   1514679   1513709  
  8020.000000   1512737   1511963   1511505   1511374   1511470  
  8010.000000   1511625   1511661   1511436   1510880   1510005  
  8000.000000   1508886   1507646   1506420   1505335   1504476  
  7990.000000   1503879   1503512   1503287   1503084   1502788  
  7980.000000   1502328   1501699   1500964   1500219   1499554  
  7970.000000   1499004   1498547   1498103   1497598   1496988  
  7960.000000   1496308   1495640   1495087   1494716   1494517  
  7950.000000   1494410   1494277   1494026   1493644   1493215  
  7940.000000   1492894   1492836   1493130   1493743   1494531  
  7930.000000   1495271   1495757   1495853   1495546   1494926  
  7920.000000   1494151   1493382   1492743   1492295   1492054  
  7910.000000   1492011   1492149   1492453   1492896   1493425  
  7900.000000   1493954   1494386   1494637   1494672   1494520  
  7890.000000   1494270   1494038   1493925   1493981   1494192  
  7880.000000   1494493   1494796   1495028   1495151   1495164  
  7870.000000   1495090   1494953   1494768   1494537   1494261  
  7860.000000   1493955   1493645   1493374   1493163   1493012  
  7850.000000   1492886   1492727   1492492   1492180   1491855  
  7840.000000   1491640   1491683   1492101   1492933   1494110  
  7830.000000   1495463   1496763   1497794   1498407   1498573  
  7820.000000   1498370   1497960   1497520   1497191   1497023  
  7810.000000   1496987   1496978   1496875   1496580   1496055  
  7800.000000   1495321   1494445   1493498   1492536   1491570  
  7790.000000   1490584   1489551   1488472   1487388   1486391  
  7780.000000   1485596   1485110   1484993   1485223   1485699  
  7770.000000   1486255   1486704   1486886   1486715   1486204  
  7760.000000   1485463   1484668   1484011   1483649   1483654  
  7750.000000   1483996   1484549   1485127   1485539   1485636  
  7740.000000   1485347   1484687   1483738   1482616   1481437  
  7730.000000   1480294   1479253   1478360   1477655   1477176  
  7720.000000   1476951   1476986   1477240   1477633   1478052  
  7710.000000   1478389   1478569   1478577   1478458   1478290  
  7700.000000   1478156   1478104   1478140   1478224   1478303  
  7690.000000   1478327   1478278   1478156   1477973   1477733  
  7680.000000   1477422   1477019   1476516   1475936   1475341  
  7670.000000   1474813   1474424   1474203   1474116   1474089  
  7660.000000   1474035   1473904   1473710   1473530   1473471  
  7650.000000   1473615   1473977   1474482   1474996   1475365  
  7640.000000   1475485   1475328   1474959   1474494   1474059  
  7630.000000   1473740   1473557   1473475   1473433   1473381  
  7620.000000   1473304   1473219   1473160   1473147   1473176  
  7610.000000   1473218   1473236   1473209   1473150   1473092  
  7600.000000   1473086   1473160   1473312   1473503   1473678  
  7590.000000   1473784   1473807   1473774   1473755   1473831  
  7580.000000   1474067   1474485   1475058   1475711   1476353  
  7570.000000   1476895   1477288   1477522   1477639   1477708  
  7560.000000   1477808   1478001   1478325   1478780   1479346  
  7550.000000   1479985   1480663   1481357   1482061   1482779  
  7540.000000   1483515   1484264   1485014   1485744   1486437  
  7530.000000   1487089   1487711   1488318   1488929   1489548  
  7520.000000   1490166   1490757   1491302   1491786   1492223  
  7510.000000   1492635   1493060   1493519   1494025   1494568  
  7500.000000   1495139   1495728   1496353   1497042   1497838  
  7490.000000   1498770   1499855   1501079   1502418   1503833  
  7480.000000   1505300   1506798   1508320   1509853   1511381  
  7470.000000   1512881   1514337   1515743   1517119   1518492  
  7460.000000   1519897   1521346   1522827   1524295   1525706  
  7450.000000   1527022   1528251   1529429   1530628   1531912  
  7440.000000   1533325   1534869   1536516   1538224   1539967  
  7430.000000   1541746   1543588   1545530   1547587   1549741  
  7420.000000   1551930   1554073   1556089   1557926   1559576  
  7410.000000   1561066   1562450   1563775   1565075   1566360  
  7400.000000   1567623   1568849   1570029   1571163   1572258  
  7390.000000   1573332   1574408   1575517   1576698   1577993  
  7380.000000   1579440   1581066   1582867   1584821   1586891  
  7370.000000   1589036   1591232   1593460   1595709   1597954  
  7360.000000   1600149   1602219   1604090   1605702   1607048  
  7350.000000   1608183   1609215   1610286   1611511   1612964  
  7340.000000   1614638   1616478   1618392   1620299   1622138  
  7330.000000   1623884   1625527   1627060   1628466   1629722  
  7320.000000   1630816   1631757   1632589   1633386   1634234  
  7310.000000   1635205   1636338   1637632   1639051   1640549  
  7300.000000   1642079   1643616   1645144   1646655   1648135  
  7290.000000   1649563   1650919   1652187   1653376   1654514  
  7280.000000   1655644   1656806   1658032   1659331   1660697  
  7270.000000   1662117   1663579   1665087   1666653   1668288  
  7260.000000   1669990   1671732   1673466   1675125   1676653  
  7250.000000   1678004   1679185   1680226   1681205   1682208  
  7240.000000   1683325   1684616   1686118   1687821   1689704  
  7230.000000   1691728   1693869   1696105   1698444   1700888  
  7220.000000   1703445   1706098   1708828   1711589   1714361  
  7210.000000   1717119   1719882   1722672   1725534   1728490  
  7200.000000   1731549   1734687   1737873   1741071   1744274  
  7190.000000   1747492   1750766   1754132   1757619   1761215  
  7180.000000   1764883   1768555   1772170   1775666   1779021  
  7170.000000   1782223   1785300   1788280   1791222   1794182  
  7160.000000   1797241   1800468   1803936   1807684   1811726  
  7150.000000   1816026   1820530   1825149   1829819   1834473  
  7140.000000   1839096   1843675   1848234   1852773   1857316  
  7130.000000   1861868   1866473   1871174   1876054   1881181  
  7120.000000   1886616   1892359   1898367   1904535   1910745  
  7110.000000   1916874   1922845   1928610   1934185   1939600  
  7100.000000   1944918   1950195   1955493   1960857   1966327  
  7090.000000   1971922   1977647   1983481   1989386   1995316  
  7080.000000   2001222   2007070   2012843   2018545   2024197  
  7070.000000   2029821   2035445   2041079   2046727   2052374  
  7060.000000   2057996   2063555   2069012   2074331   2079495  
  7050.000000   2084514   2089430   2094316   2099249   2104301  
  7040.000000   2109509   2114877   2120369   2125938   2131528  
  7030.000000   2137106   2142647   2148149   2153601   2158983  
  7020.000000   2164260   2169390   2174327   2179048   2183544  
  7010.000000   2187843   2191975   2196000   2199970   2203950  
  7000.000000   2207982   2212103   2216304   2220550   2224754  
  6990.000000   2228818   2232631   2236131   2239300   2242208  
  6980.000000   2244961   2247708   2250564   2253612   2256850  
  6970.000000   2260231   2263652   2267012   2270211   2273188  
  6960.000000   2275911   2278386   2280635   2282704   2284641  
  6950.000000   2286504   2288335   2290181   2292063   2294010  
  6940.000000   2296028   2298136   2300334   2302621   2304958  
  6930.000000   2307286   2309507   2311522   2313248   2314652  
  6920.000000   2315764   2316677   2317518   2318408   2319425  
  6910.000000   2320587   2321852   2323154   2324424   2325629  
  6900.000000   2326764   2327861   2328949   2330056   2331183  
  6890.000000   2332329   2333490   2334684   2335936   2337269  
  6880.000000   2338679   2340121   2341515   2342761   2343773  
  6870.000000   2344513   2345005   2345334   2345614   2345958  
  6860.000000   2346445   2347112   2347941   2348893   2349909  
  6850.000000   2350945   2351965   2352951   2353893   2354787  
  6840.000000   2355630   2356422   2357158   2357833   2358437  
  6830.000000   2358962   2359400   2359759   2360056   2360330  
  6820.000000   2360620   2360964   2361370   2361825   2362281  
  6810.000000   2362683   2362976   2363138   2363172   2363125  
  6800.000000   2363057   2363041   2363124   2363335   2363663  
  6790.000000   2364073   2364507   2364902   2365200   2365364  
  6780.000000   2365377   2365258   2365041   2364778   2364514  
  6770.000000   2364280   2364082   2363908   2363736   2363548  
  6760.000000   2363340   2363126   2362923   2362750   2362608  
  6750.000000   2362485   2362363   2362228   2362091   2361983  
  6740.000000   2361951   2362041   2362275   2362640   2363087  
  6730.000000   2363543   2363934   2364204   2364333   2364331  
  6720.000000   2364240   2364108   2363979   2363884   2363831  
  6710.000000   2363811   2363801   2363778   2363716   2363604  
  6700.000000   2363442   2363254   2363066   2362916   2362828  
  6690.000000   2362811   2362844   2362895   2362913   2362857  
  6680.000000   2362698   2362430   2362059   2361604   2361078  
  6670.000000   2360491   2359843   2359139   2358379   2357582  
  6660.000000   2356760   2355937   2355119   2354314   2353510  
  6650.000000   2352698   2351856   2350975   2350036   2349037  
  6640.000000   2347972   2346855   2345705   2344557   2343446  
  6630.000000   2342399   2341419   2340488   2339559   2338584  
  6620.000000   2337521   2336357   2335107   2333813   2332511  
  6610.000000   2331234   2329980   2328734   2327466   2326164  
  6600.000000   2324827   2323475   2322125   2320783   2319426  
  6590.000000   2318017   2316515   2314903   2313192   2311431  
  6580.000000   2309675   2307975   2306344   2304766   2303201  
  6570.000000   2301614   2299993   2298361   2296765   2295252  
  6560.000000   2293846   2292534   2291268   2289986   2288635  
  6550.000000   2287194   2285679   2284128   2282588   2281094  
  6540.000000   2279661   2278280   2276934   2275601   2274267  
  6530.000000   2272925   2271575   2270220   2268870   2267541  
  6520.000000   2266254   2265030   2263882   2262799   2261753  
  6510.000000   2260692   2259568   2258344   2257018   2255618  
  6500.000000   2254194   2252799   2251466   2250200   2248978  
  6490.000000   2247767   2246540   2245287   2244020   2242761  
  6480.000000   2241529   2240330   2239154   2237983   2236799  
  6470.000000   2235596   2234380   2233162   2231947   2230735  
  6460.000000   2229513   2228268   2226993   2225691   2224380  
  6450.000000   2223075   2221790   2220526   2219279   2218039  
  6440.000000   2216812   2215608   2214448   2213348   2212312  
  6430.000000   2211323   2210358   2209390   2208410   2207426  
  6420.000000   2206471   2205576   2204770   2204055   2203419  
  6410.000000   2202831   2202272   2201726   2201204   2200719  
  6400.000000   2200292   2199926   2199618   2199346   2199092  
  6390.000000   2198838   2198580   2198316   2198049   2197781  
  6380.000000   2197510   2197237   2196968   2196715   2196495  
  6370.000000   2196318   2196183   2196072   2195950   2195783  
  6360.000000   2195544   2195223   2194828   2194378   2193895  
  6350.000000   2193393   2192876   2192342   2191782   2191196  
  6340.000000   2190580   2189935   2189252   2188525   2187742  
  6330.000000   2186906   2186028   2185140   2184276   2183472  
  6320.000000   2182739   2182070   2181425   2180762   2180035  
  6310.000000   2179218   2178306   2177316   2176271   2175195  
  6300.000000   2174102   2172999   2171882   2170751   2169600  
  6290.000000   2168425   2167219   2165973   2164679   2163336  
  6280.000000   2161952   2160551   2159157   2157798   2156484  
  6270.000000   2155212   2153961   2152710   2151434   2150126  
  6260.000000   2148791   2147441   2146087   2144731   2143367  
  6250.000000   2141982   2140566   2139119   2137652   2136186  
  6240.000000   2134740   2133328   2131948   2130593   2129246  
  6230.000000   2127893   2126524   2125136   2123730   2122309  
  6220.000000   2120879   2119444   2118015   2116603   2115221  
  6210.000000   2113880   2112585   2111331   2110110   2108906  
  6200.000000   2107712   2106523   2105345   2104190   2103074  
  6190.000000   2102011   2101010   2100070   2099184   2098339  
  6180.000000   2097514   2096691   2095854   2094994   2094117  
  6170.000000   2093237   2092373   2091544   2090755   2089997  
  6160.000000   2089241   2088455   2087606   2086683   2085689  
  6150.000000   2084652   2083606   2082577   2081579   2080603  
  6140.000000   2079626   2078621   2077568   2076463   2075317  
  6130.000000   2074152   2072998   2071876   2070805   2069792  
  6120.000000   2068837   2067930   2067060   2066209   2065363  
  6110.000000   2064514   2063674   2062868   2062140   2061531  
  6100.000000   2061074   2060771   2060595   2060489   2060390  
  6090.000000   2060236   2060000   2059678   2059302   2058909  
  6080.000000   2058544   2058226   2057971   2057772   2057629  
  6070.000000   2057540   2057516   2057562   2057691   2057893  
  6060.000000   2058165   2058485   2058847   2059242   2059684  
  6050.000000   2060181   2060763   2061440   2062237   2063157  
  6040.000000   2064219   2065422   2066774   2068266   2069893  
  6030.000000   2071628   2073457   2075354   2077315   2079326  
  6020.000000   2081396   2083516   2085689   2087890   2090108  
  6010.000000   2092313   2094504   2096671   2098839   2101019  
  6000.000000   2103252   2105554   2107962   2110493   2113181  
  5990.000000   2116041   2119097   2122346   2125788   2129392  
  5980.000000   2133135   2136973   2140888   2144851   2148864  
  5970.000000   2152910   2156996   2161101   2165221   2169335  
  5960.000000   2173448   2177552   2181668   2185801   2189968  
  5950.000000   2194171   2198419   2202714   2207071   2211509  
  5940.000000   2216050   2220707   2225478   2230340   2235248  
  5930.000000   2240150   2244992   2249739   2254366   2258870  
  5920.000000   2263248   2267500   2271611   2275565   2279337  
  5910.000000   2282914   2286282   2289453   2292433   2295256  
  5900.000000   2297948   2300565   2303148   2305765   2308458  
  5890.000000   2311270   2314192   2317203   2320232   2323211  
  5880.000000   2326061   2328731   2331192   2333447   2335517  
  5870.000000   2337433   2339228   2340927   2342560   2344155  
  5860.000000   2345745   2347363   2349044   2350811   2352679  
  5850.000000   2354654   2356735   2358920   2361208   2363600  
  5840.000000   2366092   2368673   2371327   2374026   2376748  
  5830.000000   2379464   2382157   2384811   2387422   2389984  
  5820.000000   2392504   2394985   2397443   2399892   2402346  
  5810.000000   2404816   2407300   2409796   2412282   2414758  
  5800.000000   2417203   2419636   2422047   2424463   2426862  
  5790.000000   2429246   2431558   2433758   2435748   2437451  
  5780.000000   2438746   2439543   2439738   2439286   2438168  
  5770.000000   2436446   2434219   2431651   2428895   2426114  
  5760.000000   2423405   2420846   2418445   2416214   2414132  
  5750.000000   2412209   2410439   2408830   2407362   2406009  
  5740.000000   2404726   2403473   2402221   2400957   2399690  
  5730.000000   2398421   2397158   2395882   2394578   2393222  
  5720.000000   2391818   2390383   2388965   2387614   2386372  
  5710.000000   2385259   2384273   2383385   2382565   2381782  
  5700.000000   2381012   2380241   2379452   2378631   2377763  
  5690.000000   2376846   2375888   2374927   2374002   2373159  
  5680.000000   2372411   2371754   2371129   2370469   2369682  
  5670.000000   2368697   2367449   2365912   2364071   2361938  
  5660.000000   2359533   2356900   2354095   2351195   2348278  
  5650.000000   2345424   2342690   2340113   2337695   2335424  
  5640.000000   2333269   2331206   2329212   2327272   2325379  
  5630.000000   2323527   2321719   2319960   2318273   2316675  
  5620.000000   2315198   2313850   2312634   2311519   2310473  
  5610.000000   2309447   2308415   2307361   2306297   2305245  
  5600.000000   2304238   2303295   2302428   2301631   2300893  
  5590.000000   2300194   2299518   2298846   2298163   2297453  
  5580.000000   2296703   2295908   2295071   2294205   2293324  
  5570.000000   2292443   2291566   2290689   2289798   2288883  
  5560.000000   2287940   2286973   2285993   2285013   2284035  
  5550.000000   2283055   2282059   2281037   2279985   2278911  
  5540.000000   2277832   2276767   2275726   2274710   2273710  
  5530.000000   2272714   2271716   2270719   2269731   2268764  
  5520.000000   2267824   2266910   2266012   2265122   2264233  
  5510.000000   2263346   2262460   2261572   2260664   2259716  
  5500.000000   2258695   2257584   2256378   2255093   2253758  
  5490.000000   2252403   2251042   2249675   2248281   2246842  
  5480.000000   2245341   2243787   2242195   2240596   2239007  
  5470.000000   2237440   2235888   2234343   2232792   2231236  
  5460.000000   2229675   2228114   2226545   2224956   2223326  
  5450.000000   2221646   2219920   2218176   2216455   2214799  
  5440.000000   2213233   2211756   2210349   2208976   2207609  
  5430.000000   2206227   2204834   2203431   2202035   2200646  
  5420.000000   2199280   2197947   2196691   2195551   2194591  
  5410.000000   2193836   2193301   2192943   2192716   2192550  
  5400.000000   2192415   2192287   2192201   2192184   2192292  
  5390.000000   2192540   2192950   2193502   2194199   2195020  
  5380.000000   2195988   2197097   2198374   2199801   2201387  
  5370.000000   2203097   2204940   2206889   2208976   2211188  
  5360.000000   2213576   2216127   2218902   2221897   2225193  
  5350.000000   2228806   2232827   2237253   2242144   2247449  
  5340.000000   2253193   2259307   2265838   2272746   2280110  
  5330.000000   2287899   2296181   2304891   2314074   2323656  
  5320.000000   2333708   2344205   2355278   2366938   2379334  
  5310.000000   2392455   2406407   2421127   2436682   2452993  
  5300.000000   2470128   2488032   2506796   2526386   2546896  
  5290.000000   2568269   2590541   2613582   2637344   2661650  
  5280.000000   2686448   2711633   2737255   2763335   2789995  
  5270.000000   2817262   2845154   2873545   2902265   2931090  
  5260.000000   2959841   2988420   3016812   3045085   3073278  
  5250.000000   3101419   3129397   3157089   3184264   3210805  
  5240.000000   3236570   3261614   3285945   3309728   3332985  
  5230.000000   3355824   3378157   3399974   3421094   3441478  
  5220.000000   3460977   3479646   3497447   3514539   3530951  
  5210.000000   3546852   3562215   3577105   3591378   3605016  
  5200.000000   3617854   3629925   3641162   3651698   3661530  
  5190.000000   3670792   3679437   3687528   3694964   3701780  
  5180.000000   3707891   3713367   3718159   3722351   3725892  
  5170.000000   3728851   3731179   3732963   3734196   3734996  
  5160.000000   3735367   3735399   3735047   3734341   3733206  
  5150.000000   3731672   3729701   3727364   3724660   3721656  
  5140.000000   3718329   3714707   3710752   3706496   3701938  
  5130.000000   3697151   3692168   3687059   3681832   3676514  
  5120.000000   3671079   3665540   3659888   3654162   3648381  
  5110.000000   3642589   3636802   3631040   3625301   3619600  
  5100.000000   3613942   3608348   3602826   3597378   3591982  
  5090.000000   3586609   3581223   3575809   3570364   3564915  
  5080.000000   3559489   3554120   3548813   3543560   3538323  
  5070.000000   3533070   3527760   3522378   3516910   3511363  
  5060.000000   3505733   3500029   3494238   3488365   3482399  
  5050.000000   3476348   3470206   3463983   3457668   3451260  
  5040.000000   3444743   3438118   3431378   3424537   3417603  
  5030.000000   3410597   3403530   3396421   3389285   3382146  
  5020.000000   3375032   3367974   3360997   3354119   3347347  
  5010.000000   3340672   3334087   3327578   3321155   3314821  
  5000.000000   3308607   3302526   3296610   3290854   3285275  
  4990.000000   3279851   3274598   3269500   3264583   3259840  
  4980.000000   3255307   3250973   3246872   3242991   3239367  
  4970.000000   3235988   3232898   3230081   3227573   3225342  
  4960.000000   3223409   3221733   3220343   3219211   3218389  
  4950.000000   3217868   3217712   3217908   3218505   3219467  
  4940.000000   3220823   3222524   3224598   3226995   3229753  
  4930.000000   3232828   3236264   3240023   3244152   3248623  
  4920.000000   3253486   3258721   3264372   3270413   3276871  
  4910.000000   3283708   3290931   3298492   3306382   3314550  
  4900.000000   3322971   3331596   3340394   3349324   3358353  
  4890.000000   3367453   3376580   3385700   3394736   3403630  
  4880.000000   3412269   3420582   3428451   3435827   3442616  
  4870.000000   3448810   3454347   3459255   3463496   3467120  
  4860.000000   3470105   3472515   3474333   3475628   3476384  
  4850.000000   3476669   3476476   3475884   3474907   3473635  
  4840.000000   3472104   3470402   3468563   3466659   3464711  
  4830.000000   3462772   3460857   3459005   3457230   3455558  
  4820.000000   3454001   3452569   3451268   3450097   3449060  
  4810.000000   3448147   3447363   3446689   3446129   3445663  
  4800.000000   3445299   3445031   3444879   3444851   3444974  
  4790.000000   3445250   3445689   3446270   3446980   3447780  
  4780.000000   3448648   3449554   3450489   3451438   3452403  
  4770.000000   3453377   3454364   3455357   3456354   3457350  
  4760.000000   3458346   3459338   3460330   3461322   3462313  
  4750.000000   3463302   3464285   3465259   3466218   3467154  
  4740.000000   3468065   3468948   3469808   3470649   3471482  
  4730.000000   3472316   3473157   3474000   3474842   3475669  
  4720.000000   3476481   3477274   3478071   3478889   3479768  
  4710.000000   3480731   3481815   3483026   3484383   3485881  
  4700.000000   3487538   3489355   3491361   3493569   3496012  
  4690.000000   3498698   3501647   3504847   3508296   3511955  
  4680.000000   3515797   3519756   3523785   3527808   3531781  
  4670.000000   3535648   3539408   3543055   3546638   3550194  
  4660.000000   3553796   3557490   3561335   3565361   3569603  
  4650.000000   3574071   3578776   3583710   3588856   3594185  
  4640.000000   3599650   3605207   3610799   3616384   3621918  
  4630.000000   3627373   3632713   3637915   3642942   3647767  
  4620.000000   3652339   3656630   3660590   3664206   3667443  
  4610.000000   3670322   3672840   3675052   3676981   3678700  
  4600.000000   3680228   3681621   3682873   3684009   3684997  
  4590.000000   3685846   3686513   3687003   3687275   3687332  
  4580.000000   3687136   3686695   3685990   3685050   3683890  
  4570.000000   3682565   3681107   3679570   3677967   3676317  
  4560.000000   3674603   3672821   3670951   3669003   3666985  
  4550.000000   3664932   3662874   3660848   3658874   3656964  
  4540.000000   3655114   3653316   3651560   3649831   3648124  
  4530.000000   3646429   3644744   3643056   3641367   3639662  
  4520.000000   3637959   3636251   3634577   3632942   3631407  
  4510.000000   3629982   3628739   3627689   3626909   3626407  
  4500.000000   3626263   3626479   3627140   3628241   3629871  
  4490.000000   3632024   3634794   3638172   3642248   3647002  
  4480.000000   3652509   3658726   3665708   3673391   3681810  
  4470.000000   3690887   3700635   3710961   3721861   3733235  
  4460.000000   3745071   3757272   3769825   3782644   3795709  
  4450.000000   3808940   3822311   3835757   3849265   3862809  
  4440.000000   3876399   3890046   3903758   3917539   3931357  
  4430.000000   3945178   3958917   3972518   3985881   3998961  
  4420.000000   4011676   4024013   4035910   4047368   4058328  
  4410.000000   4068793   4078701   4088059   4096822   4105022  
  4400.000000   4112652   4119782   4126440   4132725   4138687  
  4390.000000   4144438   4150036   4155594   4161165   4166839  
  4380.000000   4172637   4178600   4184703   4190938   4197250  
  4370.000000   4203613   4209974   4216312   4222589   4228792  
  4360.000000   4234890   4240883   4246740   4252482   4258068  
  4350.000000   4263527   4268789   4273884   4278732   4283395  
  4340.000000   4287828   4292121   4296219   4300095   4303496  
  4330.000000   4306108   4307415   4306930   4304199   4299030  
  4320.000000   4291503   4282064   4271383   4260292   4249550  
  4310.000000   4239780   4231322   4224295   4218594   4214025  
  4300.000000   4210360   4207409   4205044   4203170   4201757  
  4290.000000   4200743   4200140   4199908   4200093   4200692  
  4280.000000   4201758   4203276   4205230   4207554   4210159  
  4270.000000   4212957   4215848   4218742   4221499   4223947  
  4260.000000   4225826   4226846   4226696   4225148   4222091  
  4250.000000   4217607   4211932   4205464   4198625   4191858  
  4240.000000   4185472   4179696   4174579   4170100   4166128  
  4230.000000   4162530   4159148   4155861   4152574   4149224  
  4220.000000   4145805   4142323   4138852   4135454   4132250  
  4210.000000   4129310   4126739   4124566   4122831   4121497  
  4200.000000   4120541   4119881   4119469   4119219   4119098  
  4190.000000   4119044   4119062   4119122   4119258   4119456  
  4180.000000   4119769   4120188   4120774   4121529   4122526  
  4170.000000   4123780   4125372   4127316   4129679   4132455  
  4160.000000   4135687   4139346   4143460   4147987   4152947  
  4150.000000   4158287   4164017   4170069   4176451   4183101  
  4140.000000   4190050   4197262   4204801   4212651   4220876  
  4130.000000   4229448   4238406   4247704   4257372   4267378  
  4120.000000   4277774   4288560   4299811   4311540   4323812  
  4110.000000   4336618   4349986   4363867   4378232   4392985  
  4100.000000   4408053   4423314   4438687   4454082   4469463  
  4090.000000   4484810   4500138   4515468   4530815   4546195  
  4080.000000   4561584   4576981   4592327   4607610   4622743  
  4070.000000   4637692   4652333   4666611   4680390   4693638  
  4060.000000   4706260   4718282   4729649   4740421   4750547  
  4050.000000   4760086   4768985   4777312   4785028   4792213  
  4040.000000   4798822   4804919   4810436   4815427   4819836  
  4030.000000   4823749   4827146   4830124   4832663   4834818  
  4020.000000   4836513   4837778   4838587   4838993   4838974  
  4010.000000   4838634   4838030   4837156   4835829   4834052  
  4000.000000   4832042  
##END= 
