##TITLE= Sample 013 By ssteindl date Montag, November 26 2018
##JCAMP-DX= 4.24
##DATA TYPE= INFRARED SPECTRUM
##ORIGIN= Exported PE Spectrum Data File
##OWNER= Sandra Steindl
##DATE= 18/11/26
##TIME= 13:10:37.00
##SPECTROMETER/DATA SYSTEM= PERKIN-ELMER Frontier FT-IR/NIR IR
##INSTRUMENT PARAMETERS=
  APODIZATION=stark
  DETECTOR=INGAAS
##RESOLUTION= 16.000000
##DELTAX= -2.000000
##XUNITS= 1/CM
##YUNITS= A
##XFACTOR= 1.00
##YFACTOR= 0.00000011920928955078
##FIRSTX= 10000.00
##LASTX= 4000.00
##NPOINTS= 3001
##FIRSTY= 0.266739
##MAXY= 0.652712
##MINY= 0.226045
##XYDATA= (X++(Y..Y))
 10000.000000   2237566   2234598   2231759   2229381   2227812  
  9990.000000   2227124   2227045   2227223   2227520   2228149  
  9980.000000   2229500   2231903   2235435   2239752   2244179  
  9970.000000   2247857   2250084   2250435   2248896   2245724  
  9960.000000   2241413   2236531   2231702   2227580   2224707  
  9950.000000   2223517   2224023   2225972   2228684   2231484  
  9940.000000   2233752   2235292   2236240   2236954   2237702  
  9930.000000   2238308   2238143   2236121   2231256   2222963  
  9920.000000   2211556   2198196   2184670   2172863   2164208  
  9910.000000   2159426   2158432   2160637   2165162   2171150  
  9900.000000   2177793   2184360   2190160   2194540   2197097  
  9890.000000   2197709   2196805   2195094   2193527   2192759  
  9880.000000   2193021   2193950   2194814   2194915   2193900  
  9870.000000   2192088   2190259   2189470   2190463   2193420  
  9860.000000   2197738   2202260   2205642   2206812   2205315  
  9850.000000   2201389   2195787   2189487   2183317   2177850  
  9840.000000   2173332   2169861   2167488   2166261   2166165  
  9830.000000   2166983   2168204   2169047   2168626   2166231  
  9820.000000   2161637   2155225   2148023   2141370   2136609  
  9810.000000   2134607   2135532   2138784   2143244   2147649  
  9800.000000   2151044   2153005   2153738   2153828   2153950  
  9790.000000   2154520   2155542   2156629   2157291   2157183  
  9780.000000   2156415   2155489   2155158   2156060   2158405  
  9770.000000   2161863   2165597   2168598   2170011   2169473  
  9760.000000   2167277   2164268   2161585   2160238   2160748  
  9750.000000   2162999   2166270   2169561   2171911   2172761  
  9740.000000   2172094   2170451   2168674   2167644   2167891  
  9730.000000   2169449   2171791   2174049   2175348   2175103  
  9720.000000   2173257   2170245   2166796   2163666   2161283  
  9710.000000   2159694   2158516   2157271   2155594   2153519  
  9700.000000   2151441   2149964   2149561   2150309   2151777  
  9690.000000   2153124   2153426   2151957   2148487   2143278  
  9680.000000   2137022   2130567   2124718   2120085   2117040  
  9670.000000   2115781   2116331   2118566   2122107   2126336  
  9660.000000   2130408   2133469   2134892   2134496   2132657  
  9650.000000   2130117   2127766   2126183   2125495   2125254  
  9640.000000   2124743   2123283   2120607   2117006   2113188  
  9630.000000   2110025   2108127   2107715   2108525   2110077  
  9620.000000   2111862   2113567   2115109   2116510   2117790  
  9610.000000   2118769   2119162   2118587   2116860   2114006  
  9600.000000   2110396   2106548   2103002   2100146   2098130  
  9590.000000   2097021   2096844   2097806   2100151   2104130  
  9580.000000   2109709   2116488   2123633   2130045   2134613  
  9570.000000   2136489   2135362   2131472   2125610   2118801  
  9560.000000   2112109   2106338   2101945   2098992   2097215  
  9550.000000   2096155   2095293   2094240   2092826   2091187  
  9540.000000   2089653   2088663   2088541   2089424   2091197  
  9530.000000   2093588   2096281   2099057   2101840   2104694  
  9520.000000   2107686   2110782   2113737   2116113   2117393  
  9510.000000   2117129   2115114   2111406   2106329   2100334  
  9500.000000   2093922   2087556   2081632   2076503   2072400  
  9490.000000   2069457   2067583   2066549   2065986   2065600  
  9480.000000   2065248   2065038   2065249   2066171   2067923  
  9470.000000   2070247   2072575   2074122   2074269   2072756  
  9460.000000   2069868   2066266   2062770   2060015   2058290  
  9450.000000   2057485   2057261   2057245   2057220   2057161  
  9440.000000   2057138   2057172   2057133   2056796   2055998  
  9430.000000   2054829   2053699   2053229   2053975   2056153  
  9420.000000   2059453   2063119   2066244   2068131   2068615  
  9410.000000   2068044   2067099   2066367   2066059   2065879  
  9400.000000   2065182   2063352   2060159   2056035   2051946  
  9390.000000   2049101   2048409   2050167   2053897   2058591  
  9380.000000   2063036   2066206   2067485   2066720   2064160  
  9370.000000   2060270   2055642   2050865   2046554   2043257  
  9360.000000   2041418   2041203   2042400   2044424   2046443  
  9350.000000   2047739   2047898   2047072   2045801   2044868  
  9340.000000   2044917   2046234   2048641   2051529   2054126  
  9330.000000   2055682   2055751   2054178   2051101   2046796  
  9320.000000   2041607   2035932   2030217   2025024   2020918  
  9310.000000   2018407   2017732   2018838   2021318   2024581  
  9300.000000   2027943   2030817   2032775   2033565   2033108  
  9290.000000   2031406   2028610   2024955   2020872   2016874  
  9280.000000   2013518   2011202   2010053   2009895   2010310  
  9270.000000   2010840   2011119   2011037   2010707   2010389  
  9260.000000   2010308   2010530   2010929   2011257   2011289  
  9250.000000   2010926   2010252   2009462   2008793   2008378  
  9240.000000   2008253   2008322   2008469   2008544   2008420  
  9230.000000   2007946   2007004   2005517   2003548   2001338  
  9220.000000   1999335   1998149   1998356   2000304   2003893  
  9210.000000   2008597   2013595   2018056   2021387   2023412  
  9200.000000   2024367   2024719   2024909   2025142   2025336  
  9190.000000   2025207   2024467   2022998   2020957   2018710  
  9180.000000   2016677   2015165   2014204   2013614   2013049  
  9170.000000   2012250   2011108   2009746   2008421   2007450  
  9160.000000   2007092   2007461   2008478   2009891   2011339  
  9150.000000   2012395   2012673   2011878   2009966   2007147  
  9140.000000   2003914   2000887   1998661   1997595   1997690  
  9130.000000   1998608   1999803   2000779   2001273   2001386  
  9120.000000   2001469   2001954   2003100   2004848   2006850  
  9110.000000   2008557   2009483   2009344   2008172   2006240  
  9100.000000   2003900   2001487   1999211   1997261   1995799  
  9090.000000   1995060   1995245   1996470   1998584   2001100  
  9080.000000   2003242   2004165   2003280   2000408   1995888  
  9070.000000   1990433   1984950   1980203   1976631   1974315  
  9060.000000   1973121   1972868   1973424   1974751   1976812  
  9050.000000   1979485   1982458   1985267   1987435   1988617  
  9040.000000   1988786   1988162   1987181   1986243   1985625  
  9030.000000   1985361   1985315   1985315   1985264   1985233  
  9020.000000   1985366   1985851   1986750   1987986   1989301  
  9010.000000   1990396   1991015   1991028   1990442   1989342  
  9000.000000   1987861   1986106   1984151   1982063   1979931  
  8990.000000   1977891   1976085   1974651   1973646   1973074  
  8980.000000   1972853   1972893   1973084   1973355   1973635  
  8970.000000   1973837   1973848   1973521   1972753   1971493  
  8960.000000   1969802   1967819   1965743   1963746   1961947  
  8950.000000   1960380   1959052   1957950   1957102   1956539  
  8940.000000   1956295   1956337   1956569   1956830   1956981  
  8930.000000   1956974   1956907   1957006   1957553   1958780  
  8920.000000   1960779   1963463   1966566   1969734   1972606  
  8910.000000   1974904   1976481   1977305   1977441   1976986  
  8900.000000   1976057   1974764   1973214   1971521   1969787  
  8890.000000   1968121   1966619   1965394   1964554   1964218  
  8880.000000   1964462   1965300   1966616   1968166   1969595  
  8870.000000   1970547   1970763   1970202   1969069   1967778  
  8860.000000   1966836   1966660   1967448   1969057   1971070  
  8850.000000   1972873   1973896   1973744   1972345   1969931  
  8840.000000   1966979   1964073   1961761   1960433   1960268  
  8830.000000   1961234   1963158   1965754   1968704   1971684  
  8820.000000   1974421   1976714   1978435   1979568   1980199  
  8810.000000   1980529   1980828   1981402   1982522   1984349  
  8800.000000   1986860   1989838   1992873   1995449   1997033  
  8790.000000   1997221   1995856   1993079   1989330   1985210  
  8780.000000   1981366   1978316   1976345   1975471   1975463  
  8770.000000   1976001   1976786   1977691   1978749   1980142  
  8760.000000   1982052   1984566   1987558   1990693   1993506  
  8750.000000   1995545   1996551   1996531   1995800   1994840  
  8740.000000   1994145   1994020   1994464   1995170   1995628  
  8730.000000   1995317   1993896   1991354   1988034   1984535  
  8720.000000   1981514   1979487   1978678   1978981   1980025  
  8710.000000   1981319   1982429   1983109   1983365   1983426  
  8700.000000   1983642   1984354   1985782   1987929   1990598  
  8690.000000   1993412   1995957   1997833   1998809   1998834  
  8680.000000   1998105   1996968   1995849   1995106   1994946  
  8670.000000   1995369   1996207   1997199   1998113   1998849  
  8660.000000   1999478   2000227   2001351   2003044   2005311  
  8650.000000   2007976   2010733   2013263   2015373   2017026  
  8640.000000   2018360   2019571   2020829   2022165   2023449  
  8630.000000   2024449   2024944   2024849   2024278   2023536  
  8620.000000   2023019   2023095   2023955   2025574   2027705  
  8610.000000   2029984   2032036   2033603   2034591   2035079  
  8600.000000   2035261   2035368   2035606   2036101   2036894  
  8590.000000   2037935   2039129   2040347   2041466   2042391  
  8580.000000   2043069   2043511   2043787   2044030   2044394  
  8570.000000   2045018   2045980   2047262   2048759   2050290  
  8560.000000   2051679   2052785   2053557   2054034   2054317  
  8550.000000   2054535   2054776   2055107   2055547   2056126  
  8540.000000   2056880   2057891   2059236   2060956   2062975  
  8530.000000   2065089   2066990   2068314   2068766   2068189  
  8520.000000   2066671   2064488   2062059   2059820   2058144  
  8510.000000   2057258   2057220   2057964   2059340   2061198  
  8500.000000   2063368   2065726   2068144   2070523   2072757  
  8490.000000   2074757   2076478   2077897   2079035   2079883  
  8480.000000   2080428   2080605   2080356   2079652   2078540  
  8470.000000   2077174   2075786   2074654   2074005   2073975  
  8460.000000   2074556   2075626   2076965   2078346   2079581  
  8450.000000   2080574   2081321   2081889   2082398   2082965  
  8440.000000   2083695   2084619   2085717   2086879   2087957  
  8430.000000   2088781   2089233   2089290   2089059   2088769  
  8420.000000   2088697   2089093   2090067   2091570   2093370  
  8410.000000   2095162   2096645   2097653   2098184   2098408  
  8400.000000   2098565   2098873   2099420   2100132   2100799  
  8390.000000   2101153   2100979   2100185   2098837   2097137  
  8380.000000   2095351   2093750   2092517   2091750   2091432  
  8370.000000   2091489   2091794   2092226   2092671   2093050  
  8360.000000   2093310   2093420   2093375   2093160   2092784  
  8350.000000   2092228   2091503   2090607   2089580   2088490  
  8340.000000   2087447   2086595   2086072   2086004   2086447  
  8330.000000   2087407   2088799   2090486   2092276   2093963  
  8320.000000   2095358   2096301   2096699   2096503   2095743  
  8310.000000   2094493   2092877   2091045   2089155   2087369  
  8300.000000   2085831   2084683   2084022   2083910   2084312  
  8290.000000   2085121   2086127   2087076   2087701   2087799  
  8280.000000   2087287   2086228   2084821   2083332   2082020  
  8270.000000   2081066   2080529   2080353   2080384   2080441  
  8260.000000   2080357   2080029   2079408   2078495   2077317  
  8250.000000   2075902   2074289   2072510   2070618   2068670  
  8240.000000   2066750   2064949   2063356   2062056   2061109  
  8230.000000   2060562   2060424   2060669   2061209   2061917  
  8220.000000   2062625   2063173   2063431   2063333   2062889  
  8210.000000   2062172   2061297   2060367   2059452   2058556  
  8200.000000   2057631   2056598   2055365   2053874   2052101  
  8190.000000   2050094   2047946   2045820   2043888   2042319  
  8180.000000   2041218   2040594   2040341   2040253   2040064  
  8170.000000   2039520   2038457   2036854   2034858   2032740  
  8160.000000   2030813   2029331   2028416   2028020   2027952  
  8150.000000   2027939   2027720   2027120   2026106   2024767  
  8140.000000   2023280   2021819   2020510   2019380   2018385  
  8130.000000   2017431   2016438   2015382   2014310   2013349  
  8120.000000   2012642   2012334   2012485   2013077   2013989  
  8110.000000   2015037   2016001   2016667   2016862   2016463  
  8100.000000   2015417   2013731   2011491   2008841   2005996  
  8090.000000   2003198   2000687   1998648   1997153   1996169  
  8080.000000   1995547   1995113   1994701   1994244   1993765  
  8070.000000   1993364   1993141   1993126   1993243   1993302  
  8060.000000   1993083   1992403   1991221   1989653   1987951  
  8050.000000   1986420   1985293   1984676   1984494   1984555  
  8040.000000   1984610   1984456   1983987   1983198   1982160  
  8030.000000   1980949   1979612   1978144   1976518   1974725  
  8020.000000   1972816   1970909   1969175   1967790   1966884  
  8010.000000   1966512   1966630   1967121   1967812   1968510  
  8000.000000   1969036   1969237   1969030   1968392   1967398  
  7990.000000   1966183   1964944   1963864   1963079   1962635  
  7980.000000   1962476   1962480   1962502   1962444   1962279  
  7970.000000   1962060   1961869   1961766   1961739   1961691  
  7960.000000   1961477   1960954   1960067   1958866   1957521  
  7950.000000   1956259   1955292   1954755   1954649   1954876  
  7940.000000   1955259   1955635   1955892   1956010   1956045  
  7930.000000   1956078   1956177   1956336   1956484   1956485  
  7920.000000   1956207   1955556   1954543   1953272   1951942  
  7910.000000   1950785   1950001   1949710   1949907   1950481  
  7900.000000   1951239   1951978   1952537   1952837   1952888  
  7890.000000   1952761   1952547   1952318   1952099   1951873  
  7880.000000   1951604   1951261   1950856   1950432   1950056  
  7870.000000   1949784   1949621   1949527   1949398   1949131  
  7860.000000   1948640   1947920   1947050   1946185   1945514  
  7850.000000   1945194   1945294   1945753   1946386   1946917  
  7840.000000   1947068   1946625   1945523   1943859   1941878  
  7830.000000   1939906   1938260   1937171   1936728   1936881  
  7820.000000   1937464   1938261   1939062   1939699   1940066  
  7810.000000   1940107   1939804   1939163   1938218   1937038  
  7800.000000   1935744   1934491   1933452   1932766   1932505  
  7790.000000   1932649   1933076   1933617   1934082   1934332  
  7780.000000   1934292   1933976   1933455   1932832   1932211  
  7770.000000   1931664   1931226   1930897   1930644   1930418  
  7760.000000   1930157   1929811   1929336   1928725   1927992  
  7750.000000   1927183   1926354   1925553   1924806   1924109  
  7740.000000   1923433   1922741   1922011   1921242   1920458  
  7730.000000   1919698   1918997   1918380   1917857   1917426  
  7720.000000   1917085   1916830   1916654   1916533   1916423  
  7710.000000   1916257   1915968   1915508   1914875   1914122  
  7700.000000   1913346   1912657   1912145   1911850   1911751  
  7690.000000   1911777   1911842   1911860   1911779   1911572  
  7680.000000   1911233   1910759   1910146   1909399   1908543  
  7670.000000   1907641   1906788   1906106   1905698   1905636  
  7660.000000   1905922   1906494   1907233   1907987   1908598  
  7650.000000   1908928   1908873   1908377   1907444   1906139  
  7640.000000   1904598   1903001   1901551   1900421   1899710  
  7630.000000   1899411   1899413   1899536   1899591   1899444  
  7620.000000   1899059   1898494   1897878   1897341   1896979  
  7610.000000   1896800   1896751   1896731   1896662   1896512  
  7600.000000   1896328   1896203   1896247   1896536   1897081  
  7590.000000   1897821   1898639   1899392   1899967   1900287  
  7580.000000   1900354   1900213   1899952   1899662   1899422  
  7570.000000   1899289   1899296   1899463   1899796   1900299  
  7560.000000   1900966   1901777   1902688   1903628   1904506  
  7550.000000   1905215   1905668   1905806   1905634   1905214  
  7540.000000   1904666   1904143   1903812   1903819   1904259  
  7530.000000   1905157   1906453   1908004   1909617   1911074  
  7520.000000   1912192   1912848   1913032   1912821   1912393  
  7510.000000   1911942   1911654   1911640   1911942   1912535  
  7500.000000   1913364   1914389   1915600   1917023   1918681  
  7490.000000   1920568   1922614   1924681   1926600   1928206  
  7480.000000   1929417   1930228   1930744   1931107   1931478  
  7470.000000   1931973   1932653   1933524   1934565   1935755  
  7460.000000   1937091   1938577   1940213   1941968   1943780  
  7450.000000   1945567   1947255   1948810   1950257   1951667  
  7440.000000   1953146   1954778   1956611   1958619   1960732  
  7430.000000   1962838   1964833   1966636   1968221   1969614  
  7420.000000   1970886   1972136   1973466   1974967   1976686  
  7410.000000   1978632   1980763   1983007   1985275   1987487  
  7400.000000   1989594   1991579   1993449   1995213   1996871  
  7390.000000   1998398   1999765   2000949   2001968   2002894  
  7380.000000   2003845   2004959   2006340   2008039   2010021  
  7370.000000   2012200   2014452   2016676   2018805   2020829  
  7360.000000   2022770   2024656   2026503   2028298   2030015  
  7350.000000   2031623   2033119   2034522   2035877   2037229  
  7340.000000   2038603   2040002   2041400   2042781   2044135  
  7330.000000   2045489   2046883   2048365   2049962   2051671  
  7320.000000   2053447   2055229   2056951   2058562   2060040  
  7310.000000   2061393   2062646   2063843   2065020   2066214  
  7300.000000   2067443   2068718   2070028   2071352   2072646  
  7290.000000   2073866   2074965   2075921   2076730   2077426  
  7280.000000   2078055   2078677   2079342   2080077   2080881  
  7270.000000   2081726   2082569   2083364   2084084   2084721  
  7260.000000   2085301   2085874   2086505   2087255   2088172  
  7250.000000   2089260   2090494   2091801   2093104   2094324  
  7240.000000   2095428   2096420   2097372   2098369   2099517  
  7230.000000   2100869   2102453   2104226   2106134   2108100  
  7220.000000   2110085   2112067   2114074   2116147   2118347  
  7210.000000   2120715   2123290   2126071   2129051   2132185  
  7200.000000   2135429   2138712   2141982   2145174   2148263  
  7190.000000   2151223   2154075   2156834   2159548   2162246  
  7180.000000   2164972   2167751   2170625   2173627   2176806  
  7170.000000   2180187   2183787   2187567   2191469   2195395  
  7160.000000   2199280   2203076   2206816   2210566   2214444  
  7150.000000   2218549   2222960   2227682   2232674   2237828  
  7140.000000   2243043   2248212   2253291   2258258   2263153  
  7130.000000   2268007   2272881   2277803   2282821   2287953  
  7120.000000   2293240   2298694   2304341   2310175   2316187  
  7110.000000   2322346   2328623   2334988   2341436   2347966  
  7100.000000   2354603   2361349   2368213   2375148   2382098  
  7090.000000   2388958   2395640   2402064   2408217   2414138  
  7080.000000   2419948   2425803   2431876   2438294   2445116  
  7070.000000   2452302   2459734   2467243   2474664   2481873  
  7060.000000   2488821   2495529   2502075   2508556   2515064  
  7050.000000   2521656   2528349   2535123   2541936   2548742  
  7040.000000   2555502   2562200   2568830   2575404   2581931  
  7030.000000   2588422   2594871   2601265   2607577   2613790  
  7020.000000   2619886   2625874   2631770   2637608   2643410  
  7010.000000   2649199   2654968   2660711   2666401   2672028  
  7000.000000   2677576   2683047   2688425   2693697   2698825  
  6990.000000   2703781   2708534   2713092   2717479   2721759  
  6980.000000   2725977   2730176   2734339   2738439   2742408  
  6970.000000   2746214   2749842   2753335   2756746   2760143  
  6960.000000   2763542   2766931   2770242   2773409   2776371  
  6950.000000   2779129   2781714   2784202   2786652   2789111  
  6940.000000   2791567   2793998   2796353   2798619   2800794  
  6930.000000   2802920   2805029   2807150   2809262   2811325  
  6920.000000   2813266   2815031   2816590   2817958   2819182  
  6910.000000   2820329   2821451   2822579   2823707   2824808  
  6900.000000   2825839   2826777   2827622   2828411   2829201  
  6890.000000   2830071   2831078   2832263   2833616   2835095  
  6880.000000   2836620   2838110   2839488   2840711   2841769  
  6870.000000   2842681   2843482   2844208   2844880   2845503  
  6860.000000   2846077   2846597   2847071   2847517   2847963  
  6850.000000   2848442   2848975   2849581   2850264   2851029  
  6840.000000   2851873   2852794   2853780   2854809   2855843  
  6830.000000   2856841   2857759   2858566   2859246   2859802  
  6820.000000   2860244   2860589   2860852   2861050   2861202  
  6810.000000   2861340   2861495   2861706   2861986   2862335  
  6800.000000   2862719   2863091   2863399   2863613   2863720  
  6790.000000   2863741   2863699   2863619   2863508   2863358  
  6780.000000   2863151   2862879   2862549   2862192   2861844  
  6770.000000   2861538   2861285   2861078   2860888   2860686  
  6760.000000   2860449   2860175   2859875   2859571   2859284  
  6750.000000   2859032   2858824   2858662   2858541   2858444  
  6740.000000   2858343   2858198   2857961   2857601   2857108  
  6730.000000   2856517   2855891   2855317   2854865   2854574  
  6720.000000   2854425   2854358   2854284   2854123   2853823  
  6710.000000   2853378   2852809   2852158   2851460   2850739  
  6700.000000   2850000   2849246   2848479   2847712   2846956  
  6690.000000   2846220   2845497   2844772   2844019   2843221  
  6680.000000   2842364   2841449   2840468   2839416   2838269  
  6670.000000   2837011   2835630   2834147   2832609   2831086  
  6660.000000   2829640   2828314   2827103   2825970   2824852  
  6650.000000   2823698   2822474   2821187   2819858   2818520  
  6640.000000   2817186   2815855   2814511   2813139   2811732  
  6630.000000   2810305   2808871   2807445   2806016   2804563  
  6620.000000   2803055   2801472   2799815   2798109   2796388  
  6610.000000   2794685   2793005   2791336   2789649   2787926  
  6600.000000   2786162   2784385   2782631   2780933   2779305  
  6590.000000   2777732   2776182   2774619   2773021   2771383  
  6580.000000   2769715   2768029   2766325   2764591   2762811  
  6570.000000   2760983   2759129   2757299   2755555   2753950  
  6560.000000   2752505   2751199   2749976   2748764   2747502  
  6550.000000   2746156   2744729   2743251   2741763   2740299  
  6540.000000   2738882   2737517   2736204   2734937   2733714  
  6530.000000   2732535   2731399   2730300   2729231   2728180  
  6520.000000   2727133   2726073   2724981   2723832   2722609  
  6510.000000   2721305   2719937   2718548   2717200   2715962  
  6500.000000   2714879   2713961   2713168   2712426   2711645  
  6490.000000   2710752   2709708   2708524   2707244   2705932  
  6480.000000   2704645   2703424   2702287   2701233   2700251  
  6470.000000   2699320   2698414   2697500   2696544   2695516  
  6460.000000   2694405   2693229   2692027   2690857   2689768  
  6450.000000   2688786   2687903   2687082   2686279   2685455  
  6440.000000   2684603   2683735   2682877   2682048   2681248  
  6430.000000   2680455   2679647   2678811   2677965   2677150  
  6420.000000   2676420   2675815   2675343   2674974   2674655  
  6410.000000   2674324   2673940   2673488   2672982   2672439  
  6400.000000   2671883   2671316   2670741   2670159   2669587  
  6390.000000   2669054   2668597   2668246   2668004   2667851  
  6380.000000   2667744   2667640   2667500   2667311   2667072  
  6370.000000   2666791   2666469   2666101   2665671   2665172  
  6360.000000   2664604   2663986   2663338   2662682   2662023  
  6350.000000   2661357   2660668   2659953   2659212   2658468  
  6340.000000   2657737   2657032   2656341   2655647   2654925  
  6330.000000   2654172   2653401   2652648   2651946   2651317  
  6320.000000   2650739   2650168   2649533   2648780   2647880  
  6310.000000   2646844   2645707   2644519   2643307   2642084  
  6300.000000   2640837   2639563   2638262   2636965   2635699  
  6290.000000   2634491   2633327   2632170   2630949   2629604  
  6280.000000   2628092   2626420   2624626   2622778   2620930  
  6270.000000   2619121   2617353   2615613   2613873   2612116  
  6260.000000   2610330   2608518   2606672   2604782   2602825  
  6250.000000   2600786   2598658   2596461   2594226   2592000  
  6240.000000   2589822   2587717   2585692   2583745   2581860  
  6230.000000   2580027   2578224   2576428   2574608   2572728  
  6220.000000   2570762   2568699   2566557   2564378   2562214  
  6210.000000   2560114   2558105   2556185   2554332   2552510  
  6200.000000   2550693   2548870   2547042   2545219   2543409  
  6190.000000   2541613   2539830   2538060   2536314   2534609  
  6180.000000   2532965   2531388   2529870   2528381   2526889  
  6170.000000   2525364   2523800   2522209   2520619   2519054  
  6160.000000   2517525   2516022   2514525   2513012   2511480  
  6150.000000   2509942   2508424   2506950   2505528   2504141  
  6140.000000   2502763   2501363   2499931   2498477   2497033  
  6130.000000   2495625   2494273   2492966   2491679   2490375  
  6120.000000   2489038   2487673   2486317   2485012   2483805  
  6110.000000   2482717   2481750   2480882   2480087   2479338  
  6100.000000   2478623   2477928   2477251   2476574   2475891  
  6090.000000   2475184   2474464   2473742   2473055   2472432  
  6080.000000   2471901   2471464   2471116   2470834   2470613  
  6070.000000   2470446   2470356   2470357   2470474   2470697  
  6060.000000   2471020   2471405   2471835   2472286   2472771  
  6050.000000   2473303   2473921   2474644   2475504   2476501  
  6040.000000   2477646   2478924   2480335   2481855   2483474  
  6030.000000   2485161   2486903   2488679   2490494   2492355  
  6020.000000   2494287   2496300   2498405   2500582   2502805  
  6010.000000   2505031   2507233   2509389   2511511   2513616  
  6000.000000   2515739   2517906   2520141   2522450   2524841  
  5990.000000   2527305   2529839   2532432   2535076   2537753  
  5980.000000   2540454   2543167   2545898   2548656   2551465  
  5970.000000   2554338   2557288   2560303   2563366   2566442  
  5960.000000   2569510   2572552   2575573   2578585   2581615  
  5950.000000   2584678   2587796   2590973   2594218   2597530  
  5940.000000   2600916   2604375   2607908   2611507   2615156  
  5930.000000   2618836   2622523   2626198   2629837   2633423  
  5920.000000   2636938   2640367   2643700   2646933   2650066  
  5910.000000   2653108   2656063   2658935   2661717   2664404  
  5900.000000   2666994   2669503   2671957   2674407   2676894  
  5890.000000   2679458   2682101   2684807   2687527   2690211  
  5880.000000   2692811   2695303   2697677   2699946   2702123  
  5870.000000   2704219   2706242   2708198   2710098   2711960  
  5860.000000   2713814   2715685   2717600   2719568   2721599  
  5850.000000   2723692   2725856   2728102   2730453   2732923  
  5840.000000   2735523   2738244   2741075   2743993   2746985  
  5830.000000   2750039   2753150   2756305   2759482   2762643  
  5820.000000   2765745   2768748   2771630   2774392   2777051  
  5810.000000   2779637   2782160   2784630   2787017   2789309  
  5800.000000   2791469   2793508   2795419   2797243   2798976  
  5790.000000   2800636   2802177   2803568   2804723   2805588  
  5780.000000   2806076   2806146   2805741   2804856   2803487  
  5770.000000   2801690   2799537   2797146   2794628   2792111  
  5760.000000   2789673   2787385   2785263   2783324   2781557  
  5750.000000   2779967   2778542   2777274   2776135   2775083  
  5740.000000   2774074   2773067   2772050   2771023   2770022  
  5730.000000   2769074   2768213   2767440   2766752   2766119  
  5720.000000   2765526   2764956   2764414   2763900   2763424  
  5710.000000   2762981   2762568   2762174   2761805   2761466  
  5700.000000   2761177   2760946   2760779   2760664   2760581  
  5690.000000   2760519   2760470   2760452   2760480   2760572  
  5680.000000   2760717   2760884   2761009   2761026   2760865  
  5670.000000   2760486   2759864   2759003   2757910   2756605  
  5660.000000   2755104   2753439   2751646   2749784   2747912  
  5650.000000   2746093   2744359   2742729   2741186   2739710  
  5640.000000   2738272   2736859   2735466   2734100   2732768  
  5630.000000   2731474   2730221   2729012   2727860   2726782  
  5620.000000   2725801   2724923   2724141   2723417   2722705  
  5610.000000   2721955   2721137   2720247   2719309   2718357  
  5600.000000   2717427   2716538   2715690   2714870   2714062  
  5590.000000   2713258   2712458   2711669   2710895   2710132  
  5580.000000   2709361   2708562   2707715   2706811   2705848  
  5570.000000   2704835   2703776   2702678   2701540   2700366  
  5560.000000   2699166   2697957   2696758   2695587   2694443  
  5550.000000   2693318   2692189   2691039   2689860   2688663  
  5540.000000   2687471   2686306   2685183   2684099   2683038  
  5530.000000   2681982   2680918   2679849   2678787   2677750  
  5520.000000   2676745   2675771   2674808   2673837   2672838  
  5510.000000   2671804   2670732   2669626   2668484   2667301  
  5500.000000   2666069   2664791   2663477   2662154   2660847  
  5490.000000   2659574   2658326   2657074   2655773   2654389  
  5480.000000   2652899   2651320   2649680   2648021   2646366  
  5470.000000   2644719   2643056   2641348   2639565   2637702  
  5460.000000   2635765   2633776   2631749   2629693   2627603  
  5450.000000   2625473   2623305   2621119   2618945   2616815  
  5440.000000   2614757   2612777   2610875   2609038   2607263  
  5430.000000   2605542   2603876   2602243   2600624   2598979  
  5420.000000   2597292   2595559   2593833   2592184   2590712  
  5410.000000   2589475   2588501   2587742   2587135   2586592  
  5400.000000   2586075   2585568   2585121   2584778   2584601  
  5390.000000   2584598   2584771   2585078   2585505   2586032  
  5380.000000   2586690   2587492   2588477   2589632   2590959  
  5370.000000   2592407   2593968   2595604   2597341   2599161  
  5360.000000   2601108   2603164   2605373   2607731   2610319  
  5350.000000   2613175   2616421   2620096   2624289   2628971  
  5340.000000   2634162   2639779   2645839   2652280   2659160  
  5330.000000   2666434   2674159   2682268   2690801   2699688  
  5320.000000   2709014   2718770   2729112   2740066   2751792  
  5310.000000   2764267   2777581   2791641   2806494   2822052  
  5300.000000   2838395   2855492   2873477   2892346   2912229  
  5290.000000   2933080   2954944   2977681   3001234   3025408  
  5280.000000   3050146   3075340   3101058   3127332   3154316  
  5270.000000   3182049   3210552   3239673   3269197   3298845  
  5260.000000   3328388   3357710   3386808   3415793   3444754  
  5250.000000   3473754   3502678   3531359   3559481   3586841  
  5240.000000   3613214   3638628   3663087   3686801   3709839  
  5230.000000   3732371   3754337   3775746   3796400   3816247  
  5220.000000   3835111   3853043   3869999   3886155   3901542  
  5210.000000   3916340   3930514   3944124   3957009   3969147  
  5200.000000   3980372   3990735   4000186   4008887   4016853  
  5190.000000   4024241   4031013   4037243   4042833   4047828  
  5180.000000   4052151   4055884   4058983   4061535   4063479  
  5170.000000   4064869   4065634   4065838   4065456   4064597  
  5160.000000   4063273   4061587   4059521   4057124   4054339  
  5150.000000   4051200   4047668   4043801   4039589   4035092  
  5140.000000   4030292   4025228   4019880   4014295   4008486  
  5130.000000   4002527   3996446   3990300   3984084   3977811  
  5120.000000   3971450   3965006   3958472   3951883   3945255  
  5110.000000   3938622   3931984   3925341   3918671   3911972  
  5100.000000   3905248   3898530   3891856   3885273   3878807  
  5090.000000   3872474   3866264   3860158   3854129   3848155  
  5080.000000   3842215   3836290   3830359   3824406   3818414  
  5070.000000   3812379   3806301   3800197   3794080   3787963  
  5060.000000   3781844   3775713   3769544   3763316   3757005  
  5050.000000   3750605   3744111   3737532   3730868   3724128  
  5040.000000   3717310   3710423   3703475   3696488   3689485  
  5030.000000   3682499   3675555   3668674   3661868   3655138  
  5020.000000   3648484   3641896   3635376   3628916   3622527  
  5010.000000   3616208   3609983   3603857   3597864   3592010  
  5000.000000   3586330   3580824   3575521   3570410   3565521  
  4990.000000   3560842   3556412   3552223   3548320   3544691  
  4980.000000   3541373   3538339   3535616   3533169   3531034  
  4970.000000   3529184   3527672   3526480   3525663   3525193  
  4960.000000   3525111   3525380   3526034   3527040   3528445  
  4950.000000   3530225   3532433   3535039   3538080   3541505  
  4940.000000   3545333   3549504   3554039   3558884   3564069  
  4930.000000   3569547   3575347   3581425   3587805   3594448  
  4920.000000   3601385   3608587   3616092   3623880   3631980  
  4910.000000   3640367   3649054   3658005   3667216   3676646  
  4900.000000   3686279   3696078   3706027   3716097   3726274  
  4890.000000   3736534   3746847   3757179   3767473   3777680  
  4880.000000   3787727   3797575   3807164   3816480   3825481  
  4870.000000   3834167   3842489   3850441   3857966   3865066  
  4860.000000   3871703   3877913   3883691   3889101   3894151  
  4850.000000   3898902   3903351   3907547   3911479   3915196  
  4840.000000   3918694   3922027   3925199   3928262   3931220  
  4830.000000   3934115   3936950   3939754   3942521   3945261  
  4820.000000   3947955   3950596   3953161   3955647   3958047  
  4810.000000   3960378   3962655   3964907   3967152   3969411  
  4800.000000   3971690   3973997   3976326   3978678   3981045  
  4790.000000   3983422   3985799   3988168   3990518   3992846  
  4780.000000   3995147   3997425   3999678   4001904   4004091  
  4770.000000   4006226   4008286   4010261   4012135   4013915  
  4760.000000   4015600   4017209   4018739   4020202   4021577  
  4750.000000   4022857   4024008   4025020   4025862   4026534  
  4740.000000   4027025   4027355   4027534   4027599   4027568  
  4730.000000   4027476   4027329   4027137   4026883   4026552  
  4720.000000   4026124   4025591   4024957   4024245   4023492  
  4710.000000   4022742   4022040   4021422   4020918   4020542  
  4700.000000   4020301   4020193   4020214   4020357   4020616  
  4690.000000   4020984   4021454   4022015   4022657   4023354  
  4680.000000   4024086   4024813   4025509   4026140   4026694  
  4670.000000   4027161   4027561   4027907   4028235   4028567  
  4660.000000   4028933   4029351   4029851   4030457   4031208  
  4650.000000   4032136   4033273   4034630   4036206   4037973  
  4640.000000   4039891   4041912   4043991   4046091   4048186  
  4630.000000   4050255   4052284   4054259   4056163   4057985  
  4620.000000   4059709   4061330   4062834   4064213   4065443  
  4610.000000   4066511   4067389   4068076   4068569   4068904  
  4600.000000   4069111   4069248   4069346   4069442   4069531  
  4590.000000   4069612   4069648   4069619   4069487   4069243  
  4580.000000   4068865   4068360   4067726   4066986   4066149  
  4570.000000   4065251   4064307   4063345   4062367   4061371  
  4560.000000   4060330   4059220   4058007   4056676   4055220  
  4550.000000   4053653   4051996   4050275   4048512   4046724  
  4540.000000   4044923   4043116   4041319   4039546   4037821  
  4530.000000   4036157   4034577   4033075   4031669   4030344  
  4520.000000   4029129   4028015   4027057   4026255   4025678  
  4510.000000   4025324   4025265   4025495   4026095   4027065  
  4500.000000   4028507   4030425   4032928   4036014   4039783  
  4490.000000   4044219   4049411   4055328   4062042   4069502  
  4480.000000   4077756   4086727   4096439   4106799   4117824  
  4470.000000   4129428   4141629   4154347   4167594   4181289  
  4460.000000   4195425   4209913   4224731   4239788   4255045  
  4450.000000   4270415   4285852   4301286   4316681   4332006  
  4440.000000   4347248   4362417   4377507   4392542   4407495  
  4430.000000   4422374   4437115   4451709   4466061   4480153  
  4420.000000   4493875   4507207   4520033   4532335   4543993  
  4410.000000   4554991   4565214   4574654   4583217   4590924  
  4400.000000   4597731   4603714   4608892   4613395   4617290  
  4390.000000   4620730   4623794   4626622   4629278   4631873  
  4380.000000   4634447   4637080   4639801   4642670   4645717  
  4370.000000   4649000   4652555   4656424   4660630   4665180  
  4360.000000   4670051   4675203   4680569   4686083   4691653  
  4350.000000   4697226   4702712   4708095   4713318   4718415  
  4340.000000   4723367   4728225   4732942   4737471   4741615  
  4330.000000   4745127   4747637   4748801   4748307   4746040  
  4320.000000   4742067   4736721   4730483   4723953   4717668  
  4310.000000   4712079   4707415   4703763   4701022   4699045  
  4300.000000   4697636   4696646   4695953   4695478   4695172  
  4290.000000   4694981   4694883   4694839   4694856   4694936  
  4280.000000   4695114   4695413   4695852   4696441   4697161  
  4270.000000   4698002   4698918   4699865   4700734   4701392  
  4260.000000   4701631   4701230   4699960   4697671   4694305  
  4250.000000   4689954   4684821   4679218   4673462   4667867  
  4240.000000   4662638   4657911   4653691   4649937   4646537  
  4230.000000   4643392   4640389   4637443   4634486   4631466  
  4220.000000   4628365   4625168   4621915   4618635   4615411  
  4210.000000   4612293   4609362   4606644   4604183   4601971  
  4200.000000   4600020   4598303   4596823   4595544   4594464  
  4190.000000   4593534   4592751   4592067   4591497   4591016  
  4180.000000   4590677   4590478   4590496   4590737   4591276  
  4170.000000   4592119   4593346   4594964   4597057   4599626  
  4160.000000   4602738   4606362   4610534   4615193   4620364  
  4150.000000   4625989   4632110   4638687   4645773   4653323  
  4140.000000   4661379   4669877   4678847   4688223   4698041  
  4130.000000   4708250   4718897   4729941   4741429   4753323  
  4120.000000   4765665   4778426   4791650   4805319   4819479  
  4110.000000   4834109   4849237   4864815   4880833   4897211  
  4100.000000   4913906   4930826   4947928   4965146   4982462  
  4090.000000   4999854   5017325   5034882   5052531   5070288  
  4080.000000   5088150   5106134   5124212   5142379   5160556  
  4070.000000   5178689   5196643   5214341   5231645   5248521  
  4060.000000   5264886   5280773   5296128   5311000   5325317  
  4050.000000   5339122   5352337   5365033   5377153   5388786  
  4040.000000   5399851   5410391   5420262   5429462   5437837  
  4030.000000   5445421   5452115   5457999   5463011   5467217  
  4020.000000   5470515   5472969   5474546   5475345   5475333  
  4010.000000   5474678   5473469   5471744   5469286   5466164  
  4000.000000   5462700  
##END= 
