##TITLE= Sample 002 By ssteindl date Montag, November 26 2018
##JCAMP-DX= 4.24
##DATA TYPE= INFRARED SPECTRUM
##ORIGIN= Exported PE Spectrum Data File
##OWNER= Sandra Steindl
##DATE= 18/11/26
##TIME= 12:51:48.00
##SPECTROMETER/DATA SYSTEM= PERKIN-ELMER Frontier FT-IR/NIR IR
##INSTRUMENT PARAMETERS=
  APODIZATION=stark
  DETECTOR=INGAAS
##RESOLUTION= 16.000000
##DELTAX= -2.000000
##XUNITS= 1/CM
##YUNITS= A
##XFACTOR= 1.00
##YFACTOR= 0.00000011920928955078
##FIRSTX= 10000.00
##LASTX= 4000.00
##NPOINTS= 3001
##FIRSTY= 0.252556
##MAXY= 0.619822
##MINY= 0.218017
##XYDATA= (X++(Y..Y))
 10000.000000   2118592   2121790   2123704   2122809   2119284  
  9990.000000   2114563   2109917   2106079   2103645   2102899  
  9980.000000   2103414   2104223   2104350   2103187   2100561  
  9970.000000   2096895   2093046   2090096   2088930   2090058  
  9960.000000   2093441   2098546   2104517   2110366   2115211  
  9950.000000   2118370   2119444   2118297   2115094   2110268  
  9940.000000   2104578   2098949   2094370   2091562   2090769  
  9930.000000   2091660   2093368   2094881   2095308   2094341  
  9920.000000   2092307   2090134   2088962   2089686   2092593  
  9910.000000   2097142   2102164   2106152   2107850   2106577  
  9900.000000   2102542   2096713   2090542   2085539   2082780  
  9890.000000   2082721   2085005   2088771   2092866   2096336  
  9880.000000   2098641   2099807   2100265   2100579   2101073  
  9870.000000   2101587   2101474   2099784   2095748   2089087  
  9860.000000   2080361   2070828   2062160   2055887   2052878  
  9850.000000   2053106   2055663   2059207   2062418   2064484  
  9840.000000   2065261   2065187   2064988   2065315   2066537  
  9830.000000   2068642   2071359   2074266   2076961   2079085  
  9820.000000   2080374   2080638   2079822   2078060   2075711  
  9810.000000   2073316   2071396   2070268   2069807   2069502  
  9800.000000   2068594   2066507   2063121   2058990   2055126  
  9790.000000   2052647   2052242   2053831   2056545   2058995  
  9780.000000   2059856   2058305   2054386   2048874   2042991  
  9770.000000   2037891   2034325   2032503   2032216   2033091  
  9760.000000   2034800   2037175   2040130   2043561   2047206  
  9750.000000   2050691   2053589   2055627   2056765   2057185  
  9740.000000   2057171   2056882   2056312   2055235   2053439  
  9730.000000   2050827   2047576   2044042   2040627   2037580  
  9720.000000   2034884   2032334   2029688   2026948   2024431  
  9710.000000   2022784   2022683   2024591   2028457   2033715  
  9700.000000   2039423   2044573   2048416   2050601   2051223  
  9690.000000   2050603   2049131   2047086   2044628   2041867  
  9680.000000   2038959   2036168   2033807   2032147   2031272  
  9670.000000   2031052   2031147   2031147   2030696   2029594  
  9660.000000   2027834   2025551   2022964   2020328   2017892  
  9650.000000   2015938   2014743   2014580   2015632   2017916  
  9640.000000   2021241   2025173   2029148   2032497   2034645  
  9630.000000   2035098   2033647   2030283   2025403   2019652  
  9620.000000   2013991   2009430   2006858   2006814   2009304  
  9610.000000   2013895   2019772   2026125   2032285   2038006  
  9600.000000   2043344   2048569   2053848   2059056   2063714  
  9590.000000   2067110   2068589   2067810   2064915   2060489  
  9580.000000   2055328   2050212   2045619   2041724   2038373  
  9570.000000   2035321   2032293   2029139   2025772   2022184  
  9560.000000   2018358   2014357   2010302   2006492   2003315  
  9550.000000   2001200   2000428   2001012   2002668   2004855  
  9540.000000   2006982   2008521   2009181   2008828   2007508  
  9530.000000   2005235   2002078   1998075   1993439   1988553  
  9520.000000   1983984   1980355   1978119   1977476   1978275  
  9510.000000   1980188   1982824   1985925   1989365   1993067  
  9500.000000   1996822   2000156   2002360   2002657   2000565  
  9490.000000   1996155   1990220   1984054   1979075   1976279  
  9480.000000   1975906   1977363   1979477   1980961   1980843  
  9470.000000   1978815   1975220   1970899   1966814   1963778  
  9460.000000   1962250   1962326   1963837   1966429   1969662  
  9450.000000   1972996   1975830   1977559   1977728   1976202  
  9440.000000   1973300   1969738   1966439   1964172   1963285  
  9430.000000   1963570   1964372   1964892   1964499   1963037  
  9420.000000   1960834   1958613   1957116   1956819   1957702  
  9410.000000   1959290   1960873   1961757   1961538   1960129  
  9400.000000   1957774   1954850   1951768   1948846   1946306  
  9390.000000   1944295   1942939   1942345   1942566   1943557  
  9380.000000   1945123   1946971   1948770   1950274   1951394  
  9370.000000   1952189   1952830   1953442   1954072   1954619  
  9360.000000   1954899   1954723   1953981   1952747   1951260  
  9350.000000   1949919   1949127   1949184   1950159   1951862  
  9340.000000   1953865   1955593   1956435   1955895   1953735  
  9330.000000   1950072   1945400   1940479   1936158   1933178  
  9320.000000   1931971   1932572   1934571   1937270   1939859  
  9310.000000   1941687   1942428   1942114   1941103   1939866  
  9300.000000   1938866   1938305   1938120   1937972   1937475  
  9290.000000   1936370   1934681   1932752   1931130   1930452  
  9280.000000   1931189   1933514   1937152   1941478   1945667  
  9270.000000   1948935   1950718   1950774   1949220   1946459  
  9260.000000   1943087   1939710   1936844   1934806   1933716  
  9250.000000   1933470   1933763   1934154   1934176   1933498  
  9240.000000   1932022   1929949   1927704   1925858   1924928  
  9230.000000   1925220   1926694   1928991   1931552   1933836  
  9220.000000   1935476   1936393   1936758   1936866   1936961  
  9210.000000   1937090   1937104   1936695   1935595   1933646  
  9200.000000   1930934   1927710   1924336   1921161   1918417  
  9190.000000   1916242   1914678   1913814   1913756   1914665  
  9180.000000   1916583   1919416   1922827   1926336   1929414  
  9170.000000   1931626   1932791   1932933   1932302   1931116  
  9160.000000   1929529   1927457   1924713   1921109   1916673  
  9150.000000   1911756   1907004   1903280   1901359   1901755  
  9140.000000   1904439   1908945   1914415   1919887   1924483  
  9130.000000   1927650   1929256   1929507   1928812   1927573  
  9120.000000   1926126   1924617   1923074   1921415   1919587  
  9110.000000   1917575   1915431   1913254   1911114   1909103  
  9100.000000   1907255   1905656   1904383   1903577   1903367  
  9090.000000   1903839   1904973   1906601   1908449   1910147  
  9080.000000   1911350   1911788   1911367   1910134   1908282  
  9070.000000   1906076   1903851   1901921   1900562   1899961  
  9060.000000   1900195   1901199   1902732   1904443   1905911  
  9050.000000   1906805   1906933   1906372   1905416   1904516  
  9040.000000   1904110   1904466   1905597   1907191   1908721  
  9030.000000   1909566   1909246   1907503   1904402   1900292  
  9020.000000   1895739   1891385   1887786   1885350   1884265  
  9010.000000   1884528   1885923   1888151   1890857   1893719  
  9000.000000   1896434   1898780   1900614   1901840   1902412  
  8990.000000   1902279   1901481   1900066   1898172   1895961  
  8980.000000   1893651   1891443   1889488   1887882   1886651  
  8970.000000   1885820   1885393   1885412   1885899   1886859  
  8960.000000   1888199   1889741   1891248   1892493   1893346  
  8950.000000   1893802   1893995   1894096   1894257   1894495  
  8940.000000   1894713   1894722   1894376   1893636   1892628  
  8930.000000   1891597   1890801   1890413   1890419   1890673  
  8920.000000   1890955   1891124   1891180   1891301   1891748  
  8910.000000   1892729   1894250   1896074   1897781   1898903  
  8900.000000   1899108   1898302   1896692   1894677   1892712  
  8890.000000   1891164   1890201   1889817   1889855   1890137  
  8880.000000   1890504   1890893   1891291   1891710   1892118  
  8870.000000   1892438   1892561   1892364   1891777   1890764  
  8860.000000   1889391   1887756   1886025   1884370   1882964  
  8850.000000   1881963   1881455   1881480   1881997   1882936  
  8840.000000   1884213   1885763   1887553   1889543   1891653  
  8830.000000   1893709   1895440   1896519   1896685   1895829  
  8820.000000   1894113   1891929   1889863   1888474   1888145  
  8810.000000   1888925   1890512   1892355   1893825   1894470  
  8800.000000   1894143   1893082   1891806   1890958   1891092  
  8790.000000   1892499   1895105   1898489   1902003   1904956  
  8780.000000   1906813   1907327   1906596   1905021   1903194  
  8770.000000   1901708   1900993   1901176   1902068   1903235  
  8760.000000   1904163   1904436   1903893   1902683   1901215  
  8750.000000   1900022   1899569   1900112   1901616   1903782  
  8740.000000   1906164   1908310   1909918   1910910   1911426  
  8730.000000   1911770   1912260   1913155   1914534   1916310  
  8720.000000   1918245   1920035   1921404   1922157   1922236  
  8710.000000   1921696   1920675   1919316   1917732   1915983  
  8700.000000   1914108   1912154   1910232   1908526   1907271  
  8690.000000   1906711   1906989   1908126   1909970   1912264  
  8680.000000   1914709   1917052   1919163   1921011   1922660  
  8670.000000   1924139   1925444   1926466   1927081   1927183  
  8660.000000   1926790   1926058   1925275   1924776   1924836  
  8650.000000   1925593   1926994   1928831   1930794   1932576  
  8640.000000   1933944   1934784   1935124   1935093   1934892  
  8630.000000   1934731   1934794   1935213   1936040   1937258  
  8620.000000   1938772   1940466   1942225   1943983   1945720  
  8610.000000   1947446   1949162   1950806   1952242   1953278  
  8600.000000   1953738   1953541   1952763   1951658   1950597  
  8590.000000   1949989   1950129   1951140   1952907   1955154  
  8580.000000   1957506   1959611   1961202   1962152   1962462  
  8570.000000   1962225   1961592   1960732   1959840   1959104  
  8560.000000   1958688   1958701   1959160   1959988   1961013  
  8550.000000   1962048   1962946   1963656   1964228   1964769  
  8540.000000   1965379   1966073   1966760   1967257   1967394  
  8530.000000   1967081   1966409   1965620   1965070   1965071  
  8520.000000   1965788   1967158   1968911   1970662   1972057  
  8510.000000   1972895   1973213   1973252   1973375   1973921  
  8500.000000   1975094   1976895   1979126   1981483   1983665  
  8490.000000   1985484   1986913   1988078   1989181   1990407  
  8480.000000   1991824   1993349   1994771   1995814   1996248  
  8470.000000   1995973   1995082   1993834   1992581   1991675  
  8460.000000   1991351   1991698   1992615   1993898   1995301  
  8450.000000   1996637   1997817   1998863   1999851   2000865  
  8440.000000   2001927   2002980   2003901   2004555   2004857  
  8430.000000   2004810   2004523   2004174   2003963   2004033  
  8420.000000   2004428   2005079   2005835   2006509   2006930  
  8410.000000   2006993   2006684   2006093   2005365   2004691  
  8400.000000   2004242   2004173   2004577   2005475   2006793  
  8390.000000   2008372   2009992   2011387   2012295   2012496  
  8380.000000   2011891   2010500   2008490   2006123   2003737  
  8370.000000   2001659   2000156   1999380   1999348   1999966  
  8360.000000   2001044   2002360   2003694   2004887   2005861  
  8350.000000   2006617   2007219   2007738   2008241   2008735  
  8340.000000   2009181   2009499   2009625   2009550   2009344  
  8330.000000   2009173   2009228   2009689   2010603   2011894  
  8320.000000   2013311   2014532   2015229   2015186   2014369  
  8310.000000   2012921   2011114   2009233   2007481   2005916  
  8300.000000   2004450   2002919   2001176   1999196   1997105  
  8290.000000   1995170   1993671   1992845   1992748   1993278  
  8280.000000   1994168   1995102   1995807   1996118   1996025  
  8270.000000   1995602   1994979   1994229   1993359   1992296  
  8260.000000   1990955   1989298   1987394   1985425   1983655  
  8250.000000   1982357   1981718   1981785   1982412   1983315  
  8240.000000   1984135   1984546   1984334   1983453   1982025  
  8230.000000   1980301   1978583   1977151   1976177   1975708  
  8220.000000   1975654   1975834   1976024   1976015   1975644  
  8210.000000   1974826   1973541   1971837   1969797   1967528  
  8200.000000   1965150   1962785   1960551   1958556   1956876  
  8190.000000   1955553   1954570   1953870   1953343   1952870  
  8180.000000   1952332   1951649   1950789   1949769   1948652  
  8170.000000   1947505   1946391   1945326   1944303   1943269  
  8160.000000   1942186   1941017   1939772   1938492   1937242  
  8150.000000   1936093   1935097   1934286   1933665   1933233  
  8140.000000   1932992   1932947   1933097   1933402   1933773  
  8130.000000   1934066   1934109   1933746   1932892   1931575  
  8120.000000   1929941   1928225   1926686   1925531   1924847  
  8110.000000   1924579   1924550   1924520   1924260   1923619  
  8100.000000   1922554   1921136   1919513   1917870   1916370  
  8090.000000   1915137   1914221   1913614   1913254   1913047  
  8080.000000   1912880   1912642   1912246   1911635   1910793  
  8070.000000   1909736   1908503   1907133   1905665   1904128  
  8060.000000   1902558   1901003   1899536   1898244   1897208  
  8050.000000   1896471   1896010   1895740   1895524   1895217  
  8040.000000   1894713   1893971   1893038   1892011   1891017  
  8030.000000   1890153   1889469   1888951   1888545   1888185  
  8020.000000   1887826   1887460   1887114   1886833   1886655  
  8010.000000   1886585   1886590   1886595   1886508   1886234  
  8000.000000   1885714   1884927   1883915   1882765   1881598  
  7990.000000   1880538   1879689   1879105   1878782   1878664  
  7980.000000   1878659   1878670   1878615   1878454   1878182  
  7970.000000   1877837   1877471   1877143   1876905   1876785  
  7960.000000   1876791   1876894   1877039   1877137   1877090  
  7950.000000   1876801   1876221   1875350   1874272   1873120  
  7940.000000   1872063   1871252   1870789   1870698   1870930  
  7930.000000   1871395   1871982   1872613   1873237   1873851  
  7920.000000   1874471   1875115   1875787   1876459   1877083  
  7910.000000   1877579   1877861   1877832   1877416   1876565  
  7900.000000   1875295   1873693   1871924   1870210   1868781  
  7890.000000   1867825   1867430   1867571   1868105   1868830  
  7880.000000   1869534   1870059   1870335   1870377   1870261  
  7870.000000   1870080   1869909   1869781   1869697   1869634  
  7860.000000   1869577   1869526   1869492   1869493   1869527  
  7850.000000   1869571   1869575   1869482   1869242   1868827  
  7840.000000   1868242   1867514   1866688   1865810   1864920  
  7830.000000   1864050   1863225   1862476   1861834   1861343  
  7820.000000   1861040   1860960   1861111   1861473   1861990  
  7810.000000   1862570   1863103   1863467   1863571   1863352  
  7800.000000   1862805   1861973   1860941   1859821   1858732  
  7790.000000   1857782   1857056   1856609   1856448   1856540  
  7780.000000   1856795   1857096   1857299   1857287   1856990  
  7770.000000   1856417   1855659   1854858   1854169   1853700  
  7760.000000   1853472   1853415   1853390   1853246   1852876  
  7750.000000   1852263   1851480   1850664   1849952   1849431  
  7740.000000   1849105   1848893   1848674   1848332   1847804  
  7730.000000   1847105   1846313   1845543   1844902   1844458  
  7720.000000   1844222   1844159   1844202   1844274   1844306  
  7710.000000   1844237   1844029   1843656   1843119   1842441  
  7700.000000   1841673   1840886   1840157   1839551   1839097  
  7690.000000   1838788   1838579   1838408   1838217   1837972  
  7680.000000   1837671   1837333   1836986   1836636   1836272  
  7670.000000   1835851   1835330   1834678   1833902   1833056  
  7660.000000   1832235   1831556   1831126   1831019   1831247  
  7650.000000   1831765   1832475   1833249   1833961   1834501  
  7640.000000   1834801   1834827   1834591   1834123   1833475  
  7630.000000   1832703   1831867   1831028   1830248   1829590  
  7620.000000   1829113   1828864   1828863   1829099   1829518  
  7610.000000   1830035   1830542   1830935   1831141   1831136  
  7600.000000   1830957   1830684   1830424   1830274   1830295  
  7590.000000   1830494   1830833   1831244   1831658   1832033  
  7580.000000   1832362   1832665   1832964   1833265   1833538  
  7570.000000   1833723   1833760   1833607   1833284   1832855  
  7560.000000   1832421   1832081   1831895   1831871   1831963  
  7550.000000   1832108   1832256   1832402   1832590   1832892  
  7540.000000   1833373   1834055   1834908   1835842   1836752  
  7530.000000   1837530   1838116   1838484   1838664   1838697  
  7520.000000   1838644   1838560   1838509   1838556   1838770  
  7510.000000   1839207   1839891   1840802   1841875   1843018  
  7500.000000   1844136   1845165   1846093   1846948   1847785  
  7490.000000   1848642   1849541   1850457   1851354   1852191  
  7480.000000   1852958   1853669   1854360   1855062   1855791  
  7470.000000   1856542   1857301   1858062   1858851   1859712  
  7460.000000   1860702   1861849   1863140   1864513   1865875  
  7450.000000   1867147   1868298   1869362   1870434   1871628  
  7440.000000   1873036   1874678   1876501   1878375   1880151  
  7430.000000   1881682   1882884   1883741   1884322   1884759  
  7420.000000   1885214   1885863   1886854   1888284   1890167  
  7410.000000   1892432   1894926   1897438   1899750   1901678  
  7400.000000   1903134   1904130   1904775   1905232   1905674  
  7390.000000   1906238   1906999   1907974   1909142   1910478  
  7380.000000   1911963   1913588   1915337   1917179   1919051  
  7370.000000   1920870   1922552   1924033   1925306   1926406  
  7360.000000   1927418   1928428   1929516   1930715   1932014  
  7350.000000   1933364   1934694   1935957   1937130   1938251  
  7340.000000   1939390   1940643   1942092   1943781   1945681  
  7330.000000   1947697   1949679   1951457   1952889   1953900  
  7320.000000   1954515   1954847   1955073   1955386   1955952  
  7310.000000   1956869   1958148   1959722   1961471   1963265  
  7300.000000   1964986   1966565   1967967   1969200   1970295  
  7290.000000   1971294   1972238   1973155   1974061   1974955  
  7280.000000   1975829   1976674   1977484   1978268   1979038  
  7270.000000   1979814   1980601   1981393   1982168   1982897  
  7260.000000   1983565   1984174   1984756   1985361   1986044  
  7250.000000   1986842   1987767   1988798   1989908   1991063  
  7240.000000   1992258   1993501   1994821   1996232   1997741  
  7230.000000   1999315   2000927   2002539   2004151   2005770  
  7220.000000   2007438   2009176   2011007   2012916   2014894  
  7210.000000   2016930   2019044   2021280   2023698   2026338  
  7200.000000   2029207   2032251   2035386   2038500   2041514  
  7190.000000   2044373   2047083   2049667   2052175   2054632  
  7180.000000   2057063   2059472   2061882   2064324   2066863  
  7170.000000   2069554   2072448   2075548   2078824   2082213  
  7160.000000   2085661   2089129   2092626   2096175   2099821  
  7150.000000   2103579   2107453   2111402   2115394   2119384  
  7140.000000   2123374   2127367   2131405   2135502   2139680  
  7130.000000   2143923   2148228   2152576   2156983   2161462  
  7120.000000   2166058   2170792   2175697   2180770   2186008  
  7110.000000   2191385   2196875   2202436   2208034   2213624  
  7100.000000   2219185   2224696   2230180   2235659   2241176  
  7090.000000   2246744   2252360   2257980   2263554   2269033  
  7080.000000   2274408   2279708   2285004   2290369   2295858  
  7070.000000   2301476   2307183   2312906   2318581   2324171  
  7060.000000   2329690   2335182   2340709   2346314   2352019  
  7050.000000   2357810   2363662   2369542   2375432   2381313  
  7040.000000   2387167   2392962   2398656   2404213   2409618  
  7030.000000   2414893   2420095   2425301   2430575   2435950  
  7020.000000   2441407   2446899   2452356   2457735   2463014  
  7010.000000   2468207   2473328   2478389   2483364   2488215  
  7000.000000   2492886   2497354   2501621   2505741   2509780  
  6990.000000   2513819   2517904   2522063   2526276   2530512  
  6980.000000   2534716   2538844   2542837   2546664   2550286  
  6970.000000   2553705   2556941   2560065   2563154   2566300  
  6960.000000   2569549   2572904   2576293   2579606   2582707  
  6950.000000   2585502   2587937   2590043   2591886   2593581  
  6940.000000   2595226   2596916   2598700   2600617   2602672  
  6930.000000   2604864   2607160   2609516   2611847   2614072  
  6920.000000   2616098   2617877   2619399   2620717   2621920  
  6910.000000   2623109   2624364   2625719   2627152   2628596  
  6900.000000   2629962   2631174   2632189   2633021   2633725  
  6890.000000   2634394   2635117   2635975   2637001   2638192  
  6880.000000   2639504   2640877   2642247   2643568   2644808  
  6870.000000   2645959   2647021   2647997   2648885   2649678  
  6860.000000   2650375   2650981   2651516   2652012   2652498  
  6850.000000   2653002   2653534   2654098   2654686   2655306  
  6840.000000   2655964   2656682   2657475   2658345   2659266  
  6830.000000   2660187   2661041   2661764   2662310   2662664  
  6820.000000   2662843   2662887   2662853   2662802   2662784  
  6810.000000   2662843   2663000   2663263   2663604   2663982  
  6800.000000   2664330   2664593   2664728   2664739   2664664  
  6790.000000   2664573   2664530   2664580   2664714   2664881  
  6780.000000   2664998   2664986   2664793   2664418   2663904  
  6770.000000   2663319   2662737   2662212   2661771   2661419  
  6760.000000   2661150   2660956   2660833   2660774   2660770  
  6750.000000   2660801   2660841   2660866   2660864   2660836  
  6740.000000   2660798   2660768   2660761   2660782   2660827  
  6730.000000   2660892   2660974   2661072   2661184   2661300  
  6720.000000   2661394   2661433   2661385   2661233   2660986  
  6710.000000   2660675   2660344   2660034   2659762   2659529  
  6700.000000   2659315   2659108   2658896   2658699   2658529  
  6690.000000   2658404   2658312   2658220   2658073   2657818  
  6680.000000   2657415   2656854   2656145   2655317   2654394  
  6670.000000   2653395   2652325   2651201   2650042   2648892  
  6660.000000   2647795   2646801   2645929   2645174   2644496  
  6650.000000   2643844   2643158   2642400   2641541   2640578  
  6640.000000   2639515   2638369   2637164   2635939   2634734  
  6630.000000   2633599   2632564   2631639   2630794   2629976  
  6620.000000   2629110   2628135   2627012   2625741   2624345  
  6610.000000   2622868   2621344   2619794   2618223   2616632  
  6600.000000   2615022   2613408   2611810   2610246   2608722  
  6590.000000   2607237   2605775   2604331   2602904   2601513  
  6580.000000   2600173   2598895   2597669   2596464   2595246  
  6570.000000   2593986   2592680   2591344   2590016   2588724  
  6560.000000   2587482   2586276   2585077   2583856   2582601  
  6550.000000   2581327   2580070   2578866   2577735   2576673  
  6540.000000   2575652   2574639   2573610   2572562   2571509  
  6530.000000   2570467   2569440   2568414   2567359   2566247  
  6520.000000   2565071   2563851   2562632   2561462   2560370  
  6510.000000   2559354   2558377   2557389   2556342   2555218  
  6500.000000   2554029   2552811   2551604   2550437   2549316  
  6490.000000   2548229   2547161   2546107   2545079   2544103  
  6480.000000   2543205   2542399   2541676   2541010   2540362  
  6470.000000   2539695   2538982   2538210   2537375   2536481  
  6460.000000   2535532   2534531   2533487   2532411   2531317  
  6450.000000   2530222   2529137   2528068   2527018   2525989  
  6440.000000   2524988   2524020   2523095   2522209   2521350  
  6430.000000   2520496   2519630   2518746   2517867   2517033  
  6420.000000   2516300   2515710   2515283   2514998   2514806  
  6410.000000   2514641   2514450   2514202   2513899   2513563  
  6400.000000   2513233   2512933   2512678   2512465   2512289  
  6390.000000   2512136   2512002   2511883   2511774   2511664  
  6380.000000   2511541   2511399   2511239   2511082   2510952  
  6370.000000   2510879   2510874   2510929   2511007   2511059  
  6360.000000   2511033   2510890   2510614   2510215   2509718  
  6350.000000   2509161   2508577   2508001   2507453   2506947  
  6340.000000   2506481   2506044   2505611   2505155   2504648  
  6330.000000   2504083   2503459   2502799   2502125   2501457  
  6320.000000   2500796   2500128   2499425   2498665   2497836  
  6310.000000   2496953   2496039   2495134   2494258   2493422  
  6300.000000   2492609   2491796   2490952   2490061   2489109  
  6290.000000   2488098   2487026   2485894   2484697   2483438  
  6280.000000   2482126   2480787   2479452   2478157   2476921  
  6270.000000   2475751   2474630   2473530   2472413   2471252  
  6260.000000   2470023   2468720   2467343   2465900   2464402  
  6250.000000   2462867   2461313   2459757   2458211   2456675  
  6240.000000   2455137   2453578   2451979   2450334   2448653  
  6230.000000   2446967   2445311   2443723   2442221   2440802  
  6220.000000   2439446   2438122   2436802   2435465   2434106  
  6210.000000   2432727   2431336   2429942   2428556   2427190  
  6200.000000   2425860   2424580   2423361   2422198   2421072  
  6190.000000   2419950   2418796   2417586   2416315   2415002  
  6180.000000   2413680   2412381   2411123   2409900   2408691  
  6170.000000   2407462   2406193   2404885   2403565   2402278  
  6160.000000   2401072   2399980   2399011   2398147   2397347  
  6150.000000   2396563   2395747   2394867   2393912   2392886  
  6140.000000   2391813   2390717   2389624   2388549   2387489  
  6130.000000   2386427   2385336   2384190   2382979   2381708  
  6120.000000   2380410   2379132   2377922   2376815   2375830  
  6110.000000   2374959   2374182   2373469   2372802   2372165  
  6100.000000   2371556   2370975   2370427   2369909   2369426  
  6090.000000   2368981   2368590   2368258   2368000   2367801  
  6080.000000   2367645   2367491   2367310   2367069   2366774  
  6070.000000   2366443   2366124   2365856   2365686   2365635  
  6060.000000   2365719   2365934   2366287   2366772   2367397  
  6050.000000   2368150   2369021   2369975   2370985   2372010  
  6040.000000   2373040   2374069   2375128   2376246   2377466  
  6030.000000   2378808   2380293   2381913   2383660   2385506  
  6020.000000   2387432   2389401   2391389   2393359   2395296  
  6010.000000   2397184   2399036   2400871   2402730   2404640  
  6000.000000   2406632   2408707   2410868   2413096   2415388  
  5990.000000   2417736   2420152   2422639   2425208   2427850  
  5980.000000   2430560   2433315   2436117   2438958   2441864  
  5970.000000   2444848   2447940   2451140   2454450   2457843  
  5960.000000   2461306   2464811   2468358   2471947   2475597  
  5950.000000   2479318   2483127   2487018   2490988   2495021  
  5940.000000   2499107   2503231   2507393   2511590   2515825  
  5930.000000   2520099   2524403   2528724   2533030   2537287  
  5920.000000   2541449   2545476   2549329   2552993   2556461  
  5910.000000   2559746   2562865   2565845   2568701   2571459  
  5900.000000   2574136   2576769   2579386   2582033   2584738  
  5890.000000   2587526   2590387   2593304   2596230   2599128  
  5880.000000   2601957   2604693   2607319   2609828   2612213  
  5870.000000   2614469   2616599   2618616   2620549   2622441  
  5860.000000   2624341   2626288   2628305   2630388   2632521  
  5850.000000   2634677   2636840   2639007   2641190   2643407  
  5840.000000   2645676   2648002   2650380   2652794   2655229  
  5830.000000   2657671   2660118   2662565   2665012   2667454  
  5820.000000   2669886   2672305   2674711   2677110   2679502  
  5810.000000   2681889   2684254   2686586   2688856   2691071  
  5800.000000   2693225   2695357   2697478   2699616   2701742  
  5790.000000   2703828   2705782   2707535   2708989   2710087  
  5780.000000   2710764   2710995   2710746   2710019   2708815  
  5770.000000   2707188   2705205   2702987   2700648   2698314  
  5760.000000   2696062   2693950   2691974   2690134   2688400  
  5750.000000   2686774   2685248   2683833   2682522   2681301  
  5740.000000   2680145   2679027   2677936   2676873   2675863  
  5730.000000   2674923   2674066   2673278   2672533   2671790  
  5720.000000   2671021   2670210   2669366   2668503   2667641  
  5710.000000   2666785   2665936   2665087   2664242   2663420  
  5700.000000   2662652   2661969   2661393   2660925   2660538  
  5690.000000   2660199   2659865   2659513   2659125   2658704  
  5680.000000   2658243   2657735   2657152   2656467   2655643  
  5670.000000   2654662   2653505   2652171   2650653   2648953  
  5660.000000   2647066   2645006   2642794   2640482   2638126  
  5650.000000   2635792   2633528   2631365   2629307   2627346  
  5640.000000   2625466   2623661   2621926   2620265   2618676  
  5630.000000   2617147   2615667   2614215   2612788   2611388  
  5620.000000   2610040   2608762   2607576   2606480   2605464  
  5610.000000   2604501   2603573   2602665   2601778   2600921  
  5600.000000   2600107   2599340   2598619   2597932   2597265  
  5590.000000   2596604   2595938   2595259   2594556   2593818  
  5580.000000   2593033   2592196   2591308   2590381   2589430  
  5570.000000   2588472   2587512   2586544   2585557   2584540  
  5560.000000   2583486   2582406   2581313   2580226   2579153  
  5550.000000   2578095   2577042   2575985   2574921   2573856  
  5540.000000   2572803   2571778   2570784   2569819   2568866  
  5530.000000   2567909   2566936   2565946   2564942   2563930  
  5520.000000   2562909   2561871   2560801   2559688   2558528  
  5510.000000   2557330   2556106   2554871   2553632   2552389  
  5500.000000   2551138   2549884   2548635   2547414   2546232  
  5490.000000   2545093   2543970   2542818   2541581   2540218  
  5480.000000   2538709   2537077   2535364   2533629   2531915  
  5470.000000   2530245   2528609   2526987   2525349   2523681  
  5460.000000   2521977   2520243   2518481   2516688   2514858  
  5450.000000   2512985   2511075   2509147   2507231   2505357  
  5440.000000   2503548   2501808   2500136   2498521   2496963  
  5430.000000   2495461   2494018   2492617   2491237   2489837  
  5420.000000   2488394   2486897   2485384   2483913   2482573  
  5410.000000   2481419   2480481   2479720   2479081   2478488  
  5400.000000   2477904   2477315   2476765   2476298   2475973  
  5390.000000   2475806   2475805   2475933   2476181   2476529  
  5380.000000   2477003   2477612   2478389   2479321   2480409  
  5370.000000   2481607   2482911   2484291   2485774   2487353  
  5360.000000   2489074   2490920   2492931   2495090   2497455  
  5350.000000   2500038   2502929   2506152   2509786   2513812  
  5340.000000   2518266   2523090   2528317   2533898   2539889  
  5330.000000   2546253   2553042   2560202   2567774   2575704  
  5320.000000   2584067   2592846   2602163   2612017   2622527  
  5310.000000   2633656   2645482   2657932   2671071   2684839  
  5300.000000   2699324   2714494   2730457   2747188   2764786  
  5290.000000   2783200   2802479   2822514   2843281   2864624  
  5280.000000   2886502   2908805   2931576   2954815   2978651  
  5270.000000   3003113   3028253   3053969   3080126   3106508  
  5260.000000   3132943   3159319   3185625   3211920   3238266  
  5250.000000   3264691   3291095   3317333   3343146   3368367  
  5240.000000   3392821   3416533   3439517   3461945   3483868  
  5230.000000   3505409   3526491   3547089   3567007   3586176  
  5220.000000   3604438   3621834   3638338   3654117   3669220  
  5210.000000   3683820   3697903   3711532   3724565   3736976  
  5200.000000   3748599   3759462   3769496   3778830   3787467  
  5190.000000   3795548   3803044   3810034   3816437   3822299  
  5180.000000   3827541   3832223   3836287   3839797   3842686  
  5170.000000   3845007   3846704   3847853   3848446   3848599  
  5160.000000   3848325   3847720   3846753   3845460   3843774  
  5150.000000   3841716   3839239   3836397   3833175   3829634  
  5140.000000   3825762   3821604   3817146   3812439   3807494  
  5130.000000   3802378   3797107   3791730   3786239   3780652  
  5120.000000   3774950   3769158   3763288   3757392   3751499  
  5110.000000   3745648   3739839   3734072   3728326   3722592  
  5100.000000   3716869   3711175   3705533   3699965   3694481  
  5090.000000   3689079   3683747   3678471   3673244   3668061  
  5080.000000   3662922   3657822   3652746   3647678   3642597  
  5070.000000   3637495   3632364   3627216   3622050   3616869  
  5060.000000   3611649   3606369   3600990   3595496   3589875  
  5050.000000   3584147   3578331   3572459   3566543   3560590  
  5040.000000   3554585   3548518   3542377   3536167   3529901  
  5030.000000   3523605   3517304   3511019   3504766   3498552  
  5020.000000   3492385   3486270   3480220   3474238   3468339  
  5010.000000   3462522   3456798   3451164   3445638   3440224  
  5000.000000   3434958   3429848   3424937   3420225   3415747  
  4990.000000   3411490   3407481   3403699   3400170   3396869  
  4980.000000   3393820   3390995   3388423   3386079   3384005  
  4970.000000   3382185   3380673   3379454   3378575   3378010  
  4960.000000   3377794   3377893   3378346   3379128   3380295  
  4950.000000   3381829   3383783   3386123   3388878   3391991  
  4940.000000   3395474   3399265   3403387   3407798   3412540  
  4930.000000   3417585   3422986   3428718   3434825   3441278  
  4920.000000   3448108   3455274   3462793   3470617   3478757  
  4910.000000   3487175   3495890   3504881   3514166   3523721  
  4900.000000   3533534   3543555   3553737   3564020   3574351  
  4890.000000   3584690   3594996   3605248   3615394   3625397  
  4880.000000   3635173   3644668   3653790   3662506   3670748  
  4870.000000   3678522   3685790   3692580   3698863   3704674  
  4860.000000   3709987   3714846   3719232   3723196   3726723  
  4850.000000   3729863   3732606   3735006   3737069   3738868  
  4840.000000   3740433   3741846   3743144   3744397   3745626  
  4830.000000   3746873   3748139   3749444   3750775   3752133  
  4820.000000   3753497   3754855   3756189   3757494   3758772  
  4810.000000   3760036   3761310   3762617   3763977   3765395  
  4800.000000   3766872   3768396   3769960   3771558   3773192  
  4790.000000   3774868   3776596   3778380   3780215   3782090  
  4780.000000   3783985   3785880   3787754   3789593   3791384  
  4770.000000   3793123   3794808   3796443   3798029   3799575  
  4760.000000   3801082   3802553   3803977   3805349   3806647  
  4750.000000   3807867   3808995   3810040   3811005   3811911  
  4740.000000   3812768   3813592   3814382   3815141   3815859  
  4730.000000   3816529   3817139   3817681   3818142   3818512  
  4720.000000   3818783   3818951   3819027   3819027   3818990  
  4710.000000   3818958   3818988   3819125   3819418   3819892  
  4700.000000   3820567   3821444   3822522   3823787   3825234  
  4690.000000   3826852   3828638   3830580   3832675   3834896  
  4680.000000   3837225   3839610   3842014   3844375   3846659  
  4670.000000   3848822   3850863   3852783   3854623   3856417  
  4660.000000   3858226   3860095   3862080   3864217   3866549  
  4650.000000   3869097   3871883   3874907   3878160   3881616  
  4640.000000   3885238   3888982   3892804   3896667   3900537  
  4630.000000   3904386   3908185   3911906   3915511   3918968  
  4620.000000   3922232   3925275   3928059   3930573   3932797  
  4610.000000   3934743   3936409   3937835   3939037   3940073  
  4600.000000   3940967   3941775   3942504   3943180   3943783  
  4590.000000   3944311   3944724   3945013   3945141   3945109  
  4580.000000   3944898   3944519   3943968   3943268   3942422  
  4570.000000   3941458   3940383   3939220   3937972   3936655  
  4560.000000   3935267   3933823   3932326   3930798   3929246  
  4550.000000   3927688   3926120   3924541   3922929   3921271  
  4540.000000   3919550   3917764   3915926   3914054   3912176  
  4530.000000   3910307   3908468   3906653   3904875   3903130  
  4520.000000   3901451   3899852   3898393   3897091   3896007  
  4510.000000   3895130   3894505   3894103   3893978   3894120  
  4500.000000   3894619   3895488   3896839   3898679   3901106  
  4490.000000   3904103   3907751   3912023   3916999   3922654  
  4480.000000   3929065   3936193   3944092   3952693   3962016  
  4470.000000   3971970   3982557   3993677   4005323   4017392  
  4460.000000   4029869   4042649   4055708   4068952   4082361  
  4450.000000   4095867   4109468   4123132   4136874   4150693  
  4440.000000   4164603   4178608   4192697   4206859   4221044  
  4430.000000   4235222   4249317   4263299   4277085   4290655  
  4420.000000   4303928   4316895   4329470   4341637   4353294  
  4410.000000   4364411   4374873   4384649   4393643   4401861  
  4400.000000   4409266   4415930   4421887   4427263   4432133  
  4390.000000   4436639   4440862   4444933   4448920   4452931  
  4380.000000   4457008   4461217   4465559   4470055   4474677  
  4370.000000   4479422   4484271   4489235   4494317   4499546  
  4360.000000   4504926   4510473   4516155   4521957   4527796  
  4350.000000   4533635   4539358   4544936   4550264   4555355  
  4340.000000   4560141   4564653   4568804   4572529   4575599  
  4330.000000   4577761   4578636   4577904   4575290   4570746  
  4320.000000   4564420   4556733   4548242   4539610   4531405  
  4310.000000   4524086   4517876   4512833   4508843   4505740  
  4300.000000   4503329   4501462   4500037   4498984   4498281  
  4290.000000   4497883   4497788   4497957   4498402   4499105  
  4280.000000   4500081   4501313   4502781   4504447   4506247  
  4270.000000   4508129   4510007   4511802   4513374   4514557  
  4260.000000   4515120   4514827   4513447   4510845   4506992  
  4250.000000   4502029   4496205   4489886   4483428   4477181  
  4240.000000   4471366   4466129   4461466   4457330   4453591  
  4230.000000   4450140   4446853   4443647   4440457   4437234  
  4220.000000   4433967   4430639   4427285   4423924   4420632  
  4210.000000   4417450   4414464   4411708   4409235   4407044  
  4200.000000   4405148   4403515   4402135   4400964   4399997  
  4190.000000   4399190   4398549   4398038   4397675   4397426  
  4180.000000   4397323   4397342   4397531   4397882   4398466  
  4170.000000   4399295   4400457   4401972   4403921   4406306  
  4160.000000   4409182   4412515   4416335   4420587   4425297  
  4150.000000   4430412   4435966   4441914   4448292   4455052  
  4140.000000   4462234   4469788   4477760   4486102   4494862  
  4130.000000   4503989   4513518   4523391   4533641   4544227  
  4120.000000   4555207   4566584   4578449   4590826   4603799  
  4110.000000   4617364   4631542   4646261   4661472   4677058  
  4100.000000   4692946   4709032   4725273   4741618   4758070  
  4090.000000   4774619   4791275   4808030   4824864   4841755  
  4080.000000   4858661   4875567   4892427   4909236   4925931  
  4070.000000   4942492   4958821   4974882   4990569   5005871  
  4060.000000   5020708   5035105   5048988   5062378   5075176  
  4050.000000   5087403   5098969   5109940   5120271   5130059  
  4040.000000   5139256   5147920   5155947   5163356   5170033  
  4030.000000   5176030   5181282   5185881   5189789   5193073  
  4020.000000   5195647   5197566   5198805   5199441   5199429  
  4010.000000   5198903   5197933   5196509   5194375   5191562  
  4000.000000   5188401  
##END= 
