##TITLE= Sample 012 By ssteindl date Montag, November 26 2018
##JCAMP-DX= 4.24
##DATA TYPE= INFRARED SPECTRUM
##ORIGIN= Exported PE Spectrum Data File
##OWNER= Sandra Steindl
##DATE= 18/11/26
##TIME= 13:04:54.00
##SPECTROMETER/DATA SYSTEM= PERKIN-ELMER Frontier FT-IR/NIR IR
##INSTRUMENT PARAMETERS=
  APODIZATION=stark
  DETECTOR=INGAAS
##RESOLUTION= 16.000000
##DELTAX= -2.000000
##XUNITS= 1/CM
##YUNITS= A
##XFACTOR= 1.00
##YFACTOR= 0.00000011920928955078
##FIRSTX= 10000.00
##LASTX= 4000.00
##NPOINTS= 3001
##FIRSTY= 0.230686
##MAXY= 0.604805
##MINY= 0.199944
##XYDATA= (X++(Y..Y))
 10000.000000   1935135   1937986   1941617   1946560   1951794  
  9990.000000   1956014   1959104   1962207   1966407   1972183  
  9980.000000   1979244   1986520   1992232   1994605   1992707  
  9970.000000   1986814   1978232   1968818   1960269   1953622  
  9960.000000   1948966   1945793   1943317   1941128   1939249  
  9950.000000   1938179   1938349   1939849   1942140   1944254  
  9940.000000   1945205   1944332   1941684   1937738   1933289  
  9930.000000   1928842   1924577   1920261   1915615   1910670  
  9920.000000   1905923   1902386   1901096   1902841   1907644  
  9910.000000   1914871   1923323   1931688   1938881   1944132  
  9900.000000   1947115   1947578   1945446   1940539   1932920  
  9890.000000   1922918   1911403   1899714   1889426   1882057  
  9880.000000   1878591   1879444   1884249   1892242   1902225  
  9870.000000   1912962   1923143   1931585   1937341   1939786  
  9860.000000   1938868   1934998   1929138   1922375   1915771  
  9850.000000   1909937   1905047   1900857   1897008   1893308  
  9840.000000   1889851   1887049   1885323   1884941   1885755  
  9830.000000   1887317   1889042   1890524   1891736   1893005  
  9820.000000   1894865   1897709   1901604   1906180   1910771  
  9810.000000   1914666   1917343   1918618   1918630   1917686  
  9800.000000   1916139   1914247   1912182   1910043   1907874  
  9790.000000   1905682   1903370   1900768   1897666   1893995  
  9780.000000   1889947   1886116   1883309   1882354   1883635  
  9770.000000   1886910   1891252   1895354   1898062   1898762  
  9760.000000   1897704   1895733   1893917   1892943   1892798  
  9750.000000   1892766   1891847   1889319   1885267   1880676  
  9740.000000   1877112   1876078   1878270   1883275   1889560  
  9730.000000   1895131   1898218   1898008   1894891   1890245  
  9720.000000   1885830   1883077   1882571   1883904   1885971  
  9710.000000   1887415   1887238   1885001   1880960   1875758  
  9700.000000   1870171   1864859   1860242   1856589   1854086  
  9690.000000   1852955   1853429   1855684   1859668   1865058  
  9680.000000   1871202   1877326   1882648   1886617   1888991  
  9670.000000   1889805   1889340   1887910   1885864   1883415  
  9660.000000   1880705   1877745   1874484   1870857   1866808  
  9650.000000   1862429   1857909   1853661   1850150   1847896  
  9640.000000   1847211   1848157   1850409   1853351   1856186  
  9630.000000   1858160   1858772   1857890   1855784   1852965  
  9620.000000   1850042   1847445   1845407   1843823   1842471  
  9610.000000   1841008   1839202   1836933   1834236   1831280  
  9600.000000   1828285   1825569   1823489   1822507   1823096  
  9590.000000   1825647   1830279   1836682   1844055   1851214  
  9580.000000   1856859   1859940   1859982   1857233   1852609  
  9570.000000   1847382   1842817   1839764   1838471   1838568  
  9560.000000   1839271   1839701   1839146   1837284   1834167  
  9550.000000   1830197   1825926   1821950   1818763   1816695  
  9540.000000   1815868   1816189   1817386   1819048   1820744  
  9530.000000   1822126   1823059   1823650   1824192   1824993  
  9520.000000   1826216   1827721   1829138   1829960   1829815  
  9510.000000   1828608   1826614   1824371   1822494   1821453  
  9500.000000   1821413   1822223   1823501   1824826   1825860  
  9490.000000   1826462   1826625   1826458   1826058   1825544  
  9480.000000   1825035   1824719   1824798   1825424   1826564  
  9470.000000   1827920   1828954   1829051   1827753   1824968  
  9460.000000   1821021   1816565   1812312   1808814   1806269  
  9450.000000   1804537   1803282   1802169   1801057   1800001  
  9440.000000   1799189   1798708   1798451   1798059   1797130  
  9430.000000   1795397   1792963   1790276   1788034   1786901  
  9420.000000   1787300   1789277   1792528   1796564   1800859  
  9410.000000   1804997   1808667   1811634   1813682   1814624  
  9400.000000   1814372   1813037   1810951   1808626   1806550  
  9390.000000   1805026   1803998   1803137   1801961   1800130  
  9380.000000   1797571   1794549   1791509   1788849   1786711  
  9370.000000   1784873   1782888   1780299   1776940   1773037  
  9360.000000   1769160   1766010   1764152   1763860   1765060  
  9350.000000   1767456   1770679   1774392   1778323   1782170  
  9340.000000   1785575   1788058   1789194   1788703   1786697  
  9330.000000   1783639   1780298   1777432   1775564   1774823  
  9320.000000   1774978   1775635   1776420   1777207   1778075  
  9310.000000   1779236   1780793   1782652   1784503   1785959  
  9300.000000   1786725   1786732   1786160   1785344   1784601  
  9290.000000   1784126   1783916   1783890   1783944   1784093  
  9280.000000   1784400   1784910   1785503   1785855   1785516  
  9270.000000   1784082   1781378   1777563   1773080   1768535  
  9260.000000   1764467   1761233   1758925   1757493   1756835  
  9250.000000   1756928   1757761   1759255   1761113   1762797  
  9240.000000   1763649   1763065   1760809   1757073   1752556  
  9230.000000   1748107   1744522   1742167   1740977   1740528  
  9220.000000   1740316   1740014   1739597   1739371   1739771  
  9210.000000   1741164   1743648   1747041   1750959   1754947  
  9200.000000   1758594   1761559   1763620   1764609   1764470  
  9190.000000   1763266   1761255   1758884   1756673   1755074  
  9180.000000   1754259   1754085   1754117   1753854   1752921  
  9170.000000   1751286   1749244   1747293   1745867   1745115  
  9160.000000   1744844   1744600   1743921   1742569   1740659  
  9150.000000   1738628   1737007   1736267   1736593   1737915  
  9140.000000   1739937   1742346   1744905   1747442   1749763  
  9130.000000   1751517   1752236   1751394   1748653   1744008  
  9120.000000   1737943   1731336   1725254   1720610   1717886  
  9110.000000   1717075   1717763   1719357   1721282   1723184  
  9100.000000   1724944   1726577   1728069   1729315   1730164  
  9090.000000   1730504   1730385   1730040   1729880   1730307  
  9080.000000   1731563   1733595   1736049   1738397   1740084  
  9070.000000   1740723   1740183   1738602   1736321   1733736  
  9060.000000   1731200   1728944   1727084   1725629   1724528  
  9050.000000   1723699   1723073   1722627   1722382   1722428  
  9040.000000   1722843   1723714   1725034   1726729   1728625  
  9030.000000   1730523   1732254   1733730   1734956   1735960  
  9020.000000   1736737   1737173   1737066   1736157   1734276  
  9010.000000   1731425   1727870   1724059   1720519   1717676  
  9000.000000   1715731   1714628   1714092   1713803   1713542  
  8990.000000   1713299   1713276   1713765   1715029   1717110  
  8980.000000   1719815   1722706   1725283   1727093   1727912  
  8970.000000   1727806   1727144   1726476   1726359   1727232  
  8960.000000   1729254   1732297   1735913   1739505   1742438  
  8950.000000   1744234   1744629   1743666   1741618   1738927  
  8940.000000   1736023   1733244   1730764   1728599   1726666  
  8930.000000   1724833   1722996   1721097   1719115   1717055  
  8920.000000   1714925   1712744   1710578   1708556   1706889  
  8910.000000   1705809   1705530   1706158   1707666   1709876  
  8900.000000   1712504   1715234   1717806   1720043   1721872  
  8890.000000   1723267   1724248   1724798   1724898   1724511  
  8880.000000   1723664   1722427   1720954   1719430   1718055  
  8870.000000   1716982   1716268   1715898   1715774   1715807  
  8860.000000   1715915   1716111   1716475   1717148   1718237  
  8850.000000   1719784   1721702   1723782   1725718   1727198  
  8840.000000   1728009   1728079   1727510   1726507   1725334  
  8830.000000   1724180   1723126   1722100   1720965   1719574  
  8820.000000   1717874   1715942   1713980   1712285   1711147  
  8810.000000   1710798   1711332   1712717   1714801   1717357  
  8800.000000   1720113   1722788   1725132   1726944   1728134  
  8790.000000   1728701   1728780   1728550   1728227   1727940  
  8780.000000   1727738   1727546   1727250   1726753   1726059  
  8770.000000   1725317   1724778   1724737   1725404   1726843  
  8760.000000   1728931   1731399   1733925   1736224   1738140  
  8750.000000   1739642   1740816   1741777   1742619   1743383  
  8740.000000   1744051   1744606   1745055   1745484   1746015  
  8730.000000   1746796   1747891   1749276   1750770   1752109  
  8720.000000   1752980   1753139   1752482   1751073   1749145  
  8710.000000   1747002   1744954   1743201   1741809   1740716  
  8700.000000   1739805   1739001   1738332   1737958   1738106  
  8690.000000   1738990   1740686   1743086   1745899   1748732  
  8680.000000   1751228   1753139   1754435   1755230   1755752  
  8670.000000   1756185   1756629   1757053   1757369   1757496  
  8660.000000   1757438   1757315   1757319   1757662   1758469  
  8650.000000   1759765   1761444   1763338   1765256   1767045  
  8640.000000   1768592   1769837   1770747   1771330   1771631  
  8630.000000   1771764   1771896   1772219   1772888   1773941  
  8620.000000   1775275   1776628   1777673   1778103   1777757  
  8610.000000   1776667   1775054   1773273   1771715   1770727  
  8600.000000   1770539   1771273   1772938   1775452   1778632  
  8590.000000   1782210   1785841   1789142   1791760   1793463  
  8580.000000   1794234   1794260   1793900   1793538   1793492  
  8570.000000   1793897   1794697   1795704   1796683   1797491  
  8560.000000   1798092   1798600   1799171   1799954   1800989  
  8550.000000   1802203   1803442   1804508   1805246   1805553  
  8540.000000   1805433   1804939   1804187   1803314   1802495  
  8530.000000   1801917   1801745   1802118   1803088   1804632  
  8520.000000   1806608   1808859   1811229   1813641   1816072  
  8510.000000   1818539   1821034   1823458   1825601   1827154  
  8500.000000   1827831   1827433   1825977   1823686   1820988  
  8490.000000   1818383   1816319   1815088   1814753   1815194  
  8480.000000   1816147   1817351   1818605   1819856   1821160  
  8470.000000   1822654   1824457   1826610   1829041   1831553  
  8460.000000   1833911   1835860   1837250   1838018   1838248  
  8450.000000   1838077   1837673   1837176   1836676   1836228  
  8440.000000   1835860   1835633   1835647   1836045   1836947  
  8430.000000   1838415   1840392   1842702   1845065   1847176  
  8420.000000   1848789   1849788   1850211   1850232   1850107  
  8410.000000   1850111   1850461   1851270   1852519   1854092  
  8400.000000   1855794   1857402   1858680   1859445   1859581  
  8390.000000   1859083   1858021   1856561   1854918   1853326  
  8380.000000   1851983   1851016   1850468   1850300   1850397  
  8370.000000   1850611   1850769   1850753   1850488   1849995  
  8360.000000   1849358   1848735   1848307   1848228   1848562  
  8350.000000   1849254   1850138   1850963   1851457   1851399  
  8340.000000   1850687   1849368   1847618   1845688   1843844  
  8330.000000   1842293   1841146   1840401   1839960   1839683  
  8320.000000   1839421   1839075   1838603   1838048   1837511  
  8310.000000   1837134   1837041   1837298   1837882   1838665  
  8300.000000   1839445   1839984   1840098   1839706   1838884  
  8290.000000   1837824   1836796   1836041   1835708   1835781  
  8280.000000   1836091   1836371   1836361   1835914   1835039  
  8270.000000   1833924   1832863   1832192   1832156   1832845  
  8260.000000   1834134   1835736   1837270   1838371   1838787  
  8250.000000   1838432   1837405   1835943   1834335   1832839  
  8240.000000   1831600   1830657   1829936   1829338   1828762  
  8230.000000   1828186   1827630   1827164   1826817   1826563  
  8220.000000   1826286   1825811   1824963   1823611   1821736  
  8210.000000   1819417   1816822   1814160   1811621   1809358  
  8200.000000   1807451   1805943   1804826   1804079   1803653  
  8190.000000   1803472   1803425   1803364   1803127   1802567  
  8180.000000   1801600   1800215   1798500   1796602   1794720  
  8170.000000   1793040   1791714   1790811   1790302   1790066  
  8160.000000   1789905   1789605   1788984   1787951   1786537  
  8150.000000   1784886   1783221   1781758   1780636   1779857  
  8140.000000   1779299   1778758   1778048   1777070   1775858  
  8130.000000   1774559   1773365   1772432   1771808   1771421  
  8120.000000   1771110   1770705   1770106   1769327   1768481  
  8110.000000   1767722   1767169   1766843   1766652   1766424  
  8100.000000   1765975   1765177   1764006   1762544   1760951  
  8090.000000   1759412   1758085   1757071   1756397   1756029  
  8080.000000   1755889   1755866   1755842   1755699   1755356  
  8070.000000   1754774   1753980   1753058   1752121   1751288  
  8060.000000   1750638   1750198   1749940   1749804   1749725  
  8050.000000   1749660   1749580   1749462   1749263   1748905  
  8040.000000   1748286   1747311   1745936   1744200   1742238  
  8030.000000   1740253   1738464   1737046   1736083   1735549  
  8020.000000   1735325   1735247   1735147   1734904   1734463  
  8010.000000   1733835   1733085   1732306   1731596   1731029  
  8000.000000   1730647   1730440   1730359   1730319   1730227  
  7990.000000   1730006   1729613   1729051   1728361   1727606  
  7980.000000   1726841   1726099   1725386   1724689   1723990  
  7970.000000   1723287   1722590   1721926   1721318   1720779  
  7960.000000   1720308   1719895   1719531   1719208   1718923  
  7950.000000   1718649   1718342   1717928   1717337   1716521  
  7940.000000   1715508   1714391   1713337   1712514   1712052  
  7930.000000   1711974   1712194   1712543   1712842   1712972  
  7920.000000   1712936   1712859   1712940   1713374   1714260  
  7910.000000   1715562   1717111   1718658   1719971   1720889  
  7900.000000   1721378   1721500   1721367   1721082   1720689  
  7890.000000   1720184   1719534   1718738   1717854   1717011  
  7880.000000   1716359   1716026   1716045   1716344   1716750  
  7870.000000   1717058   1717092   1716767   1716115   1715258  
  7860.000000   1714364   1713585   1713013   1712665   1712504  
  7850.000000   1712469   1712510   1712608   1712766   1712996  
  7840.000000   1713292   1713621   1713926   1714145   1714230  
  7830.000000   1714158   1713935   1713590   1713158   1712683  
  7820.000000   1712205   1711782   1711468   1711324   1711375  
  7810.000000   1711608   1711946   1712258   1712391   1712211  
  7800.000000   1711645   1710705   1709482   1708121   1706778  
  7790.000000   1705581   1704609   1703894   1703429   1703196  
  7780.000000   1703166   1703302   1703539   1703790   1703940  
  7770.000000   1703880   1703535   1702895   1702028   1701056  
  7760.000000   1700124   1699347   1698785   1698420   1698180  
  7750.000000   1697969   1697705   1697346   1696893   1696383  
  7740.000000   1695866   1695385   1694965   1694616   1694329  
  7730.000000   1694085   1693854   1693596   1693268   1692830  
  7720.000000   1692265   1691587   1690845   1690112   1689463  
  7710.000000   1688945   1688561   1688274   1688018   1687733  
  7700.000000   1687387   1686990   1686588   1686236   1685974  
  7690.000000   1685795   1685651   1685455   1685124   1684600  
  7680.000000   1683876   1682999   1682061   1681168   1680422  
  7670.000000   1679898   1679630   1679611   1679796   1680114  
  7660.000000   1680474   1680789   1680987   1681024   1680895  
  7650.000000   1680626   1680266   1679871   1679490   1679156  
  7640.000000   1678888   1678694   1678575   1678528   1678543  
  7630.000000   1678598   1678656   1678676   1678624   1678485  
  7620.000000   1678281   1678054   1677865   1677756   1677739  
  7610.000000   1677783   1677830   1677818   1677717   1677543  
  7600.000000   1677361   1677250   1677282   1677478   1677799  
  7590.000000   1678158   1678450   1678596   1678574   1678430  
  7580.000000   1678265   1678190   1678294   1678610   1679105  
  7570.000000   1679691   1680258   1680703   1680967   1681044  
  7560.000000   1680979   1680857   1680771   1680804   1681010  
  7550.000000   1681398   1681936   1682556   1683179   1683729  
  7540.000000   1684161   1684458   1684644   1684756   1684845  
  7530.000000   1684941   1685064   1685211   1685384   1685587  
  7520.000000   1685851   1686223   1686760   1687513   1688504  
  7510.000000   1689720   1691116   1692625   1694180   1695717  
  7500.000000   1697192   1698566   1699815   1700910   1701835  
  7490.000000   1702578   1703153   1703593   1703961   1704328  
  7480.000000   1704768   1705335   1706058   1706940   1707962  
  7470.000000   1709097   1710311   1711571   1712849   1714118  
  7460.000000   1715359   1716559   1717726   1718873   1720037  
  7450.000000   1721243   1722516   1723850   1725232   1726629  
  7440.000000   1728019   1729393   1730770   1732185   1733680  
  7430.000000   1735283   1737002   1738816   1740691   1742586  
  7420.000000   1744471   1746325   1748137   1749891   1751564  
  7410.000000   1753125   1754552   1755838   1757017   1758148  
  7400.000000   1759315   1760592   1762024   1763612   1765313  
  7390.000000   1767063   1768799   1770489   1772129   1773751  
  7380.000000   1775397   1777100   1778873   1780703   1782564  
  7370.000000   1784420   1786241   1787999   1789673   1791242  
  7360.000000   1792695   1794036   1795292   1796513   1797759  
  7350.000000   1799081   1800499   1801985   1803473   1804883  
  7340.000000   1806160   1807309   1808396   1809535   1810838  
  7330.000000   1812380   1814161   1816110   1818105   1820023  
  7320.000000   1821784   1823374   1824836   1826242   1827652  
  7310.000000   1829094   1830546   1831958   1833280   1834486  
  7300.000000   1835587   1836624   1837637   1838656   1839679  
  7290.000000   1840683   1841639   1842534   1843378   1844206  
  7280.000000   1845053   1845945   1846872   1847807   1848704  
  7270.000000   1849529   1850270   1850945   1851595   1852253  
  7260.000000   1852942   1853644   1854325   1854935   1855449  
  7250.000000   1855871   1856260   1856705   1857325   1858216  
  7240.000000   1859447   1861022   1862899   1864978   1867159  
  7230.000000   1869335   1871446   1873457   1875387   1877261  
  7220.000000   1879137   1881046   1883027   1885083   1887225  
  7210.000000   1889438   1891722   1894062   1896459   1898906  
  7200.000000   1901409   1903977   1906634   1909407   1912330  
  7190.000000   1915418   1918669   1922033   1925443   1928799  
  7180.000000   1932020   1935046   1937879   1940557   1943164  
  7170.000000   1945775   1948464   1951257   1954160   1957141  
  7160.000000   1960177   1963243   1966346   1969502   1972755  
  7150.000000   1976145   1979726   1983528   1987583   1991874  
  7140.000000   1996374   2000994   2005652   2010238   2014703  
  7130.000000   2019027   2023279   2027556   2032001   2036721  
  7120.000000   2041788   2047182   2052836   2058623   2064438  
  7110.000000   2070192   2075858   2081436   2086961   2092451  
  7100.000000   2097936   2103424   2108942   2114515   2120188  
  7090.000000   2125997   2131959   2138053   2144231   2150419  
  7080.000000   2156555   2162594   2168532   2174381   2180171  
  7070.000000   2185916   2191617   2197255   2202823   2208326  
  7060.000000   2213799   2219299   2224886   2230602   2236459  
  7050.000000   2242434   2248479   2254541   2260578   2266568  
  7040.000000   2272508   2278408   2284280   2290133   2295971  
  7030.000000   2301795   2307600   2313377   2319103   2324750  
  7020.000000   2330280   2335664   2340884   2345953   2350903  
  7010.000000   2355791   2360673   2365602   2370603   2375686  
  7000.000000   2380824   2385989   2391122   2396178   2401095  
  6990.000000   2405839   2410376   2414713   2418863   2422869  
  6980.000000   2426761   2430564   2434264   2437840   2441248  
  6970.000000   2444473   2447509   2450398   2453183   2455933  
  6960.000000   2458674   2461436   2464207   2466992   2469782  
  6950.000000   2472591   2475415   2478241   2481009   2483642  
  6940.000000   2486044   2488160   2489982   2491582   2493073  
  6930.000000   2494589   2496221   2497999   2499871   2501743  
  6920.000000   2503509   2505108   2506535   2507853   2509142  
  6910.000000   2510490   2511931   2513457   2515013   2516534  
  6900.000000   2517959   2519263   2520447   2521543   2522588  
  6890.000000   2523616   2524642   2525667   2526670   2527622  
  6880.000000   2528493   2529263   2529933   2530533   2531117  
  6870.000000   2531756   2532514   2533433   2534507   2535696  
  6860.000000   2536930   2538140   2539276   2540328   2541315  
  6850.000000   2542271   2543220   2544161   2545063   2545879  
  6840.000000   2546568   2547111   2547517   2547822   2548073  
  6830.000000   2548318   2548587   2548910   2549302   2549785  
  6820.000000   2550367   2551052   2551809   2552589   2553316  
  6810.000000   2553918   2554337   2554557   2554595   2554499  
  6800.000000   2554324   2554115   2553900   2553696   2553509  
  6790.000000   2553361   2553273   2553271   2553365   2553545  
  6780.000000   2553771   2553991   2554152   2554223   2554194  
  6770.000000   2554079   2553905   2553694   2553466   2553228  
  6760.000000   2552990   2552767   2552582   2552458   2552407  
  6750.000000   2552427   2552493   2552574   2552637   2552661  
  6740.000000   2552644   2552592   2552517   2552424   2552311  
  6730.000000   2552168   2551995   2551801   2551607   2551440  
  6720.000000   2551320   2551254   2551229   2551226   2551222  
  6710.000000   2551205   2551171   2551126   2551071   2551000  
  6700.000000   2550895   2550739   2550518   2550232   2549889  
  6690.000000   2549506   2549085   2548622   2548097   2547495  
  6680.000000   2546806   2546045   2545235   2544410   2543585  
  6670.000000   2542761   2541910   2541006   2540025   2538977  
  6660.000000   2537892   2536824   2535819   2534908   2534086  
  6650.000000   2533329   2532596   2531857   2531091   2530298  
  6640.000000   2529474   2528619   2527715   2526750   2525710  
  6630.000000   2524608   2523475   2522358   2521292   2520296  
  6620.000000   2519345   2518388   2517356   2516198   2514888  
  6610.000000   2513445   2511913   2510352   2508804   2507289  
  6600.000000   2505793   2504290   2502748   2501156   2499518  
  6590.000000   2497861   2496216   2494609   2493046   2491518  
  6580.000000   2490004   2488484   2486948   2485401   2483867  
  6570.000000   2482371   2480943   2479593   2478320   2477101  
  6560.000000   2475909   2474713   2473494   2472244   2470974  
  6550.000000   2469699   2468436   2467197   2465985   2464795  
  6540.000000   2463620   2462454   2461298   2460157   2459040  
  6530.000000   2457952   2456893   2455855   2454825   2453785  
  6520.000000   2452718   2451606   2450440   2449214   2447934  
  6510.000000   2446620   2445302   2444024   2442825   2441736  
  6500.000000   2440768   2439908   2439121   2438369   2437615  
  6490.000000   2436838   2436035   2435210   2434367   2433498  
  6480.000000   2432584   2431603   2430544   2429415   2428254  
  6470.000000   2427107   2426019   2425016   2424089   2423204  
  6460.000000   2422316   2421390   2420412   2419400   2418389  
  6450.000000   2417416   2416507   2415664   2414879   2414132  
  6440.000000   2413413   2412721   2412063   2411446   2410872  
  6430.000000   2410326   2409795   2409261   2408724   2408189  
  6420.000000   2407676   2407193   2406739   2406296   2405844  
  6410.000000   2405367   2404872   2404391   2403970   2403657  
  6400.000000   2403479   2403433   2403485   2403580   2403659  
  6390.000000   2403679   2403618   2403477   2403274   2403033  
  6380.000000   2402779   2402531   2402304   2402105   2401934  
  6370.000000   2401781   2401626   2401445   2401216   2400927  
  6360.000000   2400581   2400200   2399813   2399450   2399127  
  6350.000000   2398852   2398613   2398401   2398197   2397998  
  6340.000000   2397793   2397574   2397318   2397002   2396592  
  6330.000000   2396063   2395404   2394621   2393733   2392772  
  6320.000000   2391764   2390735   2389703   2388687   2387699  
  6310.000000   2386763   2385884   2385071   2384306   2383568  
  6300.000000   2382819   2382030   2381175   2380246   2379239  
  6290.000000   2378157   2377001   2375774   2374479   2373127  
  6280.000000   2371740   2370345   2368963   2367609   2366270  
  6270.000000   2364931   2363561   2362149   2360698   2359237  
  6260.000000   2357799   2356414   2355083   2353783   2352462  
  6250.000000   2351067   2349556   2347920   2346183   2344397  
  6240.000000   2342621   2340908   2339287   2337762   2336311  
  6230.000000   2334899   2333483   2332025   2330499   2328895  
  6220.000000   2327220   2325501   2323774   2322078   2320446  
  6210.000000   2318889   2317403   2315964   2314546   2313129  
  6200.000000   2311704   2310279   2308866   2307482   2306133  
  6190.000000   2304819   2303536   2302282   2301062   2299881  
  6180.000000   2298743   2297638   2296543   2295423   2294249  
  6170.000000   2293002   2291695   2290362   2289053   2287813  
  6160.000000   2286668   2285616   2284627   2283662   2282681  
  6150.000000   2281661   2280598   2279503   2278390   2277272  
  6140.000000   2276154   2275035   2273912   2272785   2271657  
  6130.000000   2270530   2269407   2268280   2267145   2265998  
  6120.000000   2264846   2263703   2262597   2261552   2260589  
  6110.000000   2259715   2258928   2258209   2257544   2256911  
  6100.000000   2256301   2255705   2255126   2254566   2254036  
  6090.000000   2253543   2253103   2252718   2252395   2252119  
  6080.000000   2251880   2251655   2251434   2251210   2251002  
  6070.000000   2250826   2250714   2250677   2250729   2250853  
  6060.000000   2251045   2251283   2251572   2251915   2252339  
  6050.000000   2252859   2253502   2254267   2255164   2256178  
  6040.000000   2257311   2258551   2259905   2261363   2262931  
  6030.000000   2264597   2266359   2268202   2270121   2272097  
  6020.000000   2274117   2276149   2278168   2280138   2282046  
  6010.000000   2283883   2285670   2287435   2289225   2291071  
  6000.000000   2293006   2295034   2297163   2299382   2301695  
  5990.000000   2304095   2306590   2309171   2311832   2314549  
  5980.000000   2317310   2320094   2322906   2325752   2328660  
  5970.000000   2331642   2334717   2337878   2341121   2344421  
  5960.000000   2347770   2351152   2354567   2358004   2361459  
  5950.000000   2364916   2368370   2371814   2375266   2378751  
  5940.000000   2382309   2385975   2389772   2393701   2397740  
  5930.000000   2401852   2405990   2410118   2414202   2418224  
  5920.000000   2422170   2426028   2429785   2433430   2436950  
  5910.000000   2440340   2443596   2446727   2449737   2452648  
  5900.000000   2455476   2458255   2461007   2463770   2466556  
  5890.000000   2469381   2472227   2475080   2477906   2480688  
  5880.000000   2483402   2486047   2488610   2491086   2493455  
  5870.000000   2495700   2497805   2499774   2501629   2503414  
  5860.000000   2505179   2506971   2508818   2510729   2512701  
  5850.000000   2514732   2516823   2518988   2521244   2523596  
  5840.000000   2526034   2528525   2531029   2533509   2535947  
  5830.000000   2538350   2540742   2543149   2545587   2548048  
  5820.000000   2550508   2552935   2555308   2557624   2559896  
  5810.000000   2562148   2564387   2566615   2568801   2570928  
  5800.000000   2572961   2574914   2576790   2578632   2580442  
  5790.000000   2582232   2583952   2585559   2586961   2588097  
  5780.000000   2588881   2589271   2589214   2588700   2587717  
  5770.000000   2586310   2584530   2582486   2580275   2578016  
  5760.000000   2575782   2573634   2571582   2569633   2567772  
  5750.000000   2566008   2564346   2562805   2561391   2560100  
  5740.000000   2558911   2557795   2556728   2555691   2554681  
  5730.000000   2553695   2552743   2551819   2550931   2550076  
  5720.000000   2549270   2548528   2547869   2547296   2546798  
  5710.000000   2546342   2545891   2545412   2544896   2544361  
  5700.000000   2543846   2543389   2543014   2542719   2542471  
  5690.000000   2542231   2541961   2541651   2541304   2540949  
  5680.000000   2540596   2540250   2539877   2539437   2538867  
  5670.000000   2538125   2537172   2535998   2534596   2532978  
  5660.000000   2531153   2529148   2526997   2524759   2522492  
  5650.000000   2520266   2518129   2516113   2514221   2512444  
  5640.000000   2510760   2509150   2507600   2506097   2504631  
  5630.000000   2503187   2501755   2500327   2498915   2497538  
  5620.000000   2496231   2495014   2493905   2492891   2491949  
  5610.000000   2491044   2490153   2489262   2488377   2487512  
  5600.000000   2486680   2485883   2485114   2484356   2483595  
  5590.000000   2482820   2482031   2481232   2480422   2479599  
  5580.000000   2478751   2477874   2476966   2476036   2475097  
  5570.000000   2474163   2473232   2472296   2471335   2470333  
  5560.000000   2469282   2468195   2467090   2465991   2464910  
  5550.000000   2463850   2462799   2461747   2460689   2459640  
  5540.000000   2458618   2457643   2456720   2455834   2454956  
  5530.000000   2454053   2453105   2452113   2451094   2450077  
  5520.000000   2449079   2448102   2447127   2446123   2445062  
  5510.000000   2443934   2442742   2441512   2440265   2439024  
  5500.000000   2437794   2436576   2435364   2434158   2432957  
  5490.000000   2431765   2430573   2429369   2428126   2426825  
  5480.000000   2425449   2424006   2422508   2420981   2419443  
  5470.000000   2417906   2416365   2414815   2413244   2411650  
  5460.000000   2410027   2408369   2406662   2404885   2403017  
  5450.000000   2401053   2399007   2396918   2394844   2392839  
  5440.000000   2390940   2389158   2387482   2385888   2384359  
  5430.000000   2382882   2381453   2380063   2378699   2377328  
  5420.000000   2375934   2374499   2373052   2371636   2370328  
  5410.000000   2369178   2368222   2367431   2366768   2366163  
  5400.000000   2365587   2365023   2364508   2364079   2363792  
  5390.000000   2363665   2363711   2363902   2364233   2364684  
  5380.000000   2365276   2366007   2366900   2367931   2369092  
  5370.000000   2370336   2371655   2373019   2374458   2375967  
  5360.000000   2377596   2379341   2381252   2383329   2385645  
  5350.000000   2388222   2391152   2394451   2398179   2402292  
  5340.000000   2406803   2411637   2416820   2422315   2428195  
  5330.000000   2434448   2441148   2448252   2455805   2463739  
  5320.000000   2472113   2480893   2490189   2499997   2510443  
  5310.000000   2521499   2533251   2545628   2558691   2572376  
  5300.000000   2586768   2601845   2617733   2634431   2652060  
  5290.000000   2670580   2690033   2710287   2731282   2752825  
  5280.000000   2774849   2797237   2820042   2843290   2867133  
  5270.000000   2891619   2916802   2942566   2968749   2995107  
  5260.000000   3021444   3047642   3073694   3099684   3125695  
  5250.000000   3151784   3177868   3203809   3229340   3254281  
  5240.000000   3278438   3301820   3324430   3346440   3367912  
  5230.000000   3388987   3409610   3429775   3449303   3468133  
  5220.000000   3486110   3503273   3519592   3535225   3550204  
  5210.000000   3564681   3578612   3592028   3604762   3616778  
  5200.000000   3627920   3638241   3647709   3656486   3664598  
  5190.000000   3672183   3679199   3685693   3691557   3696822  
  5180.000000   3701415   3705426   3708833   3711742   3714117  
  5170.000000   3716019   3717387   3718277   3718659   3718630  
  5160.000000   3718192   3717433   3716322   3714887   3713048  
  5150.000000   3710811   3708117   3705014   3701498   3697650  
  5140.000000   3693484   3689068   3684401   3679534   3674462  
  5130.000000   3669232   3663846   3658342   3652715   3646991  
  5120.000000   3641165   3635268   3629314   3623344   3617377  
  5110.000000   3611440   3605532   3599654   3593798   3587969  
  5100.000000   3582179   3576455   3570818   3565286   3559856  
  5090.000000   3554515   3549236   3543999   3538790   3533605  
  5080.000000   3528449   3523325   3518228   3513147   3508059  
  5070.000000   3502948   3497797   3492602   3487357   3482067  
  5060.000000   3476724   3471324   3465851   3460302   3454664  
  5050.000000   3448945   3443142   3437270   3431330   3425336  
  5040.000000   3419294   3413222   3407135   3401053   3394989  
  5030.000000   3388950   3382935   3376934   3370941   3364951  
  5020.000000   3358974   3353024   3347127   3341299   3335561  
  5010.000000   3329911   3324357   3318888   3313520   3308251  
  5000.000000   3303116   3298125   3293321   3288709   3284324  
  4990.000000   3280159   3276244   3272562   3269141   3265957  
  4980.000000   3263035   3260343   3257906   3255692   3253740  
  4970.000000   3252037   3250640   3249547   3248818   3248438  
  4960.000000   3248448   3248812   3249557   3250636   3252080  
  4950.000000   3253849   3255984   3258448   3261283   3264451  
  4940.000000   3267991   3271865   3276113   3280697   3285653  
  4930.000000   3290937   3296574   3302515   3308780   3315327  
  4920.000000   3322185   3329327   3336789   3344548   3352635  
  4910.000000   3361017   3369702   3378645   3387835   3397222  
  4900.000000   3406786   3416490   3426318   3436252   3446278  
  4890.000000   3456382   3466528   3476679   3486759   3496706  
  4880.000000   3506425   3515864   3524946   3533657   3541943  
  4870.000000   3549811   3557208   3564138   3570544   3576438  
  4860.000000   3581782   3586619   3590944   3594826   3598274  
  4850.000000   3601366   3604111   3606584   3608796   3610816  
  4840.000000   3612654   3614364   3615942   3617423   3618795  
  4830.000000   3620085   3621292   3622445   3623550   3624632  
  4820.000000   3625690   3626733   3627758   3628775   3629797  
  4810.000000   3630847   3631952   3633130   3634395   3635741  
  4800.000000   3637158   3638628   3640141   3641693   3643297  
  4790.000000   3644964   3646710   3648541   3650455   3652437  
  4780.000000   3654469   3656527   3658591   3660642   3662661  
  4770.000000   3664636   3666551   3668397   3670164   3671849  
  4760.000000   3673445   3674955   3676373   3677704   3678944  
  4750.000000   3680107   3681193   3682220   3683184   3684094  
  4740.000000   3684936   3685705   3686382   3686965   3687447  
  4730.000000   3687840   3688148   3688384   3688550   3688648  
  4720.000000   3688679   3688650   3688578   3688488   3688416  
  4710.000000   3688390   3688442   3688582   3688821   3689155  
  4700.000000   3689594   3690144   3690828   3691665   3692685  
  4690.000000   3693897   3695314   3696919   3698700   3700618  
  4680.000000   3702647   3704734   3706848   3708938   3710979  
  4670.000000   3712935   3714807   3716592   3718323   3720025  
  4660.000000   3721750   3723530   3725413   3727428   3729607  
  4650.000000   3731964   3734511   3737242   3740142   3743187  
  4640.000000   3746345   3749587   3752887   3756229   3759598  
  4630.000000   3762986   3766375   3769747   3773069   3776312  
  4620.000000   3779434   3782405   3785184   3787745   3790049  
  4610.000000   3792079   3793810   3795258   3796436   3797408  
  4600.000000   3798223   3798966   3799678   3800411   3801155  
  4590.000000   3801909   3802619   3803259   3803772   3804143  
  4580.000000   3804337   3804359   3804192   3803853   3803339  
  4570.000000   3802677   3801876   3800971   3799976   3798918  
  4560.000000   3797800   3796632   3795403   3794115   3792758  
  4550.000000   3791340   3789863   3788342   3786782   3785195  
  4540.000000   3783585   3781957   3780321   3778682   3777057  
  4530.000000   3775454   3773895   3772382   3770937   3769553  
  4520.000000   3768258   3767044   3765948   3764965   3764145  
  4510.000000   3763484   3763045   3762829   3762914   3763308  
  4500.000000   3764108   3765324   3767059   3769314   3772186  
  4490.000000   3775659   3779815   3784621   3790139   3796320  
  4480.000000   3803208   3810742   3818958   3827791   3837275  
  4470.000000   3847344   3858019   3869221   3880947   3893098  
  4460.000000   3905649   3918495   3931605   3944886   3958312  
  4450.000000   3971810   3985367   3998939   4012530   4026133  
  4440.000000   4039765   4053441   4067166   4080948   4094756  
  4430.000000   4108575   4122337   4136015   4149520   4162822  
  4420.000000   4175823   4188494   4200733   4212513   4223734  
  4410.000000   4234377   4244349   4253640   4262171   4269955  
  4400.000000   4276948   4283210   4288755   4293698   4298111  
  4390.000000   4302142   4305884   4309481   4313004   4316553  
  4380.000000   4320159   4323871   4327684   4331620   4335671  
  4370.000000   4339864   4344214   4348761   4353529   4358546  
  4360.000000   4363807   4369303   4374975   4380782   4386626  
  4350.000000   4392459   4398171   4403738   4409068   4414169  
  4340.000000   4418976   4423503   4427659   4431373   4434430  
  4330.000000   4436602   4437551   4436999   4434703   4430620  
  4320.000000   4424877   4417849   4410032   4402023   4394345  
  4310.000000   4387432   4381506   4376649   4372776   4369755  
  4300.000000   4367421   4365643   4364332   4363423   4362887  
  4290.000000   4362678   4362777   4363134   4363742   4364570  
  4280.000000   4365621   4366876   4368314   4369895   4371555  
  4270.000000   4373234   4374839   4376286   4377446   4378180  
  4260.000000   4378301   4377629   4375986   4373278   4369487  
  4250.000000   4364739   4359242   4353313   4347258   4341390  
  4240.000000   4335910   4330957   4326533   4322591   4319008  
  4230.000000   4315665   4312440   4309242   4306017   4302732  
  4220.000000   4299399   4296025   4292670   4289366   4286194  
  4210.000000   4283197   4280450   4277980   4275830   4273987  
  4200.000000   4272449   4271164   4270103   4269199   4268424  
  4190.000000   4267724   4267103   4266530   4266044   4265635  
  4180.000000   4265357   4265205   4265238   4265452   4265913  
  4170.000000   4266630   4267686   4269101   4270958   4273260  
  4160.000000   4276063   4279329   4283077   4287241   4291835  
  4150.000000   4296804   4302186   4307948   4314153   4320775  
  4140.000000   4327874   4335415   4343444   4351910   4360849  
  4130.000000   4370201   4379992   4390163   4400743   4411687  
  4120.000000   4423038   4434777   4446967   4459605   4472753  
  4110.000000   4486397   4500569   4515214   4530311   4545763  
  4100.000000   4561507   4577438   4593501   4609629   4625814  
  4090.000000   4642050   4658363   4674778   4691314   4707986  
  4080.000000   4724783   4741702   4758698   4775749   4792769  
  4070.000000   4809706   4826437   4842899   4858972   4874634  
  4060.000000   4889808   4904522   4918716   4932422   4945559  
  4050.000000   4958154   4970127   4981543   4992352   5002647  
  4040.000000   5012360   5021538   5030051   5037902   5044951  
  4030.000000   5051235   5056674   5061354   5065236   5068394  
  4020.000000   5070750   5072372   5073246   5073474   5073046  
  4010.000000   5072125   5070801   5069105   5066830   5064008  
  4000.000000   5060897  
##END= 
