##TITLE= Sample 046 By ssteindl date Dienstag, November 20 2018
##JCAMP-DX= 4.24
##DATA TYPE= INFRARED SPECTRUM
##ORIGIN= Exported PE Spectrum Data File
##OWNER= Sandra Steindl
##DATE= 18/11/20
##TIME= 15:49:45.00
##SPECTROMETER/DATA SYSTEM= PERKIN-ELMER Frontier FT-IR/NIR IR
##INSTRUMENT PARAMETERS=
  APODIZATION=stark
  DETECTOR=INGAAS
##RESOLUTION= 16.000000
##DELTAX= -2.000000
##XUNITS= 1/CM
##YUNITS= A
##XFACTOR= 1.00
##YFACTOR= 0.00000011920928955078
##FIRSTX= 10000.00
##LASTX= 4000.00
##NPOINTS= 3001
##FIRSTY= 0.187834
##MAXY= 0.566387
##MINY= 0.170137
##XYDATA= (X++(Y..Y))
 10000.000000   1575667   1578252   1581243   1585048   1589318  
  9990.000000   1593125   1595631   1596334   1595095   1592063  
  9980.000000   1587696   1582541   1577063   1571652   1566717  
  9970.000000   1562833   1560606   1560673   1563292   1568334  
  9960.000000   1575047   1582384   1589181   1594577   1598216  
  9950.000000   1600206   1601005   1600971   1600239   1598497  
  9940.000000   1595252   1590041   1582841   1574226   1565360  
  9930.000000   1557718   1552645   1550984   1552747   1557199  
  9920.000000   1562997   1568666   1572965   1575242   1575550  
  9910.000000   1574554   1573279   1572750   1573701   1576312  
  9900.000000   1580254   1584730   1588855   1591830   1593215  
  9890.000000   1592943   1591237   1588525   1585210   1581728  
  9880.000000   1578414   1575688   1573935   1573583   1574855  
  9870.000000   1577727   1581737   1586067   1589669   1591527  
  9860.000000   1590944   1587651   1581907   1574305   1565676  
  9850.000000   1556846   1548599   1541587   1536377   1533402  
  9840.000000   1532888   1534777   1538589   1543538   1548587  
  9830.000000   1552824   1555632   1556927   1557145   1557023  
  9820.000000   1557388   1558734   1561133   1564079   1566720  
  9810.000000   1568059   1567310   1564148   1558826   1552171  
  9800.000000   1545309   1539470   1535542   1533956   1534488  
  9790.000000   1536414   1538760   1540593   1541372   1540964  
  9780.000000   1539635   1537740   1535545   1533042   1530078  
  9770.000000   1526526   1522619   1519040   1516851   1517165  
  9760.000000   1520651   1527234   1535913   1545074   1552953  
  9750.000000   1558241   1560473   1560050   1557954   1555232  
  9740.000000   1552586   1550158   1547707   1544890   1541635  
  9730.000000   1538240   1535243   1533136   1531992   1531438  
  9720.000000   1530717   1529153   1526471   1523037   1519762  
  9710.000000   1517700   1517615   1519587   1522989   1526731  
  9700.000000   1529745   1531399   1531721   1531283   1530899  
  9690.000000   1531222   1532489   1534478   1536663   1538479  
  9680.000000   1539562   1539811   1539372   1538479   1537313  
  9670.000000   1535982   1534467   1532790   1530970   1529138  
  9660.000000   1527439   1526042   1525076   1524618   1524664  
  9650.000000   1525094   1525649   1525907   1525374   1523567  
  9640.000000   1520267   1515626   1510279   1505205   1501453  
  9630.000000   1499823   1500564   1503354   1507409   1511814  
  9620.000000   1515806   1518979   1521289   1522902   1523982  
  9610.000000   1524516   1524320   1523139   1520879   1517739  
  9600.000000   1514239   1511057   1508762   1507615   1507459  
  9590.000000   1507841   1508220   1508172   1507529   1506311  
  9580.000000   1504659   1502661   1500342   1497697   1494836  
  9570.000000   1492089   1490024   1489317   1490520   1493843  
  9560.000000   1498998   1505272   1511662   1517200   1521146  
  9550.000000   1523192   1523459   1522402   1520643   1518761  
  9540.000000   1517180   1516048   1515286   1514581   1513541  
  9530.000000   1511765   1509009   1505264   1500759   1495972  
  9520.000000   1491440   1487736   1485266   1484313   1484957  
  9510.000000   1487154   1490711   1495307   1500466   1505535  
  9500.000000   1509784   1512466   1513092   1511493   1508018  
  9490.000000   1503342   1498387   1493969   1490651   1488632  
  9480.000000   1487781   1487865   1488606   1489923   1491773  
  9470.000000   1494235   1497248   1500672   1504196   1507458  
  9460.000000   1510110   1511845   1512452   1511708   1509466  
  9450.000000   1505603   1500205   1493601   1486409   1479446  
  9440.000000   1473484   1469094   1466419   1465261   1465168  
  9430.000000   1465700   1466580   1467749   1469272   1471141  
  9420.000000   1473138   1474763   1475428   1474687   1472573  
  9410.000000   1469635   1466866   1465278   1465584   1467860  
  9400.000000   1471570   1475713   1479201   1481178   1481256  
  9390.000000   1479567   1476638   1473195   1469961   1467546  
  9380.000000   1466405   1466817   1468839   1472243   1476466  
  9370.000000   1480694   1484019   1485747   1485595   1483825  
  9360.000000   1481134   1478436   1476546   1475892   1476402  
  9350.000000   1477571   1478705   1479225   1478834   1477604  
  9340.000000   1475825   1473893   1472116   1470677   1469591  
  9330.000000   1468780   1468119   1467479   1466744   1465796  
  9320.000000   1464542   1462959   1461140   1459310   1457769  
  9310.000000   1456767   1456415   1456593   1457034   1457372  
  9300.000000   1457330   1456788   1455841   1454732   1453742  
  9290.000000   1453079   1452819   1452931   1453351   1454050  
  9280.000000   1455074   1456456   1458174   1460036   1461735  
  9270.000000   1462894   1463204   1462528   1460950   1458814  
  9260.000000   1456618   1454936   1454225   1454788   1456663  
  9250.000000   1459672   1463375   1467148   1470271   1472071  
  9240.000000   1472112   1470259   1466759   1462130   1457076  
  9230.000000   1452262   1448197   1445131   1443101   1442039  
  9220.000000   1441858   1442532   1444029   1446277   1449062  
  9210.000000   1452051   1454849   1457103   1458621   1459420  
  9200.000000   1459721   1459821   1459987   1460361   1460977  
  9190.000000   1461807   1462812   1463951   1465138   1466210  
  9180.000000   1466891   1466845   1465752   1463477   1460152  
  9170.000000   1456226   1452310   1449009   1446702   1445502  
  9160.000000   1445261   1445702   1446519   1447484   1448456  
  9150.000000   1449307   1449845   1449790   1448893   1447055  
  9140.000000   1444476   1441618   1439138   1437632   1437444  
  9130.000000   1438507   1440365   1442379   1443969   1444828  
  9120.000000   1444966   1444649   1444250   1444038   1444091  
  9110.000000   1444262   1444324   1444067   1443420   1442445  
  9100.000000   1441314   1440228   1439372   1438915   1438967  
  9090.000000   1439619   1440845   1442534   1444422   1446178  
  9080.000000   1447484   1448143   1448175   1447775   1447215  
  9070.000000   1446654   1446044   1445101   1443479   1440924  
  9060.000000   1437513   1433703   1430247   1427924   1427211  
  9050.000000   1428140   1430267   1432895   1435313   1437098  
  9040.000000   1438230   1439016   1439887   1441123   1442744  
  9030.000000   1444474   1445906   1446670   1446613   1445823  
  9020.000000   1444575   1443207   1441996   1441131   1440684  
  9010.000000   1440687   1441113   1441906   1442920   1443910  
  9000.000000   1444552   1444559   1443804   1442403   1440695  
  8990.000000   1439131   1438120   1437858   1438291   1439133  
  8980.000000   1440037   1440730   1441110   1441264   1441358  
  8970.000000   1441557   1441923   1442429   1443012   1443648  
  8960.000000   1444387   1445303   1446430   1447663   1448768  
  8950.000000   1449426   1449377   1448528   1447027   1445211  
  8940.000000   1443484   1442169   1441417   1441201   1441384  
  8930.000000   1441825   1442420   1443151   1444002   1444935  
  8920.000000   1445843   1446596   1447137   1447500   1447860  
  8910.000000   1448378   1449146   1450027   1450703   1450757  
  8900.000000   1449900   1448145   1445886   1443850   1442831  
  8890.000000   1443453   1445879   1449830   1454622   1459455  
  8880.000000   1463595   1466599   1468356   1468999   1468780  
  8870.000000   1467915   1466576   1464842   1462786   1460481  
  8860.000000   1458044   1455612   1453306   1451257   1449582  
  8850.000000   1448463   1448084   1448625   1450135   1452464  
  8840.000000   1455235   1457877   1459825   1460648   1460280  
  8830.000000   1458981   1457314   1455898   1455258   1455639  
  8820.000000   1457002   1459086   1461545   1464102   1466596  
  8810.000000   1469002   1471324   1473561   1475644   1477477  
  8800.000000   1478971   1480096   1480904   1481485   1481937  
  8790.000000   1482300   1482555   1482642   1482518   1482202  
  8780.000000   1481778   1481385   1481135   1481099   1481251  
  8770.000000   1481550   1481943   1482460   1483188   1484253  
  8760.000000   1485748   1487648   1489801   1491905   1493631  
  8750.000000   1494662   1494838   1494160   1492823   1491149  
  8740.000000   1489524   1488328   1487861   1488324   1489760  
  8730.000000   1492089   1495090   1498466   1501852   1504891  
  8720.000000   1507281   1508825   1509467   1509276   1508454  
  8710.000000   1507259   1506000   1504936   1504271   1504089  
  8700.000000   1504368   1504981   1505733   1506424   1506897  
  8690.000000   1507106   1507129   1507154   1507435   1508191  
  8680.000000   1509561   1511536   1513989   1516678   1519340  
  8670.000000   1521751   1523804   1525533   1527083   1528667  
  8660.000000   1530487   1532672   1535234   1538051   1540898  
  8650.000000   1543491   1545568   1546939   1547544   1547455  
  8640.000000   1546865   1546037   1545246   1544733   1544668  
  8630.000000   1545133   1546115   1547542   1549295   1551247  
  8620.000000   1553271   1555264   1557162   1558941   1560619  
  8610.000000   1562230   1563821   1565411   1567007   1568585  
  8600.000000   1570127   1571622   1573087   1574555   1576050  
  8590.000000   1577575   1579075   1580469   1581655   1582571  
  8580.000000   1583226   1583707   1584154   1584700   1585417  
  8570.000000   1586280   1587167   1587917   1588399   1588584  
  8560.000000   1588572   1588575   1588839   1589568   1590832  
  8550.000000   1592559   1594554   1596574   1598408   1599940  
  8540.000000   1601169   1602179   1603078   1603936   1604756  
  8530.000000   1605475   1606013   1606319   1606419   1606419  
  8520.000000   1606470   1606717   1607220   1607951   1608774  
  8510.000000   1609530   1610089   1610416   1610588   1610763  
  8500.000000   1611110   1611727   1612585   1613535   1614364  
  8490.000000   1614887   1615048   1614936   1614788   1614864  
  8480.000000   1615368   1616330   1617604   1618912   1619959  
  8470.000000   1620569   1620762   1620770   1620935   1621615  
  8460.000000   1623045   1625262   1628089   1631186   1634170  
  8450.000000   1636685   1638486   1639454   1639620   1639133  
  8440.000000   1638234   1637230   1636447   1636187   1636631  
  8430.000000   1637817   1639592   1641678   1643715   1645394  
  8420.000000   1646518   1647063   1647149   1646965   1646684  
  8410.000000   1646387   1646072   1645669   1645122   1644438  
  8400.000000   1643719   1643135   1642864   1643036   1643679  
  8390.000000   1644733   1646067   1647534   1648989   1650325  
  8380.000000   1651471   1652387   1653067   1653540   1653894  
  8370.000000   1654251   1654741   1655448   1656364   1657379  
  8360.000000   1658291   1658895   1659044   1658733   1658091  
  8350.000000   1657340   1656705   1656329   1656217   1656246  
  8340.000000   1656219   1655962   1655398   1654586   1653682  
  8330.000000   1652911   1652463   1652475   1652960   1653851  
  8320.000000   1654997   1656228   1657367   1658263   1658802  
  8310.000000   1658918   1658610   1657916   1656919   1655696  
  8300.000000   1654321   1652821   1651201   1649473   1647690  
  8290.000000   1645981   1644521   1643518   1643123   1643404  
  8280.000000   1644277   1645544   1646926   1648151   1649016  
  8270.000000   1649418   1649374   1648966   1648328   1647583  
  8260.000000   1646841   1646167   1645604   1645161   1644816  
  8250.000000   1644524   1644217   1643847   1643385   1642863  
  8240.000000   1642340   1641902   1641598   1641438   1641357  
  8230.000000   1641260   1641042   1640643   1640058   1639335  
  8220.000000   1638527   1637666   1636726   1635638   1634324  
  8210.000000   1632745   1630938   1629012   1627107   1625351  
  8200.000000   1623802   1622453   1621236   1620095   1619005  
  8190.000000   1618015   1617204   1616646   1616337   1616177  
  8180.000000   1615988   1615559   1614733   1613440   1611740  
  8170.000000   1609769   1607710   1605724   1603920   1602353  
  8160.000000   1601028   1599954   1599134   1598584   1598302  
  8150.000000   1598251   1598350   1598479   1598507   1598306  
  8140.000000   1597794   1596922   1595698   1594167   1592421  
  8130.000000   1590588   1588829   1587318   1586203   1585575  
  8120.000000   1585415   1585604   1585924   1586128   1586003  
  8110.000000   1585434   1584437   1583130   1581692   1580293  
  8100.000000   1579041   1577962   1577020   1576158   1575345  
  8090.000000   1574608   1574011   1573637   1573507   1573570  
  8080.000000   1573672   1573617   1573217   1572363   1571079  
  8070.000000   1569501   1567854   1566348   1565129   1564206  
  8060.000000   1563460   1562680   1561657   1560267   1558539  
  8050.000000   1556664   1554946   1553708   1553179   1553425  
  8040.000000   1554317   1555573   1556851   1557842   1558371  
  8030.000000   1558406   1558060   1557499   1556889   1556320  
  8020.000000   1555804   1555288   1554714   1554054   1553342  
  8010.000000   1552659   1552093   1551712   1551515   1551459  
  8000.000000   1551451   1551413   1551292   1551089   1550847  
  7990.000000   1550622   1550457   1550356   1550274   1550139  
  7980.000000   1549865   1549394   1548711   1547862   1546938  
  7970.000000   1546059   1545328   1544808   1544492   1544304  
  7960.000000   1544120   1543801   1543244   1542409   1541340  
  7950.000000   1540133   1538916   1537795   1536829   1536021  
  7940.000000   1535343   1534769   1534304   1533997   1533920  
  7930.000000   1534132   1534635   1535355   1536156   1536867  
  7920.000000   1537355   1537547   1537467   1537193   1536837  
  7910.000000   1536485   1536182   1535923   1535692   1535482  
  7900.000000   1535322   1535273   1535397   1535726   1536229  
  7890.000000   1536822   1537385   1537813   1538047   1538100  
  7880.000000   1538043   1537977   1537993   1538146   1538438  
  7870.000000   1538833   1539269   1539690   1540044   1540298  
  7860.000000   1540424   1540407   1540235   1539917   1539475  
  7850.000000   1538950   1538382   1537804   1537224   1536634  
  7840.000000   1536014   1535363   1534700   1534074   1533541  
  7830.000000   1533144   1532887   1532727   1532590   1532394  
  7820.000000   1532087   1531664   1531169   1530680   1530270  
  7810.000000   1529987   1529837   1529792   1529806   1529840  
  7800.000000   1529868   1529883   1529882   1529857   1529785  
  7790.000000   1529633   1529372   1528977   1528447   1527786  
  7780.000000   1527012   1526141   1525193   1524202   1523225  
  7770.000000   1522350   1521679   1521313   1521307   1521651  
  7760.000000   1522258   1522980   1523645   1524104   1524269  
  7750.000000   1524123   1523724   1523159   1522528   1521898  
  7740.000000   1521310   1520771   1520278   1519835   1519446  
  7730.000000   1519133   1518902   1518758   1518680   1518645  
  7720.000000   1518620   1518580   1518505   1518373   1518155  
  7710.000000   1517809   1517285   1516539   1515553   1514350  
  7700.000000   1512999   1511609   1510302   1509193   1508351  
  7690.000000   1507801   1507505   1507391   1507362   1507325  
  7680.000000   1507205   1506951   1506545   1505989   1505313  
  7670.000000   1504558   1503790   1503074   1502487   1502086  
  7660.000000   1501913   1501970   1502229   1502633   1503116  
  7650.000000   1503611   1504069   1504459   1504768   1504996  
  7640.000000   1505151   1505245   1505301   1505347   1505422  
  7630.000000   1505561   1505787   1506089   1506425   1506722  
  7620.000000   1506900   1506896   1506688   1506307   1505832  
  7610.000000   1505368   1505016   1504844   1504876   1505092  
  7600.000000   1505442   1505869   1506323   1506767   1507180  
  7590.000000   1507547   1507869   1508149   1508410   1508680  
  7580.000000   1508999   1509391   1509867   1510396   1510931  
  7570.000000   1511410   1511791   1512075   1512313   1512592  
  7560.000000   1513003   1513609   1514419   1515377   1516388  
  7550.000000   1517337   1518142   1518758   1519207   1519540  
  7540.000000   1519831   1520142   1520513   1520957   1521472  
  7530.000000   1522046   1522674   1523354   1524099   1524913  
  7520.000000   1525806   1526767   1527782   1528813   1529828  
  7510.000000   1530786   1531673   1532495   1533298   1534156  
  7500.000000   1535159   1536385   1537868   1539584   1541457  
  7490.000000   1543373   1545231   1546954   1548527   1549971  
  7480.000000   1551336   1552650   1553919   1555099   1556151  
  7470.000000   1557046   1557819   1558554   1559378   1560414  
  7460.000000   1561737   1563356   1565206   1567180   1569172  
  7450.000000   1571112   1572985   1574818   1576666   1578567  
  7440.000000   1580538   1582555   1584580   1586561   1588464  
  7430.000000   1590267   1591975   1593605   1595188   1596764  
  7420.000000   1598368   1600033   1601764   1603546   1605330  
  7410.000000   1607054   1608666   1610153   1611553   1612953  
  7400.000000   1614454   1616135   1618014   1620029   1622061  
  7390.000000   1623971   1625668   1627135   1628443   1629722  
  7380.000000   1631113   1632713   1634539   1636535   1638603  
  7370.000000   1640655   1642642   1644568   1646474   1648402  
  7360.000000   1650366   1652332   1654237   1656007   1657594  
  7350.000000   1658993   1660248   1661433   1662628   1663900  
  7340.000000   1665282   1666789   1668415   1670153   1671984  
  7330.000000   1673879   1675788   1677647   1679379   1680927  
  7320.000000   1682265   1683423   1684466   1685493   1686592  
  7310.000000   1687827   1689205   1690681   1692170   1693580  
  7300.000000   1694834   1695895   1696767   1697492   1698126  
  7290.000000   1698727   1699332   1699961   1700621   1701320  
  7280.000000   1702076   1702921   1703885   1704989   1706215  
  7270.000000   1707504   1708770   1709914   1710874   1711630  
  7260.000000   1712235   1712781   1713382   1714121   1715036  
  7250.000000   1716101   1717263   1718454   1719649   1720855  
  7240.000000   1722131   1723529   1725086   1726776   1728540  
  7230.000000   1730288   1731972   1733580   1735185   1736882  
  7220.000000   1738795   1740992   1743500   1746272   1749230  
  7210.000000   1752273   1755331   1758352   1761331   1764268  
  7200.000000   1767189   1770102   1773031   1775981   1778982  
  7190.000000   1782045   1785198   1788437   1791762   1795146  
  7180.000000   1798579   1802041   1805540   1809087   1812703  
  7170.000000   1816397   1820184   1824062   1828046   1832139  
  7160.000000   1836357   1840686   1845107   1849558   1853986  
  7150.000000   1858328   1862577   1866758   1870965   1875298  
  7140.000000   1879861   1884695   1889795   1895090   1900507  
  7130.000000   1905970   1911454   1916948   1922478   1928036  
  7120.000000   1933615   1939169   1944673   1950119   1955562  
  7110.000000   1961087   1966806   1972795   1979089   1985641  
  7100.000000   1992363   1999127   2005828   2012384   2018765  
  7090.000000   2024972   2031036   2036999   2042921   2048872  
  7080.000000   2054934   2061186   2067685   2074436   2081383  
  7070.000000   2088407   2095365   2102120   2108580   2114717  
  7060.000000   2120562   2126187   2131680   2137125   2142600  
  7050.000000   2148174   2153907   2159845   2165996   2172331  
  7040.000000   2178763   2185179   2191462   2197537   2203390  
  7030.000000   2209075   2214682   2220304   2225986   2231717  
  7020.000000   2237430   2243050   2248513   2253817   2258997  
  7010.000000   2264126   2269250   2274386   2279482   2284460  
  7000.000000   2289224   2293718   2297925   2301897   2305709  
  6990.000000   2309467   2313252   2317133   2321125   2325223  
  6980.000000   2329371   2333511   2337554   2341445   2345137  
  6970.000000   2348640   2351989   2355257   2358495   2361737  
  6960.000000   2364952   2368080   2371023   2373711   2376099  
  6950.000000   2378216   2380120   2381910   2383663   2385447  
  6940.000000   2387284   2389191   2391151   2393159   2395189  
  6930.000000   2397218   2399198   2401078   2402807   2404357  
  6920.000000   2405724   2406934   2408025   2409036   2409987  
  6910.000000   2410894   2411768   2412649   2413590   2414663  
  6900.000000   2415916   2417354   2418915   2420487   2421937  
  6890.000000   2423167   2424139   2424901   2425551   2426206  
  6880.000000   2426947   2427800   2428739   2429711   2430670  
  6870.000000   2431601   2432514   2433427   2434337   2435209  
  6860.000000   2435980   2436594   2437031   2437330   2437579  
  6850.000000   2437884   2438330   2438945   2439693   2440497  
  6840.000000   2441269   2441957   2442548   2443073   2443572  
  6830.000000   2444073   2444569   2445030   2445417   2445708  
  6820.000000   2445907   2446048   2446172   2446312   2446475  
  6810.000000   2446654   2446823   2446975   2447108   2447243  
  6800.000000   2447397   2447581   2447778   2447961   2448089  
  6790.000000   2448131   2448066   2447893   2447613   2447234  
  6780.000000   2446759   2446193   2445549   2444853   2444140  
  6770.000000   2443452   2442814   2442241   2441718   2441229  
  6760.000000   2440751   2440282   2439830   2439420   2439068  
  6750.000000   2438784   2438552   2438344   2438122   2437856  
  6740.000000   2437523   2437114   2436630   2436068   2435427  
  6730.000000   2434700   2433885   2432981   2431997   2430952  
  6720.000000   2429869   2428785   2427739   2426781   2425952  
  6710.000000   2425286   2424787   2424433   2424163   2423897  
  6700.000000   2423550   2423059   2422389   2421543   2420552  
  6690.000000   2419458   2418297   2417098   2415877   2414653  
  6680.000000   2413445   2412283   2411188   2410176   2409230  
  6670.000000   2408323   2407405   2406439   2405392   2404257  
  6660.000000   2403035   2401736   2400357   2398900   2397365  
  6650.000000   2395773   2394167   2392606   2391145   2389812  
  6640.000000   2388589   2387418   2386207   2384882   2383395  
  6630.000000   2381760   2380035   2378307   2376654   2375123  
  6620.000000   2373712   2372385   2371081   2369746   2368343  
  6610.000000   2366859   2365301   2363690   2362049   2360403  
  6600.000000   2358770   2357163   2355581   2354010   2352425  
  6590.000000   2350796   2349107   2347363   2345598   2343870  
  6580.000000   2342237   2340740   2339380   2338115   2336879  
  6570.000000   2335601   2334238   2332789   2331296   2329828  
  6560.000000   2328455   2327223   2326146   2325200   2324339  
  6550.000000   2323508   2322659   2321753   2320766   2319688  
  6540.000000   2318519   2317271   2315963   2314622   2313270  
  6530.000000   2311922   2310580   2309235   2307879   2306506  
  6520.000000   2305123   2303755   2302427   2301167   2299988  
  6510.000000   2298893   2297872   2296914   2296006   2295141  
  6500.000000   2294305   2293478   2292630   2291726   2290739  
  6490.000000   2289659   2288500   2287296   2286088   2284903  
  6480.000000   2283750   2282615   2281476   2280316   2279140  
  6470.000000   2277974   2276857   2275824   2274887   2274037  
  6460.000000   2273242   2272468   2271691   2270904   2270115  
  6450.000000   2269335   2268568   2267803   2267023   2266208  
  6440.000000   2265357   2264481   2263603   2262748   2261930  
  6430.000000   2261144   2260379   2259625   2258879   2258157  
  6420.000000   2257481   2256866   2256313   2255798   2255288  
  6410.000000   2254744   2254146   2253491   2252802   2252106  
  6400.000000   2251432   2250794   2250200   2249652   2249154  
  6390.000000   2248717   2248348   2248043   2247782   2247528  
  6380.000000   2247243   2246899   2246496   2246060   2245635  
  6370.000000   2245261   2244954   2244695   2244436   2244116  
  6360.000000   2243683   2243118   2242429   2241656   2240843  
  6350.000000   2240030   2239239   2238478   2237743   2237025  
  6340.000000   2236312   2235594   2234859   2234099   2233311  
  6330.000000   2232513   2231727   2230991   2230330   2229753  
  6320.000000   2229229   2228705   2228109   2227383   2226496  
  6310.000000   2225463   2224327   2223149   2221972   2220819  
  6300.000000   2219673   2218514   2217314   2216074   2214809  
  6290.000000   2213559   2212347   2211189   2210065   2208942  
  6280.000000   2207771   2206517   2205154   2203683   2202111  
  6270.000000   2200459   2198748   2197001   2195244   2193504  
  6260.000000   2191802   2190154   2188553   2186979   2185396  
  6250.000000   2183774   2182090   2180347   2178565   2176771  
  6240.000000   2174989   2173227   2171478   2169721   2167939  
  6230.000000   2166123   2164277   2162418   2160562   2158724  
  6220.000000   2156910   2155124   2153364   2151636   2149942  
  6210.000000   2148282   2146646   2145011   2143348   2141625  
  6200.000000   2139825   2137950   2136024   2134083   2132169  
  6190.000000   2130317   2128547   2126862   2125258   2123716  
  6180.000000   2122218   2120741   2119266   2117778   2116269  
  6170.000000   2114745   2113228   2111749   2110343   2109034  
  6160.000000   2107832   2106722   2105675   2104652   2103618  
  6150.000000   2102544   2101420   2100236   2098993   2097686  
  6140.000000   2096315   2094882   2093402   2091899   2090409  
  6130.000000   2088964   2087592   2086300   2085087   2083934  
  6120.000000   2082826   2081748   2080697   2079673   2078681  
  6110.000000   2077722   2076797   2075896   2075018   2074152  
  6100.000000   2073302   2072464   2071644   2070839   2070054  
  6090.000000   2069288   2068548   2067834   2067159   2066524  
  6080.000000   2065940   2065405   2064929   2064513   2064171  
  6070.000000   2063904   2063722   2063619   2063594   2063630  
  6060.000000   2063721   2063857   2064043   2064278   2064579  
  6050.000000   2064942   2065377   2065876   2066445   2067075  
  6040.000000   2067780   2068553   2069406   2070326   2071314  
  6030.000000   2072357   2073463   2074638   2075907   2077287  
  6020.000000   2078791   2080406   2082104   2083835   2085557  
  6010.000000   2087227   2088839   2090394   2091920   2093433  
  6000.000000   2094953   2096477   2098007   2099541   2101100  
  5990.000000   2102709   2104414   2106245   2108225   2110347  
  5980.000000   2112589   2114908   2117275   2119662   2122069  
  5970.000000   2124498   2126969   2129489   2132070   2134705  
  5960.000000   2137394   2140120   2142878   2145647   2148421  
  5950.000000   2151182   2153929   2156664   2159407   2162178  
  5940.000000   2165004   2167901   2170870   2173896   2176956  
  5930.000000   2180026   2183090   2186142   2189185   2192223  
  5920.000000   2195246   2198238   2201170   2204012   2206744  
  5910.000000   2209360   2211869   2214290   2216642   2218944  
  5900.000000   2221204   2223437   2225651   2227869   2230109  
  5890.000000   2232394   2234732   2237125   2239556   2242005  
  5880.000000   2244447   2246861   2249226   2251525   2253737  
  5870.000000   2255845   2257837   2259710   2261484   2263189  
  5860.000000   2264870   2266566   2268304   2270097   2271943  
  5850.000000   2273834   2275770   2277762   2279829   2281998  
  5840.000000   2284282   2286682   2289175   2291727   2294295  
  5830.000000   2296843   2299340   2301768   2304121   2306397  
  5820.000000   2308598   2310731   2312802   2314818   2316775  
  5810.000000   2318670   2320482   2322202   2323811   2325327  
  5800.000000   2326763   2328178   2329600   2331078   2332600  
  5790.000000   2334153   2335661   2337060   2338252   2339170  
  5780.000000   2339733   2339898   2339615   2338875   2337685  
  5770.000000   2336105   2334222   2332172   2330082   2328082  
  5760.000000   2326247   2324616   2323170   2321879   2320695  
  5750.000000   2319598   2318579   2317650   2316824   2316104  
  5740.000000   2315486   2314947   2314471   2314033   2313628  
  5730.000000   2313242   2312875   2312515   2312159   2311803  
  5720.000000   2311462   2311152   2310901   2310723   2310622  
  5710.000000   2310577   2310559   2310535   2310493   2310434  
  5700.000000   2310385   2310380   2310445   2310592   2310807  
  5690.000000   2311070   2311350   2311631   2311899   2312157  
  5680.000000   2312397   2312614   2312780   2312868   2312841  
  5670.000000   2312673   2312335   2311817   2311102   2310190  
  5660.000000   2309078   2307792   2306365   2304856   2303321  
  5650.000000   2301818   2300377   2299008   2297693   2296410  
  5640.000000   2295136   2293866   2292610   2291387   2290216  
  5630.000000   2289109   2288066   2287082   2286152   2285270  
  5620.000000   2284440   2283655   2282907   2282172   2281425  
  5610.000000   2280638   2279803   2278928   2278040   2277172  
  5600.000000   2276355   2275601   2274907   2274254   2273616  
  5590.000000   2272971   2272300   2271594   2270843   2270044  
  5580.000000   2269188   2268281   2267329   2266353   2265369  
  5570.000000   2264394   2263423   2262444   2261428   2260352  
  5560.000000   2259202   2257984   2256718   2255434   2254157  
  5550.000000   2252903   2251678   2250482   2249316   2248191  
  5540.000000   2247117   2246106   2245161   2244268   2243405  
  5530.000000   2242547   2241674   2240777   2239862   2238938  
  5520.000000   2238014   2237092   2236167   2235231   2234278  
  5510.000000   2233309   2232324   2231327   2230310   2229266  
  5500.000000   2228183   2227062   2225912   2224759   2223628  
  5490.000000   2222539   2221482   2220432   2219341   2218170  
  5480.000000   2216893   2215516   2214067   2212593   2211131  
  5470.000000   2209710   2208328   2206973   2205619   2204244  
  5460.000000   2202826   2201350   2199799   2198159   2196419  
  5450.000000   2194583   2192675   2190737   2188824   2186983  
  5440.000000   2185248   2183622   2182091   2180630   2179217  
  5430.000000   2177838   2176492   2175174   2173881   2172598  
  5420.000000   2171323   2170053   2168823   2167667   2166645  
  5410.000000   2165784   2165102   2164564   2164141   2163784  
  5400.000000   2163488   2163252   2163119   2163112   2163261  
  5390.000000   2163549   2163962   2164460   2165043   2165710  
  5380.000000   2166516   2167493   2168693   2170108   2171738  
  5370.000000   2173528   2175460   2177484   2179618   2181839  
  5360.000000   2184187   2186647   2189268   2192044   2195055  
  5350.000000   2198328   2201972   2206014   2210542   2215527  
  5340.000000   2221000   2226890   2233224   2239943   2247100  
  5330.000000   2254649   2262643   2271021   2279827   2289004  
  5320.000000   2298635   2308707   2319358   2330595   2342551  
  5310.000000   2355191   2368588   2382651   2397423   2412820  
  5300.000000   2428920   2445696   2463280   2481681   2501035  
  5290.000000   2521316   2542575   2564681   2587562   2611008  
  5280.000000   2634928   2659185   2683814   2708839   2734412  
  5270.000000   2760603   2787475   2814940   2842839   2870939  
  5260.000000   2899024   2926958   2954693   2982279   3009756  
  5250.000000   3037163   3064400   3091345   3117752   3143480  
  5240.000000   3168358   3192426   3215689   3238326   3260377  
  5230.000000   3281978   3303053   3323604   3343443   3362532  
  5220.000000   3380716   3398056   3414519   3430271   3445333  
  5210.000000   3459857   3473787   3487156   3499795   3511677  
  5200.000000   3522651   3532786   3542057   3550644   3558579  
  5190.000000   3566016   3572915   3579328   3585139   3590366  
  5180.000000   3594915   3598853   3602139   3604865   3606989  
  5170.000000   3608577   3609571   3610031   3609923   3609334  
  5160.000000   3608252   3606759   3604824   3602494   3599724  
  5150.000000   3596563   3592993   3589093   3584869   3580395  
  5140.000000   3575660   3570709   3565519   3560133   3554549  
  5130.000000   3548830   3542985   3537062   3531044   3524943  
  5120.000000   3518726   3512399   3505956   3499427   3492827  
  5110.000000   3486189   3479512   3472807   3466063   3459291  
  5100.000000   3452500   3445724   3438988   3432323   3425730  
  5090.000000   3419209   3412737   3406301   3399884   3393486  
  5080.000000   3387102   3380736   3374371   3367993   3361576  
  5070.000000   3355108   3348579   3342003   3335392   3328769  
  5060.000000   3322138   3315503   3308842   3302138   3295368  
  5050.000000   3288522   3281593   3274593   3267529   3260419  
  5040.000000   3253274   3246108   3238928   3231746   3224566  
  5030.000000   3217395   3210238   3203100   3195989   3188914  
  5020.000000   3181894   3174941   3168076   3161303   3154639  
  5010.000000   3148075   3141621   3135266   3129026   3122893  
  5000.000000   3116894   3111028   3105327   3099792   3094457  
  4990.000000   3089320   3084417   3079737   3075307   3071107  
  4980.000000   3067154   3063417   3059916   3056625   3053581  
  4970.000000   3050768   3048234   3045963   3043995   3042302  
  4960.000000   3040914   3039796   3038982   3038448   3038239  
  4950.000000   3038338   3038789   3039565   3040695   3042136  
  4940.000000   3043910   3045968   3048338   3050981   3053933  
  4930.000000   3057162   3060708   3064541   3068699   3073154  
  4920.000000   3077939   3083025   3088436   3094135   3100143  
  4910.000000   3106424   3112997   3119832   3126941   3134287  
  4900.000000   3141858   3149605   3157499   3165493   3173565  
  4890.000000   3181692   3189862   3198063   3206268   3214444  
  4880.000000   3222536   3230497   3238264   3245810   3253094  
  4870.000000   3260115   3266845   3273293   3279425   3285249  
  4860.000000   3290732   3295895   3300718   3305238   3309448  
  4850.000000   3313385   3317040   3320444   3323588   3326506  
  4840.000000   3329202   3331724   3334087   3336344   3338513  
  4830.000000   3340639   3342729   3344813   3346886   3348958  
  4820.000000   3351013   3353051   3355050   3357010   3358916  
  4810.000000   3360767   3362551   3364263   3365892   3367434  
  4800.000000   3368889   3370272   3371605   3372926   3374264  
  4790.000000   3375649   3377090   3378587   3380116   3381662  
  4780.000000   3383201   3384728   3386233   3387723   3389188  
  4770.000000   3390626   3392012   3393333   3394564   3395702  
  4760.000000   3396736   3397677   3398519   3399268   3399902  
  4750.000000   3400412   3400767   3400957   3400965   3400802  
  4740.000000   3400473   3400007   3399425   3398764   3398048  
  4730.000000   3397311   3396566   3395831   3395098   3394358  
  4720.000000   3393583   3392751   3391839   3390840   3389762  
  4710.000000   3388631   3387484   3386357   3385288   3384299  
  4700.000000   3383408   3382617   3381927   3381332   3380833  
  4690.000000   3380425   3380109   3379882   3379744   3379683  
  4680.000000   3379690   3379739   3379812   3379871   3379896  
  4670.000000   3379855   3379746   3379566   3379348   3379122  
  4660.000000   3378946   3378861   3378921   3379149   3379571  
  4650.000000   3380185   3380992   3381976   3383129   3384431  
  4640.000000   3385873   3387432   3389098   3390848   3392666  
  4630.000000   3394530   3396423   3398323   3400211   3402067  
  4620.000000   3403873   3405607   3407248   3408772   3410151  
  4610.000000   3411369   3412408   3413274   3413980   3414566  
  4600.000000   3415069   3415544   3416020   3416527   3417057  
  4590.000000   3417605   3418133   3418619   3419025   3419335  
  4580.000000   3419523   3419585   3419502   3419276   3418902  
  4570.000000   3418393   3417764   3417043   3416253   3415423  
  4560.000000   3414564   3413688   3412789   3411870   3410926  
  4550.000000   3409966   3408996   3408028   3407066   3406110  
  4540.000000   3405151   3404175   3403175   3402139   3401074  
  4530.000000   3399982   3398886   3397793   3396740   3395737  
  4520.000000   3394831   3394032   3393394   3392920   3392659  
  4510.000000   3392603   3392804   3393258   3394041   3395169  
  4500.000000   3396742   3398779   3401372   3404504   3408232  
  4490.000000   3412505   3417362   3422754   3428737   3435284  
  4480.000000   3442467   3450255   3458698   3467734   3477371  
  4470.000000   3487518   3498159   3509201   3520628   3532360  
  4460.000000   3544384   3556629   3569079   3581663   3594356  
  4450.000000   3607097   3619863   3632615   3645348   3658052  
  4440.000000   3670729   3683389   3696021   3708631   3721183  
  4430.000000   3733676   3746053   3758311   3770381   3782262  
  4420.000000   3793873   3805206   3816168   3826743   3836829  
  4410.000000   3846406   3855373   3863714   3871339   3878251  
  4400.000000   3884388   3889790   3894444   3898433   3901796  
  4390.000000   3904653   3907077   3909203   3911112   3912930  
  4380.000000   3914720   3916574   3918530   3920646   3922946  
  4370.000000   3925471   3928245   3931300   3934659   3938332  
  4360.000000   3942318   3946598   3951137   3955890   3960791  
  4350.000000   3965794   3970823   3975856   3980841   3985805  
  4340.000000   3990733   3995665   4000551   4005323   4009772  
  4330.000000   4013628   4016514   4018082   4018031   4016259  
  4320.000000   4012849   4008141   4002606   3996821   3991286  
  4310.000000   3986410   3982381   3979251   3976903   3975188  
  4300.000000   3973920   3972977   3972266   3971746   3971396  
  4290.000000   3971190   3971118   3971142   3971260   3971451  
  4280.000000   3971730   3972097   3972562   3973134   3973806  
  4270.000000   3974591   3975475   3976449   3977446   3978370  
  4260.000000   3979047   3979278   3978843   3977573   3975379  
  4250.000000   3972296   3968466   3964138   3959586   3955094  
  4240.000000   3950874   3947078   3943751   3940887   3938413  
  4230.000000   3936245   3934282   3932437   3930634   3928810  
  4220.000000   3926939   3925004   3923038   3921070   3919178  
  4210.000000   3917411   3915846   3914510   3913438   3912616  
  4200.000000   3912033   3911639   3911404   3911268   3911212  
  4190.000000   3911193   3911225   3911299   3911463   3911723  
  4180.000000   3912137   3912700   3913457   3914389   3915543  
  4170.000000   3916919   3918592   3920591   3923011   3925871  
  4160.000000   3929238   3933082   3937423   3942194   3947404  
  4150.000000   3952992   3958990   3965360   3972150   3979327  
  4140.000000   3986940   3994950   4003406   4012269   4021588  
  4130.000000   4031322   4041508   4052094   4063102   4074475  
  4120.000000   4086237   4098349   4110852   4123728   4137028  
  4110.000000   4150737   4164891   4179455   4194427   4209741  
  4100.000000   4225355   4241181   4257166   4273236   4289361  
  4090.000000   4305515   4321697   4337918   4354188   4370528  
  4080.000000   4386937   4403432   4419992   4436620   4453257  
  4070.000000   4469870   4486351   4502635   4518598   4534200  
  4060.000000   4549355   4564086   4578349   4592201   4605597  
  4050.000000   4618588   4631110   4643214   4654824   4665991  
  4040.000000   4676620   4686735   4696207   4705046   4713126  
  4030.000000   4720485   4727035   4732841   4737836   4742072  
  4020.000000   4745453   4748040   4749814   4750874   4751197  
  4010.000000   4750938   4750183   4748966   4747087   4744606  
  4000.000000   4741817  
##END= 
