##TITLE= Sample 015 By ssteindl date Montag, November 19 2018
##JCAMP-DX= 4.24
##DATA TYPE= INFRARED SPECTRUM
##ORIGIN= Exported PE Spectrum Data File
##OWNER= Sandra Steindl
##DATE= 18/11/19
##TIME= 16:25:08.00
##SPECTROMETER/DATA SYSTEM= PERKIN-ELMER Frontier FT-IR/NIR IR
##INSTRUMENT PARAMETERS=
  APODIZATION=stark
  DETECTOR=INGAAS
##RESOLUTION= 16.000000
##DELTAX= -2.000000
##XUNITS= 1/CM
##YUNITS= A
##XFACTOR= 1.00
##YFACTOR= 0.00000011920928955078
##FIRSTX= 10000.00
##LASTX= 4000.00
##NPOINTS= 3001
##FIRSTY= 0.151154
##MAXY= 0.540293
##MINY= 0.129707
##XYDATA= (X++(Y..Y))
 10000.000000   1267969   1265136   1261940   1258303   1255069  
  9990.000000   1253190   1252893   1253622   1254830   1256143  
  9980.000000   1257343   1258284   1259027   1259706   1260421  
  9970.000000   1261299   1262551   1264527   1267511   1271673  
  9960.000000   1276844   1282571   1288153   1292864   1296089  
  9950.000000   1297447   1296778   1294070   1289419   1282986  
  9940.000000   1275091   1266251   1257189   1248751   1241661  
  9930.000000   1236382   1232929   1230990   1230040   1229654  
  9920.000000   1229620   1230005   1230969   1232547   1234497  
  9910.000000   1236262   1237264   1237098   1235899   1234217  
  9900.000000   1232920   1232697   1233789   1235801   1237859  
  9890.000000   1238979   1238524   1236491   1233586   1230880  
  9880.000000   1229420   1229738   1231684   1234484   1237060  
  9870.000000   1238493   1238336   1236819   1234712   1233108  
  9860.000000   1233027   1235159   1239619   1245923   1253080  
  9850.000000   1259783   1264750   1266976   1266043   1262198  
  9840.000000   1256333   1249736   1243728   1239324   1236967  
  9830.000000   1236528   1237432   1239000   1240637   1242085  
  9820.000000   1243278   1244326   1245252   1245960   1246256  
  9810.000000   1245928   1244937   1243370   1241461   1239379  
  9800.000000   1237157   1234670   1231733   1228345   1224788  
  9790.000000   1221708   1219863   1219878   1221863   1225313  
  9780.000000   1229156   1232111   1233090   1231566   1227738  
  9770.000000   1222386   1216636   1211511   1207724   1205437  
  9760.000000   1204384   1203980   1203603   1202762   1201219  
  9750.000000   1199020   1196450   1193992   1192255   1191833  
  9740.000000   1193194   1196433   1201244   1206837   1212177  
  9730.000000   1216223   1218274   1218226   1216614   1214484  
  9720.000000   1213062   1213375   1215943   1220614   1226593  
  9710.000000   1232680   1237544   1240130   1239845   1236791  
  9700.000000   1231662   1225653   1220101   1216170   1214500  
  9690.000000   1215011   1216927   1218984   1219834   1218470  
  9680.000000   1214538   1208492   1201393   1194637   1189470  
  9670.000000   1186702   1186527   1188571   1192108   1196276  
  9660.000000   1200291   1203528   1205545   1206060   1204990  
  9650.000000   1202458   1198905   1194976   1191477   1189046  
  9640.000000   1188014   1188204   1189036   1189746   1189709  
  9630.000000   1188755   1187197   1185769   1185196   1185970  
  9620.000000   1188042   1190943   1193956   1196439   1198075  
  9610.000000   1198883   1199131   1199045   1198635   1197594  
  9600.000000   1195434   1191725   1186390   1179854   1173020  
  9590.000000   1167000   1162760   1160812   1161047   1162844  
  9580.000000   1165273   1167455   1168774   1169029   1168399  
  9570.000000   1167325   1166351   1165944   1166411   1167808  
  9560.000000   1169977   1172544   1175030   1176911   1177761  
  9550.000000   1177360   1175757   1173291   1170470   1167843  
  9540.000000   1165802   1164497   1163792   1163344   1162755  
  9530.000000   1161706   1160098   1158041   1155812   1153700  
  9520.000000   1151902   1150453   1149266   1148219   1147282  
  9510.000000   1146575   1146372   1147008   1148739   1151626  
  9500.000000   1155444   1159709   1163776   1166988   1168885  
  9490.000000   1169271   1168329   1166474   1164269   1162185  
  9480.000000   1160507   1159285   1158373   1157587   1156764  
  9470.000000   1155937   1155258   1155046   1155567   1156986  
  9460.000000   1159187   1161804   1164250   1165883   1166188  
  9450.000000   1164892   1162071   1158069   1153464   1148875  
  9440.000000   1144880   1141853   1139929   1138972   1138655  
  9430.000000   1138573   1138383   1137922   1137258   1136685  
  9420.000000   1136618   1137458   1139420   1142423   1146089  
  9410.000000   1149849   1153135   1155564   1157042   1157769  
  9400.000000   1158119   1158478   1159074   1159870   1160591  
  9390.000000   1160803   1160119   1158302   1155368   1151558  
  9380.000000   1147252   1142898   1138884   1135557   1133129  
  9370.000000   1131770   1131525   1132388   1134200   1136707  
  9360.000000   1139531   1142260   1144518   1146016   1146644  
  9350.000000   1146369   1145298   1143506   1141118   1138221  
  9340.000000   1134958   1131533   1128225   1125424   1123504  
  9330.000000   1122842   1123591   1125746   1129007   1132923  
  9320.000000   1136916   1140400   1142881   1143966   1143478  
  9310.000000   1141371   1137829   1133117   1127653   1121867  
  9300.000000   1116249   1111261   1107334   1104818   1103901  
  9290.000000   1104621   1106766   1109988   1113777   1117649  
  9280.000000   1121218   1124302   1126938   1129276   1131487  
  9270.000000   1133600   1135479   1136790   1137162   1136323  
  9260.000000   1134292   1131397   1128192   1125273   1123049  
  9250.000000   1121635   1120764   1119976   1118770   1116894  
  9240.000000   1114422   1111781   1109553   1108300   1108326  
  9230.000000   1109581   1111653   1113923   1115778   1116759  
  9220.000000   1116691   1115639   1113908   1111869   1109895  
  9210.000000   1108212   1106920   1105946   1105138   1104301  
  9200.000000   1103302   1102141   1100975   1100121   1099928  
  9190.000000   1100720   1102620   1105510   1108995   1112516  
  9180.000000   1115519   1117610   1118666   1118819   1118385  
  9170.000000   1117690   1116959   1116232   1115418   1114360  
  9160.000000   1112958   1111236   1109346   1107525   1105985  
  9150.000000   1104879   1104231   1103999   1104087   1104415  
  9140.000000   1104934   1105605   1106385   1107206   1107989  
  9130.000000   1108668   1109211   1109629   1109974   1110303  
  9120.000000   1110671   1111080   1111508   1111913   1112261  
  9110.000000   1112530   1112676   1112643   1112355   1111768  
  9100.000000   1110909   1109928   1109076   1108644   1108831  
  9090.000000   1109658   1110904   1112163   1112978   1113023  
  9080.000000   1112251   1110920   1109503   1108494   1108213  
  9070.000000   1108673   1109588   1110514   1111049   1111009  
  9060.000000   1110481   1109783   1109290   1109286   1109811  
  9050.000000   1110690   1111609   1112270   1112494   1112271  
  9040.000000   1111711   1110973   1110151   1109275   1108298  
  9030.000000   1107192   1105980   1104768   1103710   1102920  
  9020.000000   1102423   1102101   1101746   1101101   1099970  
  9010.000000   1098278   1096112   1093699   1091357   1089437  
  9000.000000   1088262   1088063   1088919   1090731   1093230  
  8990.000000   1096001   1098582   1100537   1101604   1101725  
  8980.000000   1101077   1099988   1098844   1097967   1097553  
  8970.000000   1097650   1098204   1099109   1100260   1101551  
  8960.000000   1102853   1103997   1104763   1104934   1104367  
  8950.000000   1103086   1101328   1099496   1098041   1097344  
  8940.000000   1097591   1098737   1100501   1102523   1104454  
  8930.000000   1106081   1107309   1108153   1108664   1108857  
  8920.000000   1108691   1108083   1107009   1105493   1103681  
  8910.000000   1101743   1099889   1098253   1096887   1095764  
  8900.000000   1094818   1094041   1093475   1093280   1093657  
  8890.000000   1094817   1096871   1099801   1103420   1107371  
  8880.000000   1111166   1114277   1116257   1116836   1116001  
  8870.000000   1114013   1111384   1108737   1106659   1105515  
  8860.000000   1105355   1105879   1106541   1106738   1106026  
  8850.000000   1104270   1101692   1098818   1096305   1094743  
  8840.000000   1094442   1095382   1097233   1099517   1101769  
  8830.000000   1103693   1105251   1106610   1108057   1109787  
  8820.000000   1111835   1113950   1115729   1116663   1116401  
  8810.000000   1114826   1112199   1109094   1106264   1104472  
  8800.000000   1104248   1105831   1109067   1113522   1118573  
  8790.000000   1123585   1128047   1131631   1134199   1135753  
  8780.000000   1136383   1136218   1135417   1134177   1132770  
  8770.000000   1131530   1130825   1130968   1132109   1134169  
  8760.000000   1136796   1139450   1141518   1142489   1142118  
  8750.000000   1140482   1138016   1135359   1133230   1132184  
  8740.000000   1132509   1134155   1136812   1140035   1143379  
  8730.000000   1146549   1149430   1152110   1154757   1157551  
  8720.000000   1160573   1163768   1166983   1169975   1172527  
  8710.000000   1174450   1175652   1176114   1175887   1175101  
  8700.000000   1173916   1172574   1171321   1170444   1170158  
  8690.000000   1170597   1171722   1173351   1175162   1176789  
  8680.000000   1177894   1178255   1177820   1176707   1175193  
  8670.000000   1173616   1172323   1171565   1171486   1172091  
  8660.000000   1173265   1174817   1176520   1178194   1179736  
  8650.000000   1181156   1182540   1184010   1185672   1187532  
  8640.000000   1189505   1191379   1192925   1193916   1194247  
  8630.000000   1193951   1193222   1192374   1191762   1191712  
  8620.000000   1192439   1194022   1196376   1199276   1202399  
  8610.000000   1205382   1207907   1209750   1210842   1211262  
  8600.000000   1211235   1211052   1211008   1211320   1212093  
  8590.000000   1213319   1214909   1216755   1218756   1220865  
  8580.000000   1223052   1225289   1227494   1229541   1231278  
  8570.000000   1232573   1233366   1233693   1233694   1233577  
  8560.000000   1233561   1233834   1234507   1235615   1237103  
  8550.000000   1238872   1240760   1242596   1244180   1245352  
  8540.000000   1246020   1246198   1246026   1245719   1245533  
  8530.000000   1245647   1246121   1246843   1247587   1248096  
  8520.000000   1248195   1247889   1247374   1246999   1247142  
  8510.000000   1248087   1249914   1252467   1255412   1258317  
  8500.000000   1260803   1262620   1263727   1264249   1264433  
  8490.000000   1264544   1264805   1265336   1266158   1267218  
  8480.000000   1268436   1269755   1271148   1272643   1274279  
  8470.000000   1276080   1278002   1279934   1281721   1283178  
  8460.000000   1284164   1284600   1284533   1284096   1283481  
  8450.000000   1282903   1282556   1282612   1283183   1284349  
  8440.000000   1286123   1288459   1291203   1294099   1296799  
  8430.000000   1298946   1300253   1300599   1300077   1298995  
  8420.000000   1297801   1296949   1296759   1297335   1298548  
  8410.000000   1300082   1301527   1302521   1302834   1302428  
  8400.000000   1301412   1300029   1298580   1297374   1296649  
  8390.000000   1296552   1297101   1298193   1299604   1301048  
  8380.000000   1302239   1302972   1303171   1302896   1302302  
  8370.000000   1301564   1300805   1300047   1299218   1298215  
  8360.000000   1296974   1295553   1294115   1292910   1292146  
  8350.000000   1291939   1292226   1292812   1293417   1293772  
  8340.000000   1293701   1293143   1292158   1290847   1289323  
  8330.000000   1287669   1285966   1284309   1282844   1281742  
  8320.000000   1281178   1281258   1281976   1283179   1284583  
  8310.000000   1285867   1286752   1287093   1286899   1286333  
  8300.000000   1285661   1285177   1285115   1285582   1286520  
  8290.000000   1287728   1288898   1289700   1289840   1289161  
  8280.000000   1287687   1285631   1283333   1281162   1279406  
  8270.000000   1278188   1277444   1276956   1276449   1275706  
  8260.000000   1274658   1273406   1272165   1271185   1270637  
  8250.000000   1270567   1270874   1271366   1271835   1272129  
  8240.000000   1272192   1272060   1271812   1271528   1271250  
  8230.000000   1270978   1270671   1270275   1269728   1268981  
  8220.000000   1267989   1266728   1265186   1263403   1261462  
  8210.000000   1259514   1257716   1256219   1255076   1254255  
  8200.000000   1253615   1252976   1252160   1251062   1249670  
  8190.000000   1248056   1246329   1244567   1242802   1240996  
  8180.000000   1239104   1237099   1235029   1233007   1231189  
  8170.000000   1229721   1228677   1228043   1227713   1227542  
  8160.000000   1227404   1227226   1227006   1226778   1226578  
  8150.000000   1226393   1226154   1225749   1225077   1224093  
  8140.000000   1222854   1221492   1220181   1219060   1218177  
  8130.000000   1217474   1216797   1215979   1214893   1213526  
  8120.000000   1211989   1210482   1209226   1208370   1207932  
  8110.000000   1207787   1207695   1207400   1206706   1205560  
  8100.000000   1204065   1202453   1201010   1199976   1199466  
  8090.000000   1199420   1199623   1199760   1199526   1198711  
  8080.000000   1197274   1195348   1193204   1191166   1189520  
  8070.000000   1188435   1187929   1187880   1188083   1188307  
  8060.000000   1188379   1188195   1187740   1187052   1186189  
  8050.000000   1185202   1184135   1183024   1181934   1180953  
  8040.000000   1180197   1179765   1179704   1179985   1180483  
  8030.000000   1181030   1181444   1181612   1181503   1181184  
  8020.000000   1180773   1180386   1180079   1179828   1179533  
  8010.000000   1179065   1178315   1177240   1175882   1174351  
  8000.000000   1172790   1171329   1170049   1168971   1168062  
  7990.000000   1167255   1166485   1165695   1164873   1164031  
  7980.000000   1163224   1162510   1161955   1161586   1161400  
  7970.000000   1161336   1161316   1161260   1161138   1160994  
  7960.000000   1160947   1161163   1161793   1162906   1164442  
  7950.000000   1166203   1167903   1169234   1169971   1170010  
  7940.000000   1169417   1168364   1167094   1165820   1164692  
  7930.000000   1163776   1163071   1162565   1162246   1162151  
  7920.000000   1162317   1162796   1163585   1164641   1165853  
  7910.000000   1167079   1168165   1168966   1169383   1169350  
  7900.000000   1168871   1167990   1166815   1165487   1164168  
  7890.000000   1163017   1162155   1161660   1161541   1161768  
  7880.000000   1162268   1162963   1163768   1164604   1165390  
  7870.000000   1166044   1166490   1166663   1166549   1166175  
  7860.000000   1165632   1165037   1164515   1164150   1163976  
  7850.000000   1163969   1164068   1164210   1164351   1164487  
  7840.000000   1164633   1164817   1165044   1165290   1165503  
  7830.000000   1165624   1165614   1165469   1165232   1164978  
  7820.000000   1164789   1164732   1164833   1165083   1165430  
  7810.000000   1165814   1166167   1166444   1166621   1166699  
  7800.000000   1166691   1166616   1166475   1166261   1165950  
  7790.000000   1165519   1164955   1164272   1163508   1162716  
  7780.000000   1161947   1161230   1160553   1159879   1159153  
  7770.000000   1158346   1157471   1156595   1155824   1155265  
  7760.000000   1154985   1154975   1155151   1155375   1155505  
  7750.000000   1155443   1155169   1154743   1154276   1153884  
  7740.000000   1153646   1153580   1153650   1153786   1153919  
  7730.000000   1153997   1153995   1153895   1153677   1153307  
  7720.000000   1152746   1151977   1151027   1149981   1148972  
  7710.000000   1148143   1147602   1147389   1147458   1147695  
  7700.000000   1147953   1148108   1148090   1147906   1147627  
  7690.000000   1147349   1147160   1147094   1147134   1147199  
  7680.000000   1147192   1147019   1146632   1146039   1145309  
  7670.000000   1144557   1143914   1143498   1143383   1143585  
  7660.000000   1144054   1144694   1145385   1146020   1146531  
  7650.000000   1146901   1147162   1147369   1147576   1147806  
  7640.000000   1148045   1148249   1148365   1148352   1148206  
  7630.000000   1147956   1147656   1147359   1147104   1146897  
  7620.000000   1146727   1146573   1146427   1146302   1146225  
  7610.000000   1146230   1146331   1146524   1146776   1147055  
  7600.000000   1147335   1147620   1147939   1148327   1148808  
  7590.000000   1149360   1149919   1150371   1150606   1150529  
  7580.000000   1150120   1149425   1148561   1147679   1146930  
  7570.000000   1146435   1146262   1146431   1146921   1147689  
  7560.000000   1148681   1149842   1151110   1152409   1153658  
  7550.000000   1154763   1155649   1156260   1156594   1156686  
  7540.000000   1156620   1156495   1156421   1156488   1156759  
  7530.000000   1157262   1157987   1158899   1159942   1161050  
  7520.000000   1162157   1163201   1164136   1164934   1165595  
  7510.000000   1166140   1166616   1167075   1167578   1168165  
  7500.000000   1168862   1169665   1170553   1171485   1172426  
  7490.000000   1173344   1174225   1175062   1175863   1176629  
  7480.000000   1177372   1178094   1178816   1179567   1180399  
  7470.000000   1181366   1182523   1183895   1185470   1187193  
  7460.000000   1188987   1190760   1192446   1194011   1195470  
  7450.000000   1196861   1198232   1199615   1201022   1202443  
  7440.000000   1203862   1205271   1206680   1208107   1209571  
  7430.000000   1211065   1212557   1213991   1215310   1216481  
  7420.000000   1217517   1218481   1219471   1220587   1221908  
  7410.000000   1223458   1225214   1227106   1229049   1230958  
  7400.000000   1232770   1234454   1236008   1237458   1238858  
  7390.000000   1240278   1241794   1243471   1245343   1247396  
  7380.000000   1249562   1251733   1253788   1255639   1257246  
  7370.000000   1258638   1259893   1261105   1262351   1263660  
  7360.000000   1265012   1266351   1267618   1268773   1269815  
  7350.000000   1270781   1271727   1272705   1273749   1274869  
  7340.000000   1276058   1277309   1278622   1280009   1281485  
  7330.000000   1283057   1284715   1286424   1288136   1289793  
  7320.000000   1291349   1292770   1294049   1295205   1296286  
  7310.000000   1297363   1298523   1299848   1301393   1303169  
  7300.000000   1305128   1307178   1309192   1311060   1312706  
  7290.000000   1314120   1315349   1316480   1317598   1318763  
  7280.000000   1319986   1321229   1322431   1323528   1324482  
  7270.000000   1325289   1325979   1326599   1327206   1327840  
  7260.000000   1328532   1329286   1330101   1330966   1331883  
  7250.000000   1332859   1333929   1335139   1336553   1338219  
  7240.000000   1340165   1342358   1344725   1347134   1349462  
  7230.000000   1351599   1353519   1355248   1356898   1358581  
  7220.000000   1360419   1362465   1364734   1367176   1369737  
  7210.000000   1372358   1375021   1377729   1380514   1383399  
  7200.000000   1386405   1389528   1392761   1396085   1399495  
  7190.000000   1402973   1406511   1410072   1413619   1417098  
  7180.000000   1420471   1423708   1426813   1429796   1432686  
  7170.000000   1435499   1438260   1440987   1443725   1446520  
  7160.000000   1449443   1452546   1455868   1459406   1463137  
  7150.000000   1467011   1470991   1475047   1479184   1483405  
  7140.000000   1487725   1492125   1496591   1501080   1505588  
  7130.000000   1510112   1514696   1519374   1524186   1529119  
  7120.000000   1534144   1539197   1544239   1549253   1554281  
  7110.000000   1559385   1564637   1570064   1575656   1581338  
  7100.000000   1587030   1592644   1598143   1603518   1608806  
  7090.000000   1614048   1619286   1624553   1629882   1635322  
  7080.000000   1640929   1646763   1652853   1659174   1665626  
  7070.000000   1672045   1678248   1684071   1689425   1694304  
  7060.000000   1698789   1703009   1707116   1711250   1715526  
  7050.000000   1720035   1724830   1729939   1735340   1740978  
  7040.000000   1746750   1752546   1758255   1763811   1769189  
  7030.000000   1774413   1779518   1784539   1789480   1794325  
  7020.000000   1799047   1803640   1808121   1812538   1816930  
  7010.000000   1821319   1825673   1829938   1834037   1837938  
  7000.000000   1841642   1845219   1848746   1852297   1855888  
  6990.000000   1859491   1863037   1866475   1869784   1873009  
  6980.000000   1876214   1879475   1882812   1886202   1889564  
  6970.000000   1892828   1895940   1898920   1901819   1904716  
  6960.000000   1907652   1910623   1913563   1916389   1919018  
  6950.000000   1921422   1923611   1925638   1927543   1929356  
  6940.000000   1931061   1932646   1934098   1935457   1936787  
  6930.000000   1938187   1939726   1941434   1943266   1945135  
  6920.000000   1946924   1948540   1949931   1951103   1952106  
  6910.000000   1953020   1953919   1954868   1955907   1957062  
  6900.000000   1958335   1959711   1961154   1962613   1964029  
  6890.000000   1965348   1966530   1967564   1968465   1969262  
  6880.000000   1969995   1970697   1971399   1972127   1972909  
  6870.000000   1973770   1974728   1975787   1976922   1978095  
  6860.000000   1979252   1980353   1981376   1982334   1983256  
  6850.000000   1984181   1985127   1986095   1987057   1987981  
  6840.000000   1988835   1989612   1990320   1990980   1991611  
  6830.000000   1992222   1992804   1993341   1993814   1994214  
  6820.000000   1994534   1994780   1994954   1995068   1995132  
  6810.000000   1995174   1995226   1995331   1995516   1995796  
  6800.000000   1996147   1996529   1996881   1997154   1997311  
  6790.000000   1997342   1997253   1997053   1996748   1996346  
  6780.000000   1995858   1995321   1994794   1994356   1994079  
  6770.000000   1994004   1994122   1994374   1994671   1994929  
  6760.000000   1995091   1995148   1995130   1995083   1995047  
  6750.000000   1995038   1995051   1995071   1995092   1995121  
  6740.000000   1995184   1995301   1995477   1995692   1995908  
  6730.000000   1996086   1996206   1996274   1996324   1996396  
  6720.000000   1996519   1996694   1996897   1997096   1997263  
  6710.000000   1997401   1997528   1997683   1997890   1998156  
  6700.000000   1998457   1998752   1998991   1999129   1999131  
  6690.000000   1998968   1998618   1998062   1997295   1996341  
  6680.000000   1995259   1994152   1993135   1992325   1991788  
  6670.000000   1991538   1991513   1991613   1991706   1991684  
  6660.000000   1991463   1991013   1990331   1989447   1988397  
  6650.000000   1987229   1985987   1984717   1983455   1982228  
  6640.000000   1981043   1979892   1978749   1977593   1976399  
  6630.000000   1975167   1973901   1972617   1971327   1970045  
  6620.000000   1968780   1967552   1966384   1965308   1964346  
  6610.000000   1963503   1962751   1962030   1961261   1960368  
  6600.000000   1959303   1958062   1956679   1955217   1953739  
  6590.000000   1952293   1950896   1949538   1948195   1946842  
  6580.000000   1945463   1944054   1942617   1941160   1939684  
  6570.000000   1938194   1936695   1935200   1933729   1932308  
  6560.000000   1930957   1929685   1928486   1927337   1926202  
  6550.000000   1925042   1923825   1922532   1921165   1919748  
  6540.000000   1918322   1916941   1915651   1914483   1913434  
  6530.000000   1912471   1911532   1910548   1909465   1908253  
  6520.000000   1906922   1905504   1904045   1902586   1901154  
  6510.000000   1899761   1898413   1897119   1895897   1894774  
  6500.000000   1893763   1892865   1892047   1891263   1890456  
  6490.000000   1889582   1888620   1887577   1886474   1885330  
  6480.000000   1884154   1882933   1881647   1880282   1878842  
  6470.000000   1877356   1875871   1874441   1873102   1871876  
  6460.000000   1870758   1869735   1868784   1867883   1867015  
  6450.000000   1866156   1865282   1864358   1863360   1862270  
  6440.000000   1861094   1859853   1858590   1857341   1856147  
  6430.000000   1855031   1854017   1853117   1852349   1851722  
  6420.000000   1851236   1850869   1850585   1850328   1850054  
  6410.000000   1849731   1849364   1848976   1848611   1848298  
  6400.000000   1848051   1847853   1847673   1847472   1847230  
  6390.000000   1846946   1846641   1846341   1846069   1845838  
  6380.000000   1845641   1845466   1845300   1845132   1844954  
  6370.000000   1844760   1844540   1844280   1843971   1843614  
  6360.000000   1843221   1842813   1842412   1842026   1841645  
  6350.000000   1841242   1840785   1840249   1839632   1838951  
  6340.000000   1838239   1837532   1836851   1836208   1835598  
  6330.000000   1835019   1834464   1833945   1833464   1833028  
  6320.000000   1832621   1832220   1831789   1831297   1830723  
  6310.000000   1830058   1829303   1828460   1827525   1826496  
  6300.000000   1825374   1824179   1822949   1821741   1820603  
  6290.000000   1819575   1818655   1817820   1817018   1816203  
  6280.000000   1815335   1814398   1813387   1812307   1811154  
  6270.000000   1809921   1808600   1807199   1805743   1804282  
  6260.000000   1802871   1801555   1800345   1799218   1798118  
  6250.000000   1796983   1795759   1794424   1792986   1791478  
  6240.000000   1789938   1788401   1786889   1785417   1783993  
  6230.000000   1782629   1781338   1780133   1779014   1777974  
  6220.000000   1776993   1776051   1775127   1774207   1773279  
  6210.000000   1772328   1771334   1770268   1769105   1767829  
  6200.000000   1766449   1764993   1763517   1762075   1760720  
  6190.000000   1759481   1758368   1757372   1756473   1755647  
  6180.000000   1754872   1754124   1753384   1752635   1751866  
  6170.000000   1751077   1750277   1749485   1748719   1747989  
  6160.000000   1747291   1746610   1745924   1745214   1744469  
  6150.000000   1743691   1742885   1742059   1741213   1740342  
  6140.000000   1739440   1738511   1737568   1736630   1735721  
  6130.000000   1734851   1734014   1733189   1732349   1731473  
  6120.000000   1730559   1729621   1728689   1727792   1726955  
  6110.000000   1726181   1725470   1724810   1724198   1723634  
  6100.000000   1723122   1722663   1722252   1721871   1721503  
  6090.000000   1721132   1720759   1720389   1720044   1719733  
  6080.000000   1719467   1719234   1719030   1718845   1718691  
  6070.000000   1718584   1718562   1718644   1718850   1719169  
  6060.000000   1719586   1720067   1720595   1721147   1721728  
  6050.000000   1722331   1722974   1723657   1724403   1725226  
  6040.000000   1726167   1727252   1728517   1729966   1731591  
  6030.000000   1733348   1735194   1737073   1738965   1740853  
  6020.000000   1742762   1744700   1746692   1748727   1750799  
  6010.000000   1752881   1754972   1757071   1759215   1761436  
  6000.000000   1763780   1766266   1768911   1771695   1774609  
  5990.000000   1777619   1780717   1783882   1787119   1790417  
  5980.000000   1793788   1797226   1800743   1804337   1808020  
  5970.000000   1811784   1815634   1819554   1823549   1827607  
  5960.000000   1831739   1835940   1840217   1844552   1848930  
  5950.000000   1853314   1857683   1862020   1866336   1870658  
  5940.000000   1875028   1879488   1884062   1888758   1893555  
  5930.000000   1898423   1903319   1908205   1913034   1917770  
  5920.000000   1922364   1926777   1930971   1934931   1938654  
  5910.000000   1942168   1945501   1948688   1951744   1954684  
  5900.000000   1957505   1960231   1962881   1965514   1968176  
  5890.000000   1970923   1973764   1976691   1979650   1982585  
  5880.000000   1985435   1988164   1990752   1993198   1995504  
  5870.000000   1997667   1999679   2001538   2003256   2004868  
  5860.000000   2006430   2008007   2009659   2011428   2013334  
  5850.000000   2015380   2017559   2019861   2022279   2024798  
  5840.000000   2027395   2030029   2032657   2035231   2037730  
  5830.000000   2040147   2042509   2044846   2047192   2049555  
  5820.000000   2051934   2054304   2056646   2058951   2061225  
  5810.000000   2063489   2065761   2068058   2070369   2072696  
  5800.000000   2075013   2077339   2079672   2082054   2084485  
  5790.000000   2086978   2089473   2091908   2094150   2096079  
  5780.000000   2097535   2098404   2098575   2098010   2096708  
  5770.000000   2094758   2092284   2089475   2086509   2083567  
  5760.000000   2080756   2078153   2075752   2073540   2071470  
  5750.000000   2069528   2067697   2065989   2064402   2062931  
  5740.000000   2061550   2060220   2058907   2057578   2056230  
  5730.000000   2054861   2053492   2052134   2050804   2049503  
  5720.000000   2048243   2047028   2045868   2044769   2043734  
  5710.000000   2042757   2041829   2040935   2040068   2039225  
  5700.000000   2038406   2037612   2036836   2036068   2035293  
  5690.000000   2034507   2033705   2032906   2032119   2031360  
  5680.000000   2030614   2029862   2029055   2028156   2027117  
  5670.000000   2025915   2024527   2022942   2021139   2019101  
  5660.000000   2016811   2014274   2011515   2008600   2005607  
  5650.000000   2002632   1999748   1997012   1994444   1992045  
  5640.000000   1989797   1987680   1985673   1983759   1981919  
  5630.000000   1980135   1978393   1976681   1975009   1973382  
  5620.000000   1971822   1970335   1968924   1967565   1966242  
  5610.000000   1964927   1963618   1962319   1961053   1959840  
  5600.000000   1958694   1957609   1956572   1955558   1954555  
  5590.000000   1953559   1952580   1951633   1950729   1949870  
  5580.000000   1949047   1948247   1947457   1946672   1945891  
  5570.000000   1945116   1944345   1943571   1942784   1941978  
  5560.000000   1941150   1940305   1939447   1938580   1937695  
  5550.000000   1936777   1935810   1934789   1933721   1932632  
  5540.000000   1931551   1930504   1929495   1928515   1927540  
  5530.000000   1926550   1925538   1924519   1923516   1922554  
  5520.000000   1921646   1920785   1919945   1919098   1918218  
  5510.000000   1917297   1916336   1915345   1914327   1913281  
  5500.000000   1912196   1911068   1909900   1908714   1907533  
  5490.000000   1906381   1905259   1904150   1903016   1901821  
  5480.000000   1900534   1899149   1897675   1896135   1894549  
  5470.000000   1892932   1891287   1889620   1887942   1886271  
  5460.000000   1884629   1883032   1881476   1879944   1878404  
  5450.000000   1876830   1875211   1873556   1871897   1870266  
  5440.000000   1868690   1867175   1865716   1864302   1862934  
  5430.000000   1861618   1860374   1859208   1858118   1857076  
  5420.000000   1856057   1855033   1854013   1853023   1852125  
  5410.000000   1851363   1850777   1850351   1850060   1849847  
  5400.000000   1849689   1849563   1849495   1849506   1849641  
  5390.000000   1849907   1850320   1850857   1851526   1852317  
  5380.000000   1853260   1854356   1855631   1857059   1858637  
  5370.000000   1860317   1862104   1863974   1865968   1868090  
  5360.000000   1870399   1872893   1875626   1878588   1881845  
  5350.000000   1885402   1889339   1893652   1898397   1903527  
  5340.000000   1909064   1914943   1921210   1927834   1934899  
  5330.000000   1942384   1950364   1958778   1967666   1976949  
  5320.000000   1986688   1996847   2007546   2018793   2030731  
  5310.000000   2043346   2056745   2070868   2085781   2101413  
  5300.000000   2117832   2134986   2152965   2171730   2191371  
  5290.000000   2211829   2233143   2255195   2277949   2301244  
  5280.000000   2325032   2349207   2373810   2398845   2424426  
  5270.000000   2450577   2477325   2504560   2532132   2559833  
  5260.000000   2587490   2615005   2642364   2669637   2696882  
  5250.000000   2724147   2751356   2778401   2805060   2831199  
  5240.000000   2856651   2881437   2905545   2929122   2952192  
  5230.000000   2974865   2997064   3018774   3039814   3060130  
  5220.000000   3079574   3098191   3115959   3133042   3149487  
  5210.000000   3165461   3180936   3195957   3210364   3224122  
  5200.000000   3237067   3249240   3260599   3271295   3281345  
  5190.000000   3290884   3299855   3308296   3316083   3323236  
  5180.000000   3329675   3335486   3340656   3345297   3349378  
  5170.000000   3352966   3355992   3358503   3360456   3361936  
  5160.000000   3362939   3363559   3363770   3363620   3363043  
  5150.000000   3362063   3360625   3358782   3356522   3353919  
  5140.000000   3350975   3347755   3344257   3340542   3336614  
  5130.000000   3332532   3328296   3323938   3319428   3314766  
  5120.000000   3309915   3304889   3299691   3294374   3288973  
  5110.000000   3283541   3278092   3272644   3267187   3261727  
  5100.000000   3256271   3250849   3245490   3240225   3235062  
  5090.000000   3229999   3225013   3220085   3215196   3210344  
  5080.000000   3205530   3200760   3196030   3191328   3186628  
  5070.000000   3181909   3177144   3172326   3167444   3162499  
  5060.000000   3157477   3152372   3147159   3141830   3136367  
  5050.000000   3130781   3125074   3119270   3113372   3107398  
  5040.000000   3101338   3095195   3088954   3082618   3076183  
  5030.000000   3069660   3063058   3056398   3049700   3042991  
  5020.000000   3036297   3029644   3023055   3016540   3010108  
  5010.000000   3003755   2997482   2991283   2985171   2979148  
  5000.000000   2973239   2967448   2961799   2956285   2950924  
  4990.000000   2945703   2940644   2935740   2931025   2926497  
  4980.000000   2922194   2918108   2914271   2910665   2907317  
  4970.000000   2904200   2901337   2898695   2896296   2894106  
  4960.000000   2892157   2890429   2888974   2887788   2886938  
  4950.000000   2886416   2886276   2886487   2887078   2887998  
  4940.000000   2889272   2890854   2892787   2895042   2897676  
  4930.000000   2900668   2904071   2907857   2912072   2916681  
  4920.000000   2921723   2927160   2933018   2939252   2945874  
  4910.000000   2952836   2960146   2967761   2975688   2983884  
  4900.000000   2992338   3001001   3009839   3018799   3027840  
  4890.000000   3036925   3046016   3055090   3064096   3073002  
  4880.000000   3081726   3090220   3098380   3106161   3113458  
  4870.000000   3120244   3126431   3132018   3136940   3141229  
  4860.000000   3144852   3147869   3150272   3152135   3153453  
  4850.000000   3154293   3154651   3154594   3154128   3153335  
  4840.000000   3152248   3150960   3149519   3148012   3146479  
  4830.000000   3144984   3143547   3142201   3140947   3139792  
  4820.000000   3138725   3137742   3136840   3136024   3135316  
  4810.000000   3134734   3134311   3134059   3133996   3134110  
  4800.000000   3134394   3134823   3135390   3136079   3136900  
  4790.000000   3137844   3138919   3140102   3141376   3142697  
  4780.000000   3144037   3145356   3146645   3147895   3149126  
  4770.000000   3150356   3151613   3152913   3154271   3155685  
  4760.000000   3157148   3158639   3160135   3161612   3163044  
  4750.000000   3164420   3165733   3166992   3168211   3169409  
  4740.000000   3170600   3171794   3172986   3174170   3175331  
  4730.000000   3176458   3177546   3178592   3179605   3180586  
  4720.000000   3181549   3182495   3183441   3184391   3185373  
  4710.000000   3186398   3187504   3188708   3190046   3191533  
  4700.000000   3193201   3195063   3197149   3199468   3202046  
  4690.000000   3204883   3207988   3211340   3214921   3218682  
  4680.000000   3222580   3226543   3230517   3234431   3238249  
  4670.000000   3241930   3245483   3248916   3252281   3255616  
  4660.000000   3258980   3262409   3265944   3269606   3273422  
  4650.000000   3277413   3281602   3286008   3290638   3295486  
  4640.000000   3300515   3305678   3310909   3316148   3321338  
  4630.000000   3326445   3331441   3336318   3341054   3345635  
  4620.000000   3350017   3354165   3358017   3361543   3364700  
  4610.000000   3367498   3369929   3372047   3373871   3375468  
  4600.000000   3376857   3378098   3379195   3380195   3381084  
  4590.000000   3381889   3382578   3383149   3383545   3383744  
  4580.000000   3383680   3383337   3382678   3381722   3380477  
  4570.000000   3378995   3377310   3375483   3373543   3371537  
  4560.000000   3369483   3367417   3365352   3363317   3361313  
  4550.000000   3359353   3357418   3355496   3353561   3351595  
  4540.000000   3349588   3347544   3345479   3343412   3341367  
  4530.000000   3339346   3337353   3335364   3333370   3331345  
  4520.000000   3329300   3327236   3325204   3323228   3321380  
  4510.000000   3319683   3318208   3316962   3316011   3315348  
  4500.000000   3315043   3315088   3315559   3316449   3317845  
  4490.000000   3319744   3322241   3325331   3329109   3333553  
  4480.000000   3338734   3344601   3351196   3358444   3366378  
  4470.000000   3374920   3384102   3393854   3404200   3415062  
  4460.000000   3426449   3438269   3450515   3463094   3475993  
  4450.000000   3489133   3502507   3516059   3529790   3543673  
  4440.000000   3557706   3571869   3586138   3600474   3614816  
  4430.000000   3629106   3643260   3657233   3670950   3684402  
  4420.000000   3697538   3710370   3722847   3734970   3746660  
  4410.000000   3757888   3768550   3778613   3787992   3796696  
  4400.000000   3804703   3812090   3818905   3825273   3831276  
  4390.000000   3837048   3842662   3848230   3853795   3859431  
  4380.000000   3865150   3870995   3876957   3883065   3889309  
  4370.000000   3895714   3902267   3908970   3915780   3922656  
  4360.000000   3929513   3936291   3942900   3949310   3955450  
  4350.000000   3961342   3966919   3972233   3977224   3981976  
  4340.000000   3986460   3990776   3994869   3998711   4002033  
  4330.000000   4004507   4005592   4004780   4001596   3995846  
  4320.000000   3987621   3977400   3965901   3954013   3942545  
  4310.000000   3932156   3923196   3915775   3909760   3904928  
  4300.000000   3901027   3897858   3895304   3893291   3891812  
  4290.000000   3890818   3890320   3890250   3890626   3891402  
  4280.000000   3892608   3894217   3896225   3898589   3901252  
  4270.000000   3904156   3907216   3910351   3913413   3916215  
  4260.000000   3918476   3919881   3920096   3918872   3916078  
  4250.000000   3911787   3906231   3899812   3892967   3886154  
  4240.000000   3879702   3873854   3868671   3864144   3860150  
  4230.000000   3856566   3853243   3850065   3846936   3843789  
  4220.000000   3840600   3837359   3834123   3830941   3827937  
  4210.000000   3825189   3822817   3820863   3819376   3818321  
  4200.000000   3817662   3817304   3817183   3817203   3817330  
  4190.000000   3817512   3817769   3818087   3818512   3819033  
  4180.000000   3819689   3820449   3821340   3822333   3823475  
  4170.000000   3824774   3826316   3828140   3830342   3832951  
  4160.000000   3836034   3839575   3843600   3848059   3852961  
  4150.000000   3858245   3863917   3869914   3876250   3882865  
  4140.000000   3889791   3896990   3904514   3912337   3920515  
  4130.000000   3929012   3937867   3947033   3956545   3966381  
  4120.000000   3976605   3987233   3998349   4009975   4022172  
  4110.000000   4034921   4048228   4062023   4076265   4090856  
  4100.000000   4105732   4120796   4135991   4151251   4166552  
  4090.000000   4181876   4197226   4212614   4228036   4243497  
  4080.000000   4258958   4274407   4289773   4305037   4320110  
  4070.000000   4334967   4349501   4363682   4377395   4390621  
  4060.000000   4403259   4415313   4426698   4437438   4447462  
  4050.000000   4456824   4465487   4473552   4481012   4487982  
  4040.000000   4494428   4500419   4505874   4510827   4515196  
  4030.000000   4519046   4522342   4525173   4527517   4529433  
  4020.000000   4530852   4531809   4532274   4532307   4531894  
  4010.000000   4531146   4530130   4528870   4527228   4525222  
  4000.000000   4523022  
##END= 
