##TITLE= Sample 033 By ssteindl date Dienstag, November 20 2018
##JCAMP-DX= 4.24
##DATA TYPE= INFRARED SPECTRUM
##ORIGIN= Exported PE Spectrum Data File
##OWNER= Sandra Steindl
##DATE= 18/11/20
##TIME= 15:21:44.00
##SPECTROMETER/DATA SYSTEM= PERKIN-ELMER Frontier FT-IR/NIR IR
##INSTRUMENT PARAMETERS=
  APODIZATION=stark
  DETECTOR=INGAAS
##RESOLUTION= 16.000000
##DELTAX= -2.000000
##XUNITS= 1/CM
##YUNITS= A
##XFACTOR= 1.00
##YFACTOR= 0.00000011920928955078
##FIRSTX= 10000.00
##LASTX= 4000.00
##NPOINTS= 3001
##FIRSTY= 0.189888
##MAXY= 0.589440
##MINY= 0.167850
##XYDATA= (X++(Y..Y))
 10000.000000   1592894   1588241   1584305   1581956   1581308  
  9990.000000   1581924   1583537   1585944   1588648   1590893  
  9980.000000   1592140   1592212   1591311   1589930   1588799  
  9970.000000   1588570   1589571   1591641   1594215   1596489  
  9960.000000   1597759   1597640   1596216   1593955   1591497  
  9950.000000   1589412   1587974   1587163   1586714   1586370  
  9940.000000   1585988   1585684   1585676   1586231   1587391  
  9930.000000   1589004   1590652   1591862   1592219   1591497  
  9920.000000   1589712   1586989   1583517   1579354   1574496  
  9910.000000   1568888   1562617   1555958   1549400   1543528  
  9900.000000   1538869   1535780   1534369   1534569   1536163  
  9890.000000   1538894   1542461   1546511   1550649   1554407  
  9880.000000   1557409   1559378   1560336   1560507   1560294  
  9870.000000   1560049   1559946   1559893   1559622   1558877  
  9860.000000   1557649   1556257   1555276   1555259   1556426  
  9850.000000   1558468   1560575   1561724   1561090   1558450  
  9840.000000   1554337   1549965   1546758   1545943   1548008  
  9830.000000   1552664   1558886   1565381   1570954   1574840  
  9820.000000   1576789   1576898   1575449   1572612   1568487  
  9810.000000   1563044   1556442   1549004   1541380   1534331  
  9800.000000   1528571   1524627   1522640   1522596   1524227  
  9790.000000   1527384   1531909   1537770   1544852   1552838  
  9780.000000   1561138   1568789   1574726   1577850   1577491  
  9770.000000   1573419   1566104   1556505   1545984   1536009  
  9760.000000   1527889   1522603   1520555   1521666   1525292  
  9750.000000   1530550   1536344   1541730   1545922   1548505  
  9740.000000   1549381   1548757   1547094   1544877   1542650  
  9730.000000   1540707   1539221   1538037   1536852   1535242  
  9720.000000   1532814   1529419   1525162   1520579   1516426  
  9710.000000   1513658   1513072   1515156   1519840   1526462  
  9700.000000   1533858   1540585   1545289   1546974   1545325  
  9690.000000   1540689   1534069   1526744   1520026   1514843  
  9680.000000   1511645   1510319   1510407   1511314   1512511  
  9670.000000   1513741   1514895   1516100   1517434   1519026  
  9660.000000   1520919   1523184   1525928   1529240   1533150  
  9650.000000   1537411   1541454   1544358   1545081   1542790  
  9640.000000   1537232   1528962   1519291   1509979   1502673  
  9630.000000   1498440   1497379   1498709   1501033   1502933  
  9620.000000   1503407   1502187   1499664   1496642   1493901  
  9610.000000   1491917   1490728   1490025   1489434   1488682  
  9600.000000   1487822   1487070   1486725   1486852   1487238  
  9590.000000   1487372   1486702   1484819   1481729   1477816  
  9580.000000   1473804   1470475   1468468   1468125   1469432  
  9570.000000   1472148   1475886   1480286   1485049   1489948  
  9560.000000   1494766   1499241   1503042   1505793   1507165  
  9550.000000   1506953   1505202   1502207   1498503   1494735  
  9540.000000   1491490   1489190   1487932   1487567   1487677  
  9530.000000   1487801   1487493   1486524   1484871   1482734  
  9520.000000   1480409   1478174   1476202   1474506   1473009  
  9510.000000   1471558   1470056   1468446   1466787   1465189  
  9500.000000   1463808   1462772   1462154   1461959   1462131  
  9490.000000   1462570   1463176   1463849   1464541   1465246  
  9480.000000   1466006   1466885   1467912   1469051   1470169  
  9470.000000   1471074   1471597   1471657   1471351   1470889  
  9460.000000   1470535   1470430   1470518   1470513   1470027  
  9450.000000   1468737   1466578   1463844   1461133   1459202  
  9440.000000   1458672   1459849   1462559   1466261   1470210  
  9430.000000   1473738   1476408   1478094   1478880   1478951  
  9420.000000   1478450   1477456   1476021   1474249   1472358  
  9410.000000   1470617   1469255   1468317   1467599   1466717  
  9400.000000   1465216   1462817   1459523   1455712   1451990  
  9390.000000   1449012   1447220   1446710   1447230   1448307  
  9380.000000   1449446   1450253   1450538   1450266   1449534  
  9370.000000   1448469   1447220   1445928   1444763   1443909  
  9360.000000   1443536   1443742   1444509   1445696   1447095  
  9350.000000   1448498   1449757   1450787   1451543   1451945  
  9340.000000   1451877   1451174   1449740   1447601   1445011  
  9330.000000   1442407   1440311   1439142   1439075   1439984  
  9320.000000   1441511   1443216   1444735   1445906   1446773  
  9310.000000   1447528   1448358   1449360   1450515   1451745  
  9300.000000   1453012   1454339   1455807   1457440   1459111  
  9290.000000   1460536   1461295   1461036   1459588   1457164  
  9280.000000   1454304   1451766   1450213   1449944   1450759  
  9270.000000   1452020   1452892   1452606   1450712   1447237  
  9260.000000   1442656   1437756   1433318   1429958   1427955  
  9250.000000   1427328   1427899   1429401   1431557   1434051  
  9240.000000   1436537   1438574   1439668   1439310   1437176  
  9230.000000   1433252   1428018   1422297   1417159   1413559  
  9220.000000   1412132   1412969   1415571   1419046   1422383  
  9210.000000   1424847   1426153   1426545   1426601   1427013  
  9200.000000   1428281   1430505   1433342   1436143   1438244  
  9190.000000   1439175   1438824   1437402   1435331   1433064  
  9180.000000   1430901   1428959   1427175   1425426   1423615  
  9170.000000   1421739   1419883   1418176   1416714   1415553  
  9160.000000   1414682   1414090   1413774   1413745   1414016  
  9150.000000   1414537   1415220   1415904   1416454   1416773  
  9140.000000   1416860   1416778   1416628   1416496   1416443  
  9130.000000   1416504   1416718   1417154   1417893   1418993  
  9120.000000   1420410   1421961   1423337   1424207   1424339  
  9110.000000   1423698   1422463   1420969   1419580   1418548  
  9100.000000   1417928   1417591   1417336   1417004   1416571  
  9090.000000   1416146   1415903   1415960   1416281   1416692  
  9080.000000   1416961   1416940   1416658   1416336   1416304  
  9070.000000   1416856   1418103   1419915   1421966   1423870  
  9060.000000   1425331   1426223   1426615   1426666   1426558  
  9050.000000   1426363   1426052   1425514   1424670   1423525  
  9040.000000   1422194   1420882   1419801   1419154   1419053  
  9030.000000   1419588   1420769   1422594   1424955   1427653  
  9020.000000   1430365   1432699   1434296   1434896   1434447  
  9010.000000   1433076   1431076   1428734   1426268   1423757  
  9000.000000   1421212   1418645   1416141   1413927   1412285  
  8990.000000   1411498   1411669   1412718   1414368   1416257  
  8980.000000   1418035   1419464   1420458   1421016   1421178  
  8970.000000   1420949   1420348   1419419   1418308   1417250  
  8960.000000   1416535   1416377   1416796   1417583   1418351  
  8950.000000   1418681   1418292   1417157   1415528   1413827  
  8940.000000   1412477   1411726   1411567   1411790   1412104  
  8930.000000   1412308   1412372   1412470   1412868   1413792  
  8920.000000   1415290   1417189   1419150   1420759   1421687  
  8910.000000   1421731   1420898   1419314   1417207   1414827  
  8900.000000   1412449   1410350   1408796   1408028   1408207  
  8890.000000   1409365   1411349   1413849   1416474   1418830  
  8880.000000   1420655   1421822   1422419   1422619   1422680  
  8870.000000   1422794   1423095   1423635   1424422   1425483  
  8860.000000   1426863   1428688   1431083   1434159   1437874  
  8850.000000   1442043   1446288   1450109   1452972   1454431  
  8840.000000   1454302   1452670   1449930   1446640   1443411  
  8830.000000   1440728   1438849   1437785   1437360   1437373  
  8820.000000   1437691   1438347   1439466   1441214   1443650  
  8810.000000   1446667   1449966   1453132   1455790   1457704  
  8800.000000   1458884   1459530   1459973   1460521   1461370  
  8790.000000   1462547   1463938   1465338   1466543   1467386  
  8780.000000   1467794   1467749   1467298   1466517   1465529  
  8770.000000   1464502   1463642   1463172   1463271   1464067  
  8760.000000   1465575   1467756   1470485   1473646   1477108  
  8750.000000   1480763   1484466   1488005   1491096   1493403  
  8740.000000   1494646   1494642   1493422   1491206   1488426  
  8730.000000   1485579   1483141   1481424   1480534   1480386  
  8720.000000   1480755   1481404   1482148   1482957   1483921  
  8710.000000   1485243   1487116   1489659   1492833   1496427  
  8700.000000   1500117   1503519   1506358   1508471   1509916  
  8690.000000   1510844   1511486   1511986   1512391   1512620  
  8680.000000   1512559   1512175   1511600   1511183   1511378  
  8670.000000   1512654   1515270   1519202   1524063   1529239  
  8660.000000   1534038   1537898   1540531   1541947   1542410  
  8650.000000   1542288   1541927   1541550   1541259   1541075  
  8640.000000   1541017   1541142   1541535   1542270   1543329  
  8630.000000   1544606   1545895   1546993   1547769   1548235  
  8620.000000   1548556   1548961   1549686   1550841   1552416  
  8610.000000   1554261   1556193   1558059   1559806   1561481  
  8600.000000   1563180   1565009   1567005   1569158   1571401  
  8590.000000   1573682   1575980   1578300   1580639   1582932  
  8580.000000   1585035   1586719   1587745   1587941   1587313  
  8570.000000   1586045   1584471   1582982   1581915   1581486  
  8560.000000   1581718   1582526   1583759   1585312   1587137  
  8550.000000   1589259   1591717   1594481   1597395   1600169  
  8540.000000   1602459   1603943   1604453   1604025   1602947  
  8530.000000   1601664   1600676   1600399   1601056   1602626  
  8520.000000   1604836   1607270   1609471   1611075   1611899  
  8510.000000   1611970   1611516   1610862   1610354   1610232  
  8500.000000   1610621   1611483   1612683   1614045   1615425  
  8490.000000   1616769   1618092   1619490   1621066   1622910  
  8480.000000   1625052   1627447   1629999   1632538   1634882  
  8470.000000   1636797   1638086   1638588   1638259   1637196  
  8460.000000   1635654   1634037   1632815   1632428   1633149  
  8450.000000   1635039   1637913   1641410   1645063   1648447  
  8440.000000   1651258   1653374   1654820   1655741   1656334  
  8430.000000   1656799   1657300   1657951   1658821   1659914  
  8420.000000   1661149   1662372   1663364   1663918   1663868  
  8410.000000   1663196   1662026   1660634   1659334   1658399  
  8400.000000   1657955   1657954   1658198   1658427   1658429  
  8390.000000   1658125   1657580   1656975   1656512   1656342  
  8380.000000   1656499   1656912   1657450   1657986   1658458  
  8370.000000   1658865   1659254   1659662   1660086   1660465  
  8360.000000   1660705   1660721   1660488   1660053   1659532  
  8350.000000   1659059   1658741   1658629   1658711   1658939  
  8340.000000   1659255   1659623   1660032   1660486   1660980  
  8330.000000   1661474   1661895   1662150   1662164   1661910  
  8320.000000   1661424   1660812   1660222   1659820   1659732  
  8310.000000   1660029   1660678   1661571   1662520   1663310  
  8300.000000   1663735   1663651   1663016   1661896   1660460  
  8290.000000   1658922   1657486   1656300   1655411   1654792  
  8280.000000   1654357   1654037   1653802   1653694   1653778  
  8270.000000   1654111   1654677   1655350   1655917   1656114  
  8260.000000   1655742   1654712   1653119   1651200   1649285  
  8250.000000   1647697   1646653   1646244   1646395   1646966  
  8240.000000   1647768   1648672   1649579   1650452   1651243  
  8230.000000   1651868   1652188   1652021   1651224   1649721  
  8220.000000   1647580   1644976   1642179   1639460   1637022  
  8210.000000   1634970   1633284   1631912   1630784   1629911  
  8200.000000   1629343   1629182   1629479   1630208   1631204  
  8190.000000   1632208   1632910   1633050   1632493   1631255  
  8180.000000   1629508   1627482   1625418   1623467   1621679  
  8170.000000   1619993   1618291   1616457   1614428   1612235  
  8160.000000   1609985   1607855   1606018   1604627   1603756  
  8150.000000   1603401   1603474   1603815   1604237   1604545  
  8140.000000   1604596   1604298   1603644   1602683   1601512  
  8130.000000   1600243   1598981   1597803   1596755   1595858  
  8120.000000   1595104   1594473   1593916   1593371   1592751  
  8110.000000   1591971   1590957   1589677   1588152   1586460  
  8100.000000   1584717   1583053   1581580   1580374   1579456  
  8090.000000   1578808   1578380   1578107   1577920   1577734  
  8080.000000   1577462   1577002   1576265   1575189   1573772  
  8070.000000   1572082   1570260   1568488   1566957   1565816  
  8060.000000   1565136   1564900   1565004   1565297   1565611  
  8050.000000   1565811   1565813   1565592   1565173   1564604  
  8040.000000   1563936   1563209   1562448   1561666   1560884  
  8030.000000   1560125   1559426   1558819   1558317   1557906  
  8020.000000   1557536   1557138   1556643   1556011   1555245  
  8010.000000   1554403   1553572   1552847   1552297   1551945  
  8000.000000   1551767   1551703   1551679   1551628   1551498  
  7990.000000   1551255   1550872   1550326   1549601   1548698  
  7980.000000   1547652   1546531   1545434   1544451   1543643  
  7970.000000   1543004   1542467   1541922   1541263   1540433  
  7960.000000   1539455   1538435   1537533   1536907   1536663  
  7950.000000   1536818   1537295   1537940   1538573   1539026  
  7940.000000   1539196   1539045   1538624   1538026   1537385  
  7930.000000   1536814   1536394   1536149   1536048   1536020  
  7920.000000   1535996   1535934   1535851   1535817   1535932  
  7910.000000   1536275   1536857   1537601   1538352   1538932  
  7900.000000   1539210   1539151   1538843   1538455   1538175  
  7890.000000   1538124   1538304   1538599   1538823   1538800  
  7880.000000   1538442   1537786   1536981   1536234   1535722  
  7870.000000   1535542   1535674   1536011   1536400   1536702  
  7860.000000   1536831   1536765   1536530   1536188   1535804  
  7850.000000   1535445   1535172   1535040   1535079   1535281  
  7840.000000   1535584   1535877   1536021   1535893   1535425  
  7830.000000   1534639   1533635   1532564   1531577   1530775  
  7820.000000   1530186   1529770   1529452   1529161   1528852  
  7810.000000   1528524   1528197   1527896   1527626   1527380  
  7800.000000   1527138   1526889   1526640   1526410   1526218  
  7790.000000   1526056   1525891   1525661   1525312   1524816  
  7780.000000   1524197   1523525   1522898   1522393   1522042  
  7770.000000   1521813   1521622   1521370   1520987   1520465  
  7760.000000   1519862   1519294   1518881   1518713   1518813  
  7750.000000   1519125   1519534   1519894   1520080   1520006  
  7740.000000   1519658   1519079   1518351   1517576   1516837  
  7730.000000   1516203   1515704   1515357   1515157   1515094  
  7720.000000   1515143   1515263   1515383   1515411   1515239  
  7710.000000   1514773   1513962   1512820   1511441   1509978  
  7700.000000   1508614   1507516   1506790   1506458   1506451  
  7690.000000   1506636   1506859   1506982   1506928   1506679  
  7680.000000   1506288   1505832   1505399   1505048   1504809  
  7670.000000   1504676   1504632   1504657   1504751   1504927  
  7660.000000   1505211   1505618   1506134   1506709   1507256  
  7650.000000   1507675   1507885   1507849   1507601   1507230  
  7640.000000   1506867   1506637   1506622   1506833   1507206  
  7630.000000   1507627   1507971   1508150   1508137   1507979  
  7620.000000   1507770   1507623   1507631   1507838   1508234  
  7610.000000   1508754   1509308   1509789   1510117   1510242  
  7600.000000   1510168   1509943   1509657   1509419   1509332  
  7590.000000   1509468   1509845   1510424   1511120   1511834  
  7580.000000   1512492   1513059   1513557   1514034   1514547  
  7570.000000   1515112   1515708   1516273   1516751   1517122  
  7560.000000   1517432   1517787   1518319   1519144   1520304  
  7550.000000   1521751   1523346   1524902   1526243   1527248  
  7540.000000   1527888   1528205   1528306   1528306   1528316  
  7530.000000   1528406   1528619   1528971   1529470   1530119  
  7520.000000   1530926   1531893   1533015   1534280   1535668  
  7510.000000   1537155   1538719   1540332   1541973   1543608  
  7500.000000   1545214   1546756   1548218   1549583   1550857  
  7490.000000   1552052   1553204   1554353   1555555   1556857  
  7480.000000   1558298   1559884   1561590   1563356   1565108  
  7470.000000   1566775   1568327   1569778   1571203   1572699  
  7460.000000   1574361   1576238   1578316   1580521   1582745  
  7450.000000   1584889   1586903   1588796   1590631   1592484  
  7440.000000   1594411   1596410   1598427   1600365   1602138  
  7430.000000   1603698   1605069   1606333   1607620   1609051  
  7420.000000   1610708   1612608   1614704   1616899   1619085  
  7410.000000   1621173   1623121   1624940   1626693   1628470  
  7400.000000   1630360   1632431   1634701   1637141   1639682  
  7390.000000   1642232   1644710   1647058   1649262   1651335  
  7380.000000   1653307   1655206   1657040   1658794   1660445  
  7370.000000   1661980   1663413   1664797   1666206   1667732  
  7360.000000   1669438   1671359   1673478   1675747   1678097  
  7350.000000   1680461   1682784   1685027   1687163   1689170  
  7340.000000   1691025   1692707   1694205   1695527   1696714  
  7330.000000   1697828   1698946   1700146   1701479   1702969  
  7320.000000   1704596   1706320   1708086   1709850   1711578  
  7310.000000   1713270   1714931   1716584   1718237   1719889  
  7300.000000   1721524   1723116   1724641   1726083   1727438  
  7290.000000   1728706   1729879   1730940   1731852   1732588  
  7280.000000   1733138   1733545   1733901   1734346   1735023  
  7270.000000   1736044   1737441   1739149   1741013   1742833  
  7260.000000   1744425   1745667   1746545   1747125   1747558  
  7250.000000   1747998   1748590   1749408   1750481   1751776  
  7240.000000   1753247   1754834   1756502   1758219   1759983  
  7230.000000   1761787   1763649   1765577   1767602   1769739  
  7220.000000   1772021   1774450   1777042   1779777   1782656  
  7210.000000   1785650   1788749   1791921   1795143   1798379  
  7200.000000   1801618   1804865   1808179   1811641   1815364  
  7190.000000   1819426   1823856   1828578   1833441   1838221  
  7180.000000   1842714   1846772   1850383   1853637   1856731  
  7170.000000   1859865   1863219   1866868   1870812   1874958  
  7160.000000   1879206   1883455   1887667   1891846   1896049  
  7150.000000   1900346   1904814   1909510   1914480   1919727  
  7140.000000   1925242   1930963   1936821   1942713   1948566  
  7130.000000   1954303   1959909   1965378   1970758   1976083  
  7120.000000   1981410   1986764   1992191   1997725   2003427  
  7110.000000   2009357   2015575   2022108   2028948   2036029  
  7100.000000   2043262   2050536   2057774   2064918   2071967  
  7090.000000   2078925   2085822   2092658   2099441   2106160  
  7080.000000   2112830   2119478   2126156   2132915   2139794  
  7070.000000   2146803   2153916   2161085   2168253   2175370  
  7060.000000   2182400   2189321   2196122   2202792   2209333  
  7050.000000   2215747   2222056   2228290   2234482   2240662  
  7040.000000   2246843   2253030   2259214   2265397   2271585  
  7030.000000   2277808   2284082   2290427   2296828   2303259  
  7020.000000   2309667   2316010   2322245   2328355   2334320  
  7010.000000   2340129   2345757   2351183   2356389   2361389  
  7000.000000   2366217   2370941   2375615   2380288   2384952  
  6990.000000   2389586   2394134   2398573   2402891   2407132  
  6980.000000   2411340   2415564   2419800   2424013   2428114  
  6970.000000   2432023   2435660   2439006   2442070   2444919  
  6960.000000   2447622   2450271   2452939   2455702   2458590  
  6950.000000   2461616   2464721   2467815   2470748   2473387  
  6940.000000   2475632   2477481   2479021   2480425   2481876  
  6930.000000   2483524   2485412   2487491   2489623   2491663  
  6920.000000   2493500   2495116   2496567   2497971   2499435  
  6910.000000   2501035   2502775   2504609   2506457   2508234  
  6900.000000   2509867   2511302   2512503   2513462   2514194  
  6890.000000   2514761   2515257   2515807   2516523   2517483  
  6880.000000   2518687   2520078   2521543   2522976   2524300  
  6870.000000   2525503   2526613   2527683   2528738   2529765  
  6860.000000   2530709   2531504   2532110   2532535   2532835  
  6850.000000   2533100   2533410   2533816   2534313   2534875  
  6840.000000   2535454   2536023   2536569   2537098   2537611  
  6830.000000   2538095   2538520   2538856   2539086   2539228  
  6820.000000   2539322   2539428   2539591   2539831   2540133  
  6810.000000   2540466   2540787   2541075   2541316   2541514  
  6800.000000   2541664   2541757   2541769   2541691   2541521  
  6790.000000   2541295   2541057   2540861   2540734   2540676  
  6780.000000   2540647   2540598   2540474   2540246   2539902  
  6770.000000   2539457   2538924   2538324   2537669   2536981  
  6760.000000   2536283   2535612   2534994   2534442   2533931  
  6750.000000   2533419   2532847   2532177   2531402   2530561  
  6740.000000   2529711   2528912   2528192   2527542   2526918  
  6730.000000   2526271   2525569   2524815   2524038   2523279  
  6720.000000   2522558   2521863   2521152   2520379   2519514  
  6710.000000   2518566   2517573   2516594   2515671   2514820  
  6700.000000   2514026   2513259   2512490   2511716   2510946  
  6690.000000   2510195   2509457   2508702   2507874   2506923  
  6680.000000   2505821   2504587   2503276   2501964   2500708  
  6670.000000   2499533   2498415   2497311   2496172   2494984  
  6660.000000   2493756   2492529   2491333   2490178   2489032  
  6650.000000   2487847   2486568   2485166   2483648   2482056  
  6640.000000   2480440   2478850   2477310   2475826   2474384  
  6630.000000   2472977   2471597   2470240   2468898   2467550  
  6620.000000   2466159   2464689   2463115   2461437   2459682  
  6610.000000   2457901   2456145   2454458   2452858   2451352  
  6600.000000   2449930   2448585   2447308   2446086   2444897  
  6590.000000   2443700   2442445   2441081   2439576   2437923  
  6580.000000   2436145   2434285   2432394   2430516   2428685  
  6570.000000   2426927   2425266   2423728   2422334   2421090  
  6560.000000   2419974   2418934   2417894   2416776   2415528  
  6550.000000   2414132   2412620   2411051   2409499   2408018  
  6540.000000   2406639   2405362   2404173   2403052   2401986  
  6530.000000   2400965   2399984   2399031   2398086   2397126  
  6520.000000   2396131   2395091   2394014   2392916   2391821  
  6510.000000   2390745   2389700   2388684   2387695   2386728  
  6500.000000   2385776   2384833   2383886   2382924   2381936  
  6490.000000   2380924   2379903   2378898   2377937   2377034  
  6480.000000   2376182   2375348   2374487   2373558   2372543  
  6470.000000   2371455   2370332   2369226   2368182   2367224  
  6460.000000   2366352   2365550   2364795   2364068   2363359  
  6450.000000   2362657   2361947   2361205   2360402   2359515  
  6440.000000   2358539   2357488   2356397   2355303   2354239  
  6430.000000   2353218   2352240   2351294   2350378   2349503  
  6420.000000   2348694   2347980   2347380   2346896   2346511  
  6410.000000   2346198   2345935   2345708   2345520   2345376  
  6400.000000   2345279   2345212   2345150   2345052   2344887  
  6390.000000   2344632   2344283   2343849   2343345   2342788  
  6380.000000   2342196   2341588   2340989   2340427   2339924  
  6370.000000   2339493   2339118   2338768   2338395   2337965  
  6360.000000   2337462   2336905   2336328   2335777   2335274  
  6350.000000   2334813   2334355   2333852   2333256   2332551  
  6340.000000   2331746   2330879   2329994   2329126   2328289  
  6330.000000   2327485   2326701   2325935   2325186   2324469  
  6320.000000   2323789   2323149   2322527   2321893   2321206  
  6310.000000   2320437   2319561   2318578   2317494   2316328  
  6300.000000   2315095   2313815   2312505   2311185   2309864  
  6290.000000   2308550   2307232   2305895   2304511   2303067  
  6280.000000   2301551   2299983   2298384   2296788   2295215  
  6270.000000   2293674   2292152   2290631   2289081   2287487  
  6260.000000   2285835   2284125   2282355   2280526   2278635  
  6250.000000   2276687   2274689   2272662   2270633   2268633  
  6240.000000   2266685   2264806   2262998   2261258   2259574  
  6230.000000   2257933   2256315   2254696   2253045   2251337  
  6220.000000   2249556   2247703   2245804   2243901   2242041  
  6210.000000   2240255   2238552   2236914   2235302   2233676  
  6200.000000   2232006   2230286   2228533   2226770   2225019  
  6190.000000   2223288   2221571   2219853   2218124   2216383  
  6180.000000   2214644   2212929   2211260   2209654   2208116  
  6170.000000   2206644   2205230   2203862   2202528   2201206  
  6160.000000   2199875   2198512   2197101   2195640   2194146  
  6150.000000   2192647   2191177   2189754   2188380   2187034  
  6140.000000   2185689   2184322   2182937   2181557   2180228  
  6130.000000   2178988   2177860   2176830   2175859   2174893  
  6120.000000   2173888   2172821   2171702   2170558   2169426  
  6110.000000   2168329   2167275   2166252   2165247   2164250  
  6100.000000   2163270   2162322   2161430   2160604   2159845  
  6090.000000   2159133   2158446   2157759   2157067   2156372  
  6080.000000   2155700   2155066   2154495   2153989   2153548  
  6070.000000   2153156   2152806   2152481   2152183   2151914  
  6060.000000   2151696   2151544   2151494   2151562   2151776  
  6050.000000   2152133   2152628   2153229   2153910   2154631  
  6040.000000   2155380   2156141   2156931   2157762   2158662  
  6030.000000   2159642   2160718   2161885   2163146   2164489  
  6020.000000   2165910   2167392   2168924   2170479   2172040  
  6010.000000   2173582   2175100   2176585   2178052   2179508  
  6000.000000   2180975   2182459   2183981   2185545   2187171  
  5990.000000   2188870   2190665   2192566   2194584   2196715  
  5980.000000   2198956   2201292   2203720   2206228   2208816  
  5970.000000   2211467   2214175   2216909   2219654   2222383  
  5960.000000   2225099   2227803   2230522   2233273   2236084  
  5950.000000   2238959   2241900   2244895   2247938   2251025  
  5940.000000   2254162   2257357   2260620   2263947   2267327  
  5930.000000   2270735   2274143   2277523   2280858   2284137  
  5920.000000   2287360   2290531   2293656   2296741   2299789  
  5910.000000   2302802   2305779   2308717   2311610   2314454  
  5900.000000   2317249   2320008   2322747   2325493   2328265  
  5890.000000   2331081   2333933   2336803   2339658   2342466  
  5880.000000   2345197   2347838   2350384   2352838   2355202  
  5870.000000   2357474   2359648   2361720   2363692   2365581  
  5860.000000   2367412   2369217   2371027   2372870   2374765  
  5850.000000   2376725   2378762   2380883   2383091   2385380  
  5840.000000   2387733   2390125   2392528   2394918   2397283  
  5830.000000   2399623   2401947   2404263   2406569   2408855  
  5820.000000   2411101   2413289   2415411   2417471   2419478  
  5810.000000   2421446   2423370   2425244   2427041   2428756  
  5800.000000   2430377   2431946   2433490   2435073   2436707  
  5790.000000   2438405   2440107   2441749   2443211   2444400  
  5780.000000   2445207   2445570   2445440   2444816   2443717  
  5770.000000   2442212   2440385   2438357   2436237   2434145  
  5760.000000   2432157   2430336   2428696   2427246   2425969  
  5750.000000   2424860   2423901   2423079   2422369   2421736  
  5740.000000   2421145   2420556   2419956   2419336   2418722  
  5730.000000   2418135   2417609   2417152   2416773   2416454  
  5720.000000   2416184   2415942   2415723   2415519   2415336  
  5710.000000   2415171   2415033   2414923   2414854   2414833  
  5700.000000   2414870   2414969   2415127   2415334   2415574  
  5690.000000   2415841   2416126   2416433   2416750   2417066  
  5680.000000   2417345   2417545   2417612   2417512   2417221  
  5670.000000   2416745   2416099   2415308   2414385   2413339  
  5660.000000   2412165   2410871   2409470   2408003   2406510  
  5650.000000   2405041   2403619   2402256   2400935   2399641  
  5640.000000   2398356   2397082   2395830   2394618   2393453  
  5630.000000   2392329   2391229   2390132   2389026   2387914  
  5620.000000   2386816   2385757   2384756   2383821   2382942  
  5610.000000   2382102   2381286   2380485   2379702   2378944  
  5600.000000   2378210   2377492   2376770   2376024   2375238  
  5590.000000   2374413   2373560   2372697   2371835   2370974  
  5580.000000   2370101   2369200   2368256   2367273   2366265  
  5570.000000   2365256   2364263   2363291   2362329   2361358  
  5560.000000   2360350   2359293   2358181   2357022   2355827  
  5550.000000   2354609   2353372   2352125   2350874   2349635  
  5540.000000   2348423   2347258   2346148   2345093   2344078  
  5530.000000   2343082   2342084   2341068   2340029   2338969  
  5520.000000   2337893   2336807   2335715   2334621   2333530  
  5510.000000   2332446   2331372   2330304   2329232   2328141  
  5500.000000   2327014   2325844   2324633   2323394   2322139  
  5490.000000   2320877   2319599   2318289   2316922   2315490  
  5480.000000   2313995   2312467   2310938   2309443   2307994  
  5470.000000   2306583   2305179   2303747   2302258   2300703  
  5460.000000   2299086   2297425   2295732   2294012   2292261  
  5450.000000   2290475   2288655   2286813   2284970   2283149  
  5440.000000   2281368   2279633   2277945   2276300   2274701  
  5430.000000   2273149   2271652   2270196   2268769   2267338  
  5420.000000   2265891   2264422   2262972   2261593   2260363  
  5410.000000   2259328   2258522   2257918   2257485   2257166  
  5400.000000   2256942   2256792   2256737   2256774   2256918  
  5390.000000   2257144   2257450   2257814   2258270   2258847  
  5380.000000   2259619   2260620   2261888   2263384   2265076  
  5370.000000   2266883   2268781   2270732   2272778   2274930  
  5360.000000   2277258   2279765   2282505   2285461   2288696  
  5350.000000   2292209   2296092   2300353   2305072   2310221  
  5340.000000   2315841   2321875   2328368   2335280   2342678  
  5330.000000   2350519   2358853   2367599   2376783   2386324  
  5320.000000   2396292   2406673   2417615   2429146   2441422  
  5310.000000   2454429   2468251   2482797   2498104   2514071  
  5300.000000   2530762   2548132   2566300   2585263   2605149  
  5290.000000   2625928   2647658   2670221   2693573   2717537  
  5280.000000   2742055   2767010   2792447   2818375   2844917  
  5270.000000   2872100   2899947   2928334   2957095   2986002  
  5260.000000   3014870   3043599   3072178   3100680   3129158  
  5250.000000   3157640   3186008   3214111   3241675   3268538  
  5240.000000   3294522   3319669   3343995   3367693   3390821  
  5230.000000   3413519   3435709   3457375   3478310   3498450  
  5220.000000   3517628   3535902   3553249   3569864   3585791  
  5210.000000   3601212   3616079   3630426   3644062   3656939  
  5200.000000   3668872   3679905   3689992   3699298   3707842  
  5190.000000   3715775   3723051   3729733   3735716   3741049  
  5180.000000   3745663   3749663   3753023   3755852   3758099  
  5170.000000   3759823   3760947   3761528   3761521   3761022  
  5160.000000   3760021   3758606   3756741   3754471   3751732  
  5150.000000   3748569   3744953   3740965   3736612   3731971  
  5140.000000   3727027   3721819   3716310   3710536   3704487  
  5130.000000   3698229   3691782   3685212   3678524   3671753  
  5120.000000   3664883   3657939   3650923   3643876   3636812  
  5110.000000   3629764   3622720   3615678   3608606   3601493  
  5100.000000   3594326   3587121   3579894   3572672   3565461  
  5090.000000   3558268   3551081   3543897   3536712   3529539  
  5080.000000   3522388   3515280   3508218   3501205   3494224  
  5070.000000   3487260   3480287   3473286   3466234   3459118  
  5060.000000   3451922   3444646   3437290   3429878   3422432  
  5050.000000   3414983   3407552   3400148   3392763   3385381  
  5040.000000   3377979   3370546   3363080   3355596   3348115  
  5030.000000   3340656   3333237   3325861   3318537   3311264  
  5020.000000   3304060   3296938   3289928   3283041   3276299  
  5010.000000   3269693   3263229   3256890   3250686   3244611  
  5000.000000   3238691   3232928   3227353   3221955   3216760  
  4990.000000   3211751   3206953   3202355   3197992   3193850  
  4980.000000   3189958   3186286   3182848   3179609   3176598  
  4970.000000   3173799   3171274   3169029   3167134   3165582  
  4960.000000   3164414   3163591   3163129   3162972   3163140  
  4950.000000   3163592   3164360   3165414   3166794   3168465  
  4940.000000   3170469   3172777   3175434   3178419   3181780  
  4930.000000   3185485   3189564   3193968   3198709   3203735  
  4920.000000   3209063   3214657   3220551   3226721   3233197  
  4910.000000   3239949   3246987   3254268   3261785   3269495  
  4900.000000   3277389   3285434   3293625   3301945   3310391  
  4890.000000   3318948   3327601   3336323   3345070   3353793  
  4880.000000   3362423   3370906   3379170   3387181   3394887  
  4870.000000   3402281   3409330   3416043   3422393   3428402  
  4860.000000   3434046   3439355   3444316   3448965   3453295  
  4850.000000   3457349   3461123   3464663   3467968   3471083  
  4840.000000   3474006   3476777   3479394   3481892   3484276  
  4830.000000   3486584   3488828   3491040   3493222   3495387  
  4820.000000   3497515   3499599   3501618   3503571   3505456  
  4810.000000   3507293   3509097   3510890   3512676   3514460  
  4800.000000   3516228   3517977   3519693   3521382   3523042  
  4790.000000   3524682   3526301   3527903   3529475   3531018  
  4780.000000   3532521   3533988   3535414   3536803   3538142  
  4770.000000   3539427   3540633   3541755   3542773   3543695  
  4760.000000   3544514   3545245   3545883   3546434   3546880  
  4750.000000   3547221   3547433   3547518   3547465   3547286  
  4740.000000   3546976   3546552   3546014   3545379   3544649  
  4730.000000   3543840   3542954   3541999   3540970   3539866  
  4720.000000   3538679   3537412   3536072   3534682   3533273  
  4710.000000   3531881   3530543   3529286   3528128   3527073  
  4700.000000   3526117   3525246   3524448   3523710   3523029  
  4690.000000   3522406   3521859   3521402   3521063   3520856  
  4680.000000   3520792   3520856   3521024   3521242   3521462  
  4670.000000   3521621   3521692   3521649   3521511   3521301  
  4660.000000   3521075   3520877   3520766   3520777   3520950  
  4650.000000   3521302   3521849   3522591   3523526   3524637  
  4640.000000   3525909   3527320   3528853   3530486   3532203  
  4630.000000   3533982   3535803   3537634   3539444   3541197  
  4620.000000   3542861   3544406   3545806   3547042   3548097  
  4610.000000   3548965   3549641   3550144   3550491   3550731  
  4600.000000   3550897   3551042   3551184   3551346   3551512  
  4590.000000   3551670   3551780   3551822   3551761   3551586  
  4580.000000   3551274   3550825   3550224   3549478   3548589  
  4570.000000   3547583   3546480   3545315   3544109   3542879  
  4560.000000   3541621   3540331   3538989   3537591   3536134  
  4550.000000   3534631   3533099   3531557   3530017   3528483  
  4540.000000   3526957   3525439   3523937   3522459   3521028  
  4530.000000   3519649   3518342   3517098   3515930   3514822  
  4520.000000   3513798   3512854   3512035   3511344   3510839  
  4510.000000   3510519   3510451   3510639   3511168   3512056  
  4500.000000   3513403   3515219   3517587   3520485   3523968  
  4490.000000   3527989   3532603   3537772   3543570   3549973  
  4480.000000   3557054   3564771   3573170   3582182   3591825  
  4470.000000   3602020   3612772   3624001   3635699   3647777  
  4460.000000   3660211   3672906   3685835   3698917   3712131  
  4450.000000   3725422   3738780   3752169   3765585   3779009  
  4440.000000   3792436   3805866   3819288   3832704   3846088  
  4430.000000   3859436   3872700   3885875   3898898   3911769  
  4420.000000   3924413   3936826   3948910   3960642   3971898  
  4410.000000   3982633   3992719   4002116   4010722   4018537  
  4400.000000   4025511   4031702   4037116   4041857   4045976  
  4390.000000   4049603   4052810   4055736   4058452   4061077  
  4380.000000   4063660   4066279   4068950   4071714   4074577  
  4370.000000   4077571   4080720   4084062   4087634   4091468  
  4360.000000   4095585   4099991   4104667   4109590   4114703  
  4350.000000   4119971   4125312   4130705   4136080   4141451  
  4340.000000   4146781   4152093   4157321   4162387   4167067  
  4330.000000   4171086   4174050   4175593   4175394   4173334  
  4320.000000   4169490   4164210   4157992   4151459   4145160  
  4310.000000   4139555   4134866   4131166   4128332   4126199  
  4300.000000   4124557   4123260   4122202   4121335   4120647  
  4290.000000   4120120   4119764   4119554   4119510   4119625  
  4280.000000   4119935   4120450   4121184   4122132   4123262  
  4270.000000   4124543   4125917   4127332   4128692   4129882  
  4260.000000   4130731   4131043   4130608   4129260   4126909  
  4250.000000   4123592   4119457   4114770   4109831   4104963  
  4240.000000   4100405   4096336   4092805   4089797   4087213  
  4230.000000   4084941   4082852   4080842   4078827   4076751  
  4220.000000   4074598   4072362   4070092   4067824   4065646  
  4210.000000   4063611   4061804   4060260   4059027   4058102  
  4200.000000   4057493   4057162   4057091   4057220   4057522  
  4190.000000   4057928   4058425   4058964   4059570   4060226  
  4180.000000   4060995   4061886   4062973   4064270   4065855  
  4170.000000   4067744   4070024   4072717   4075912   4079614  
  4160.000000   4083879   4088668   4093990   4099768   4105997  
  4150.000000   4112600   4119590   4126913   4134606   4142627  
  4140.000000   4151029   4159777   4168931   4178462   4188425  
  4130.000000   4198786   4209579   4220756   4232338   4244279  
  4120.000000   4256612   4269318   4282449   4295999   4310011  
  4110.000000   4324455   4339332   4354575   4370145   4385955  
  4100.000000   4401957   4418079   4434295   4450569   4466904  
  4090.000000   4483300   4499771   4516327   4532968   4549700  
  4080.000000   4566505   4583388   4600318   4617298   4634271  
  4070.000000   4651216   4668034   4684679   4701035   4717071  
  4060.000000   4732696   4747924   4762693   4777039   4790901  
  4050.000000   4804321   4817238   4829709   4841674   4853191  
  4040.000000   4864170   4874634   4884447   4893618   4902021  
  4030.000000   4909709   4916605   4922795   4928221   4932936  
  4020.000000   4936831   4939944   4942231   4943766   4944498  
  4010.000000   4944576   4944085   4943057   4941279   4938824  
  4000.000000   4936027  
##END= 
