##TITLE= Sample 045 By ssteindl date Dienstag, November 20 2018
##JCAMP-DX= 4.24
##DATA TYPE= INFRARED SPECTRUM
##ORIGIN= Exported PE Spectrum Data File
##OWNER= Sandra Steindl
##DATE= 18/11/20
##TIME= 15:48:18.00
##SPECTROMETER/DATA SYSTEM= PERKIN-ELMER Frontier FT-IR/NIR IR
##INSTRUMENT PARAMETERS=
  APODIZATION=stark
  DETECTOR=INGAAS
##RESOLUTION= 16.000000
##DELTAX= -2.000000
##XUNITS= 1/CM
##YUNITS= A
##XFACTOR= 1.00
##YFACTOR= 0.00000011920928955078
##FIRSTX= 10000.00
##LASTX= 4000.00
##NPOINTS= 3001
##FIRSTY= 0.193074
##MAXY= 0.626576
##MINY= 0.169808
##XYDATA= (X++(Y..Y))
 10000.000000   1619619   1617416   1615310   1613484   1612101  
  9990.000000   1611312   1611322   1612317   1614430   1617574  
  9980.000000   1621456   1625449   1628768   1630573   1630336  
  9970.000000   1627988   1624059   1619557   1615706   1613627  
  9960.000000   1613978   1616838   1621675   1627618   1633679  
  9950.000000   1639068   1643242   1645945   1647067   1646621  
  9940.000000   1644733   1641682   1637980   1634232   1631080  
  9930.000000   1628904   1627773   1627332   1626992   1626133  
  9920.000000   1624376   1621791   1618859   1616392   1615155  
  9910.000000   1615729   1618256   1622579   1628265   1634864  
  9900.000000   1641917   1649028   1655721   1661420   1665427  
  9890.000000   1667071   1665925   1661945   1655606   1647712  
  9880.000000   1639248   1631042   1623578   1616963   1610954  
  9870.000000   1605291   1599803   1594692   1590408   1587572  
  9860.000000   1586648   1587735   1590441   1593916   1597123  
  9850.000000   1599081   1599231   1597534   1594506   1591027  
  9840.000000   1588061   1586414   1586505   1588305   1591401  
  9830.000000   1595084   1598579   1601088   1601976   1600744  
  9820.000000   1597155   1591234   1583371   1574313   1565134  
  9810.000000   1557065   1551261   1548562   1549262   1553081  
  9800.000000   1559176   1566402   1573514   1579464   1583585  
  9790.000000   1585627   1585807   1584576   1582600   1580493  
  9780.000000   1578814   1577909   1577887   1578635   1579827  
  9770.000000   1581151   1582341   1583406   1584484   1585837  
  9760.000000   1587553   1589464   1591045   1591533   1590191  
  9750.000000   1586552   1580723   1573361   1565593   1558618  
  9740.000000   1553365   1550206   1548879   1548712   1548890  
  9730.000000   1548861   1548477   1548046   1548106   1549161  
  9720.000000   1551461   1554847   1558871   1562855   1566170  
  9710.000000   1568287   1568934   1568090   1565966   1563045  
  9700.000000   1559931   1557395   1556090   1556506   1558690  
  9690.000000   1562224   1566244   1569616   1571275   1570415  
  9680.000000   1566771   1560529   1552321   1542929   1533218  
  9670.000000   1523973   1515948   1509871   1506397   1506073  
  9660.000000   1509062   1515141   1523485   1532950   1542177  
  9650.000000   1550037   1555845   1559467   1561267   1561744  
  9640.000000   1561342   1560111   1557849   1554148   1548800  
  9630.000000   1541922   1534087   1526153   1518969   1513163  
  9620.000000   1508879   1505934   1503881   1502371   1501263  
  9610.000000   1500733   1501127   1502761   1505717   1509698  
  9600.000000   1514118   1518210   1521350   1523163   1523706  
  9590.000000   1523292   1522429   1521550   1520953   1520719  
  9580.000000   1520786   1521015   1521266   1521453   1521521  
  9570.000000   1521456   1521235   1520871   1520407   1519977  
  9560.000000   1519748   1519911   1520522   1521512   1522609  
  9550.000000   1523514   1523967   1523934   1523600   1523297  
  9540.000000   1523341   1523810   1524485   1524804   1524100  
  9530.000000   1521781   1517639   1511935   1505386   1498979  
  9520.000000   1493675   1490214   1488943   1489857   1492644  
  9510.000000   1496829   1501823   1507007   1511734   1515408  
  9500.000000   1517565   1517981   1516814   1514552   1512001  
  9490.000000   1509940   1508949   1509091   1509945   1510739  
  9480.000000   1510663   1509245   1506483   1502963   1499561  
  9470.000000   1497256   1496705   1498125   1501186   1505184  
  9460.000000   1509239   1512529   1514450   1514680   1513199  
  9450.000000   1510229   1506206   1501678   1497254   1493453  
  9440.000000   1490627   1488850   1487927   1487474   1487057  
  9430.000000   1486377   1485359   1484192   1483220   1482794  
  9420.000000   1483098   1484040   1485299   1486432   1487121  
  9410.000000   1487261   1487064   1486901   1487183   1488151  
  9400.000000   1489768   1491718   1493476   1494539   1494590  
  9390.000000   1493679   1492210   1490819   1490133   1490546  
  9380.000000   1492051   1494214   1496256   1497271   1496528  
  9370.000000   1493735   1489201   1483754   1478485   1474433  
  9360.000000   1472249   1472061   1473423   1475536   1477512  
  9350.000000   1478728   1478977   1478485   1477714   1477119  
  9340.000000   1476966   1477212   1477597   1477688   1477133  
  9330.000000   1475719   1473513   1470774   1467892   1465275  
  9320.000000   1463281   1462193   1462159   1463196   1465122  
  9310.000000   1467623   1470264   1472638   1474435   1475560  
  9300.000000   1476144   1476478   1476900   1477561   1478384  
  9290.000000   1479001   1478959   1477852   1475515   1472098  
  9280.000000   1468040   1463993   1460606   1458417   1457669  
  9270.000000   1458361   1460236   1462898   1465849   1468568  
  9260.000000   1470598   1471600   1471457   1470237   1468231  
  9250.000000   1465814   1463409   1461300   1459637   1458405  
  9240.000000   1457527   1456960   1456702   1456859   1457502  
  9230.000000   1458705   1460407   1462471   1464693   1466877  
  9220.000000   1468903   1470667   1472058   1472834   1472688  
  9210.000000   1471301   1468536   1464537   1459805   1455135  
  9200.000000   1451406   1449332   1449163   1450680   1453229  
  9190.000000   1456013   1458291   1459651   1460053   1459766  
  9180.000000   1459169   1458549   1458040   1457574   1457020  
  9170.000000   1456224   1455147   1453827   1452381   1450934  
  9160.000000   1449571   1448368   1447387   1446729   1446503  
  9150.000000   1446791   1447599   1448793   1450127   1451289  
  9140.000000   1452020   1452175   1451756   1450917   1449899  
  9130.000000   1448978   1448388   1448294   1448765   1449792  
  9120.000000   1451257   1452924   1454437   1455396   1455466  
  9110.000000   1454454   1452390   1449519   1446274   1443119  
  9100.000000   1440431   1438400   1437048   1436288   1436009  
  9090.000000   1436163   1436745   1437797   1439278   1441061  
  9080.000000   1442904   1444537   1445767   1446517   1446884  
  9070.000000   1447008   1447050   1447030   1446870   1446377  
  9060.000000   1445402   1443917   1442096   1440275   1438840  
  9050.000000   1438132   1438303   1439340   1441023   1443098  
  9040.000000   1445293   1447457   1449494   1451378   1453062  
  9030.000000   1454467   1455472   1455918   1455667   1454613  
  9020.000000   1452759   1450161   1446956   1443316   1439458  
  9010.000000   1435628   1432066   1429004   1426631   1425092  
  9000.000000   1424449   1424698   1425728   1427372   1429385  
  8990.000000   1431513   1433523   1435250   1436668   1437824  
  8980.000000   1438873   1439917   1441012   1442033   1442748  
  8970.000000   1442854   1442156   1440650   1438596   1436482  
  8960.000000   1434887   1434295   1434911   1436597   1438931  
  8950.000000   1441349   1443331   1444567   1445021   1444919  
  8940.000000   1444600   1444423   1444638   1445382   1446678  
  8930.000000   1448459   1450585   1452838   1454927   1456483  
  8920.000000   1457130   1456583   1454777   1451916   1448453  
  8910.000000   1444977   1442048   1440053   1439086   1439001  
  8900.000000   1439482   1440243   1441101   1442039   1443142  
  8890.000000   1444478   1446023   1447564   1448791   1449336  
  8880.000000   1448973   1447651   1445588   1443188   1440989  
  8870.000000   1439512   1439160   1440148   1442456   1445851  
  8860.000000   1449884   1453991   1457583   1460181   1461551  
  8850.000000   1461719   1461009   1459890   1458895   1458386  
  8840.000000   1458507   1459123   1459953   1460704   1461203  
  8830.000000   1461524   1461900   1462710   1464225   1466579  
  8820.000000   1469639   1473090   1476525   1479539   1481863  
  8810.000000   1483322   1483873   1483481   1482144   1479885  
  8800.000000   1476839   1473304   1469757   1466817   1465087  
  8790.000000   1465016   1466705   1469898   1473993   1478255  
  8780.000000   1481990   1484733   1486336   1486939   1486902  
  8770.000000   1486603   1486378   1486379   1486663   1487165  
  8760.000000   1487823   1488562   1489341   1490126   1490886  
  8750.000000   1491609   1492313   1493085   1494066   1495420  
  8740.000000   1497259   1499580   1502249   1505012   1507601  
  8730.000000   1509813   1511612   1513116   1514535   1516059  
  8720.000000   1517748   1519505   1521128   1522410   1523276  
  8710.000000   1523833   1524347   1525112   1526298   1527837  
  8700.000000   1529433   1530678   1531250   1531078   1530432  
  8690.000000   1529831   1529853   1530915   1533087   1536097  
  8680.000000   1539417   1542526   1545110   1547188   1549067  
  8670.000000   1551153   1553736   1556815   1560080   1563003  
  8660.000000   1565070   1565961   1565719   1564699   1563463  
  8650.000000   1562570   1562409   1563116   1564560   1566466  
  8640.000000   1568526   1570523   1572368   1574097   1575811  
  8630.000000   1577623   1579604   1581764   1584061   1586402  
  8620.000000   1588689   1590809   1592707   1594364   1595847  
  8610.000000   1597266   1598743   1600375   1602173   1604084  
  8600.000000   1605991   1607810   1609517   1611204   1613012  
  8590.000000   1615099   1617503   1620110   1622625   1624681  
  8580.000000   1625973   1626371   1625988   1625130   1624197  
  8570.000000   1623526   1623262   1623344   1623558   1623694  
  8560.000000   1623656   1623555   1623661   1624294   1625661  
  8550.000000   1627755   1630324   1632949   1635196   1636746  
  8540.000000   1637541   1637741   1637685   1637726   1638141  
  8530.000000   1639043   1640387   1642028   1643793   1645554  
  8520.000000   1647244   1648869   1650456   1652046   1653648  
  8510.000000   1655255   1656829   1658320   1659669   1660809  
  8500.000000   1661690   1662277   1662593   1662700   1662709  
  8490.000000   1662744   1662906   1663240   1663719   1664277  
  8480.000000   1664844   1665411   1666031   1666839   1667994  
  8470.000000   1669614   1671717   1674187   1676821   1679341  
  8460.000000   1681498   1683103   1684090   1684503   1684472  
  8450.000000   1684201   1683930   1683935   1684462   1685708  
  8440.000000   1687741   1690474   1693615   1696727   1699294  
  8430.000000   1700888   1701278   1700522   1698949   1697071  
  8420.000000   1695434   1694444   1694261   1694780   1695698  
  8410.000000   1696659   1697363   1697696   1697713   1697618  
  8400.000000   1697628   1697910   1698506   1699339   1700251  
  8390.000000   1701060   1701638   1701922   1701931   1701735  
  8380.000000   1701432   1701123   1700895   1700806   1700884  
  8370.000000   1701110   1701430   1701759   1702015   1702141  
  8360.000000   1702130   1702053   1702036   1702236   1702779  
  8350.000000   1703729   1705046   1706614   1708245   1709748  
  8340.000000   1710956   1711770   1712158   1712146   1711803  
  8330.000000   1711200   1710408   1709473   1708425   1707288  
  8320.000000   1706080   1704846   1703638   1702558   1701708  
  8310.000000   1701209   1701130   1701487   1702202   1703121  
  8300.000000   1704036   1704722   1705006   1704795   1704116  
  8290.000000   1703086   1701887   1700708   1699711   1698999  
  8280.000000   1698611   1698526   1698683   1698996   1699370  
  8270.000000   1699705   1699898   1699861   1699521   1698852  
  8260.000000   1697875   1696680   1695394   1694184   1693205  
  8250.000000   1692594   1692419   1692679   1693269   1694009  
  8240.000000   1694646   1694918   1694594   1693534   1691731  
  8230.000000   1689312   1686534   1683696   1681083   1678875  
  8220.000000   1677124   1675760   1674627   1673576   1672499  
  8210.000000   1671409   1670395   1669621   1669210   1669221  
  8200.000000   1669586   1670137   1670646   1670878   1670667  
  8190.000000   1669913   1668622   1666836   1664634   1662084  
  8180.000000   1659257   1656232   1653117   1650067   1647261  
  8170.000000   1644897   1643124   1642031   1641598   1641716  
  8160.000000   1642199   1642821   1643366   1643644   1643528  
  8150.000000   1642939   1641875   1640392   1638628   1636777  
  8140.000000   1635076   1633753   1632968   1632770   1633050  
  8130.000000   1633583   1634060   1634187   1633761   1632721  
  8120.000000   1631158   1629263   1627265   1625337   1623565  
  8110.000000   1621937   1620386   1618852   1617326   1615883  
  8100.000000   1614642   1613743   1613252   1613160   1613335  
  8090.000000   1613585   1613700   1613518   1612975   1612097  
  8080.000000   1610997   1609789   1608571   1607359   1606104  
  8070.000000   1604701   1603055   1601113   1598921   1596619  
  8060.000000   1594430   1592599   1591327   1590717   1590731  
  8050.000000   1591213   1591925   1592636   1593180   1593504  
  8040.000000   1593660   1593758   1593900   1594117   1594353  
  8030.000000   1594473   1594342   1593862   1593051   1592010  
  8020.000000   1590896   1589840   1588887   1587987   1587012  
  8010.000000   1585851   1584465   1582958   1581541   1580482  
  8000.000000   1579988   1580140   1580827   1581796   1582710  
  7990.000000   1583266   1583276   1582705   1581664   1580344  
  7980.000000   1578959   1577665   1576555   1575635   1574866  
  7970.000000   1574177   1573500   1572770   1571941   1570995  
  7960.000000   1569945   1568851   1567809   1566938   1566337  
  7950.000000   1566055   1566073   1566295   1566596   1566851  
  7940.000000   1566989   1566996   1566921   1566819   1566731  
  7930.000000   1566639   1566494   1566221   1565796   1565247  
  7920.000000   1564679   1564230   1564024   1564119   1564483  
  7910.000000   1565014   1565583   1566099   1566545   1566981  
  7900.000000   1567504   1568194   1569052   1569983   1570825  
  7890.000000   1571396   1571583   1571371   1570872   1570267  
  7880.000000   1569750   1569449   1569395   1569518   1569691  
  7870.000000   1569799   1569780   1569662   1569531   1569506  
  7860.000000   1569672   1570067   1570655   1571364   1572109  
  7850.000000   1572821   1573454   1573977   1574351   1574519  
  7840.000000   1574414   1573976   1573190   1572107   1570845  
  7830.000000   1569572   1568451   1567608   1567080   1566839  
  7820.000000   1566779   1566784   1566740   1566579   1566276  
  7810.000000   1565846   1565327   1564754   1564162   1563565  
  7800.000000   1562971   1562367   1561734   1561046   1560282  
  7790.000000   1559442   1558554   1557688   1556929   1556378  
  7780.000000   1556103   1556124   1556392   1556796   1557194  
  7770.000000   1557437   1557416   1557065   1556387   1555423  
  7760.000000   1554256   1552973   1551675   1550451   1549389  
  7750.000000   1548558   1548002   1547732   1547714   1547885  
  7740.000000   1548152   1548436   1548673   1548842   1548954  
  7730.000000   1549036   1549118   1549203   1549268   1549261  
  7720.000000   1549121   1548797   1548267   1547546   1546684  
  7710.000000   1545764   1544872   1544100   1543510   1543139  
  7700.000000   1542978   1542981   1543068   1543140   1543099  
  7690.000000   1542863   1542392   1541682   1540785   1539772  
  7680.000000   1538744   1537790   1536990   1536395   1536029  
  7670.000000   1535890   1535956   1536193   1536561   1537024  
  7660.000000   1537550   1538118   1538712   1539313   1539903  
  7650.000000   1540441   1540892   1541200   1541333   1541267  
  7640.000000   1541013   1540608   1540118   1539624   1539208  
  7630.000000   1538942   1538871   1539020   1539375   1539902  
  7620.000000   1540546   1541246   1541936   1542564   1543093  
  7610.000000   1543501   1543790   1543966   1544051   1544056  
  7600.000000   1544001   1543894   1543752   1543594   1543450  
  7590.000000   1543366   1543397   1543604   1544044   1544749  
  7580.000000   1545717   1546898   1548203   1549508   1550685  
  7570.000000   1551625   1552281   1552675   1552907   1553117  
  7560.000000   1553457   1554030   1554879   1555954   1557147  
  7550.000000   1558308   1559303   1560042   1560510   1560757  
  7540.000000   1560888   1561026   1561297   1561802   1562610  
  7530.000000   1563749   1565206   1566920   1568800   1570723  
  7520.000000   1572571   1574233   1575651   1576808   1577755  
  7510.000000   1578568   1579356   1580199   1581165   1582281  
  7500.000000   1583550   1584958   1586488   1588125   1589861  
  7490.000000   1591686   1593587   1595536   1597503   1599443  
  7480.000000   1601322   1603107   1604791   1606375   1607891  
  7470.000000   1609383   1610911   1612529   1614281   1616187  
  7460.000000   1618242   1620415   1622662   1624934   1627189  
  7450.000000   1629396   1631534   1633584   1635538   1637389  
  7440.000000   1639152   1640854   1642551   1644299   1646160  
  7430.000000   1648166   1650321   1652595   1654938   1657297  
  7420.000000   1659639   1661955   1664261   1666586   1668956  
  7410.000000   1671387   1673878   1676421   1679003   1681605  
  7400.000000   1684204   1686763   1689239   1691580   1693748  
  7390.000000   1695728   1697540   1699231   1700859   1702473  
  7380.000000   1704098   1705750   1707436   1709188   1711064  
  7370.000000   1713149   1715508   1718161   1721037   1723984  
  7360.000000   1726801   1729292   1731340   1732935   1734185  
  7350.000000   1735272   1736395   1737704   1739264   1741060  
  7340.000000   1743022   1745084   1747202   1749372   1751602  
  7330.000000   1753891   1756202   1758465   1760601   1762546  
  7320.000000   1764280   1765827   1767247   1768606   1769963  
  7310.000000   1771356   1772808   1774343   1775983   1777756  
  7300.000000   1779672   1781715   1783830   1785937   1787944  
  7290.000000   1789789   1791445   1792933   1794303   1795609  
  7280.000000   1796891   1798158   1799398   1800585   1801700  
  7270.000000   1802730   1803670   1804520   1805286   1805977  
  7260.000000   1806626   1807285   1808034   1808955   1810118  
  7250.000000   1811539   1813193   1814998   1816870   1818734  
  7240.000000   1820581   1822439   1824395   1826510   1828832  
  7230.000000   1831327   1833941   1836571   1839163   1841681  
  7220.000000   1844166   1846673   1849291   1852072   1855062  
  7210.000000   1858259   1861662   1865247   1869013   1872942  
  7200.000000   1877029   1881233   1885518   1889810   1894058  
  7190.000000   1898198   1902214   1906095   1909880   1913604  
  7180.000000   1917332   1921107   1924984   1928988   1933156  
  7170.000000   1937500   1942046   1946792   1951745   1956873  
  7160.000000   1962150   1967510   1972905   1978279   1983625  
  7150.000000   1988956   1994350   1999888   2005672   2011745  
  7140.000000   2018111   2024683   2031354   2037990   2044523  
  7130.000000   2050929   2057272   2063630   2070109   2076748  
  7120.000000   2083557   2090475   2097443   2104400   2111345  
  7110.000000   2118303   2125338   2132501   2139827   2147312  
  7100.000000   2154934   2162656   2170458   2178313   2186200  
  7090.000000   2194071   2201871   2209523   2216978   2224222  
  7080.000000   2231304   2238312   2245358   2252524   2259843  
  7070.000000   2267287   2274780   2282249   2289644   2296971  
  7060.000000   2304278   2311634   2319090   2326665   2334325  
  7050.000000   2342004   2349619   2357099   2364392   2371484  
  7040.000000   2378387   2385141   2391803   2398448   2405140  
  7030.000000   2411939   2418852   2425853   2432855   2439760  
  7020.000000   2446468   2452929   2459139   2465162   2471069  
  7010.000000   2476946   2482823   2488705   2494545   2500302  
  7000.000000   2505927   2511413   2516750   2521961   2527042  
  6990.000000   2532008   2536846   2541570   2546180   2550696  
  6980.000000   2555106   2559401   2563533   2567478   2571213  
  6970.000000   2574779   2578234   2581672   2585143   2588663  
  6960.000000   2592167   2595564   2598749   2601680   2604371  
  6950.000000   2606921   2609438   2612027   2614721   2617502  
  6940.000000   2620298   2623046   2625696   2628250   2630714  
  6930.000000   2633095   2635354   2637437   2639278   2640862  
  6920.000000   2642230   2643495   2644789   2646224   2647831  
  6910.000000   2649566   2651316   2652975   2654472   2655819  
  6900.000000   2657076   2658332   2659639   2660997   2662346  
  6890.000000   2663616   2664755   2665770   2666717   2667674  
  6880.000000   2668699   2669807   2670958   2672095   2673170  
  6870.000000   2674177   2675151   2676149   2677209   2678329  
  6860.000000   2679456   2680515   2681438   2682197   2682816  
  6850.000000   2683358   2683897   2684494   2685171   2685929  
  6840.000000   2686750   2687624   2688542   2689504   2690493  
  6830.000000   2691482   2692417   2693257   2693968   2694556  
  6820.000000   2695049   2695495   2695925   2696352   2696752  
  6810.000000   2697094   2697338   2697468   2697481   2697393  
  6800.000000   2697215   2696965   2696650   2696289   2695908  
  6790.000000   2695548   2695241   2695009   2694834   2694676  
  6780.000000   2694480   2694209   2693859   2693472   2693103  
  6770.000000   2692807   2692597   2692440   2692266   2692003  
  6760.000000   2691600   2691061   2690428   2689770   2689145  
  6750.000000   2688584   2688082   2687614   2687155   2686688  
  6740.000000   2686208   2685707   2685162   2684536   2683789  
  6730.000000   2682906   2681917   2680907   2679990   2679276  
  6720.000000   2678820   2678609   2678547   2678511   2678374  
  6710.000000   2678066   2677576   2676949   2676245   2675513  
  6700.000000   2674766   2673977   2673103   2672108   2670978  
  6690.000000   2669733   2668409   2667063   2665743   2664504  
  6680.000000   2663385   2662424   2661629   2660987   2660432  
  6670.000000   2659873   2659193   2658299   2657140   2655731  
  6660.000000   2654140   2652471   2650814   2649227   2647717  
  6650.000000   2646254   2644792   2643302   2641777   2640243  
  6640.000000   2638726   2637257   2635837   2634458   2633099  
  6630.000000   2631744   2630383   2629009   2627613   2626174  
  6620.000000   2624664   2623057   2621346   2619550   2617716  
  6610.000000   2615902   2614156   2612502   2610926   2609389  
  6600.000000   2607841   2606247   2604590   2602880   2601141  
  6590.000000   2599400   2597679   2595987   2594328   2592700  
  6580.000000   2591100   2589519   2587947   2586366   2584761  
  6570.000000   2583126   2581467   2579811   2578188   2576623  
  6560.000000   2575124   2573673   2572233   2570759   2569220  
  6550.000000   2567605   2565932   2564230   2562539   2560885  
  6540.000000   2559287   2557753   2556291   2554908   2553615  
  6530.000000   2552411   2551284   2550206   2549142   2548060  
  6520.000000   2546945   2545804   2544657   2543525   2542414  
  6510.000000   2541309   2540177   2538982   2537708   2536364  
  6500.000000   2534990   2533639   2532356   2531160   2530039  
  6490.000000   2528957   2527870   2526742   2525563   2524342  
  6480.000000   2523103   2521869   2520657   2519474   2518321  
  6470.000000   2517202   2516127   2515108   2514152   2513253  
  6460.000000   2512391   2511526   2510619   2509631   2508546  
  6450.000000   2507364   2506108   2504813   2503518   2502263  
  6440.000000   2501077   2499981   2498984   2498080   2497255  
  6430.000000   2496486   2495748   2495021   2494293   2493559  
  6420.000000   2492826   2492095   2491378   2490675   2489993  
  6410.000000   2489329   2488688   2488070   2487474   2486898  
  6400.000000   2486340   2485802   2485296   2484838   2484449  
  6390.000000   2484141   2483909   2483731   2483566   2483368  
  6380.000000   2483102   2482754   2482333   2481865   2481377  
  6370.000000   2480888   2480393   2479883   2479342   2478776  
  6360.000000   2478203   2477661   2477178   2476768   2476410  
  6350.000000   2476060   2475665   2475183   2474596   2473914  
  6340.000000   2473162   2472366   2471537   2470673   2469765  
  6330.000000   2468814   2467835   2466872   2465967   2465159  
  6320.000000   2464450   2463819   2463209   2462565   2461835  
  6310.000000   2460999   2460052   2459010   2457885   2456684  
  6300.000000   2455408   2454060   2452649   2451199   2449735  
  6290.000000   2448284   2446851   2445433   2444011   2442575  
  6280.000000   2441115   2439643   2438166   2436691   2435205  
  6270.000000   2433682   2432085   2430391   2428588   2426693  
  6260.000000   2424733   2422742   2420738   2418727   2416702  
  6250.000000   2414662   2412619   2410601   2408646   2406782  
  6240.000000   2405012   2403317   2401651   2399968   2398233  
  6230.000000   2396440   2394600   2392742   2390890   2389056  
  6220.000000   2387239   2385430   2383622   2381812   2380001  
  6210.000000   2378187   2376360   2374501   2372588   2370614  
  6200.000000   2368591   2366560   2364573   2362682   2360915  
  6190.000000   2359271   2357719   2356219   2354734   2353243  
  6180.000000   2351749   2350261   2348792   2347336   2345879  
  6170.000000   2344396   2342873   2341310   2339730   2338164  
  6160.000000   2336645   2335193   2333808   2332474   2331167  
  6150.000000   2329862   2328540   2327192   2325812   2324397  
  6140.000000   2322947   2321467   2319969   2318471   2316994  
  6130.000000   2315553   2314156   2312794   2311452   2310113  
  6120.000000   2308770   2307429   2306108   2304826   2303603  
  6110.000000   2302438   2301325   2300245   2299187   2298144  
  6100.000000   2297127   2296150   2295234   2294390   2293627  
  6090.000000   2292940   2292329   2291781   2291297   2290862  
  6080.000000   2290471   2290106   2289757   2289408   2289064  
  6070.000000   2288729   2288425   2288164   2287969   2287836  
  6060.000000   2287772   2287762   2287808   2287905   2288070  
  6050.000000   2288310   2288648   2289091   2289655   2290337  
  6040.000000   2291144   2292068   2293114   2294268   2295531  
  6030.000000   2296886   2298329   2299845   2301435   2303088  
  6020.000000   2304805   2306569   2308376   2310204   2312050  
  6010.000000   2313899   2315757   2317620   2319498   2321382  
  6000.000000   2323276   2325167   2327067   2328984   2330955  
  5990.000000   2333009   2335188   2337505   2339969   2342556  
  5980.000000   2345250   2348022   2350869   2353791   2356812  
  5970.000000   2359939   2363184   2366527   2369952   2373423  
  5960.000000   2376924   2380434   2383961   2387501   2391065  
  5950.000000   2394644   2398237   2401829   2405423   2409022  
  5940.000000   2412644   2416309   2420035   2423834   2427706  
  5930.000000   2431644   2435635   2439662   2443699   2447716  
  5920.000000   2451672   2455522   2459222   2462741   2466067  
  5910.000000   2469210   2472199   2475074   2477871   2480626  
  5900.000000   2483360   2486093   2488838   2491617   2494438  
  5890.000000   2497316   2500241   2503205   2506176   2509133  
  5880.000000   2512046   2514899   2517679   2520371   2522961  
  5870.000000   2525430   2527763   2529956   2532024   2534000  
  5860.000000   2535931   2537868   2539852   2541908   2544043  
  5850.000000   2546257   2548541   2550894   2553312   2555795  
  5840.000000   2558337   2560924   2563542   2566172   2568805  
  5830.000000   2571434   2574057   2576668   2579251   2581784  
  5820.000000   2584240   2586603   2588864   2591042   2593157  
  5810.000000   2595240   2597304   2599356   2601372   2603342  
  5800.000000   2605232   2607048   2608772   2610429   2612008  
  5790.000000   2613520   2614933   2616231   2617352   2618251  
  5780.000000   2618844   2619069   2618844   2618133   2616920  
  5770.000000   2615260   2613244   2611018   2608720   2606488  
  5760.000000   2604394   2602480   2600732   2599132   2597657  
  5750.000000   2596311   2595106   2594062   2593179   2592435  
  5740.000000   2591785   2591172   2590556   2589909   2589242  
  5730.000000   2588569   2587921   2587308   2586737   2586196  
  5720.000000   2585680   2585185   2584723   2584303   2583940  
  5710.000000   2583633   2583376   2583155   2582956   2582772  
  5700.000000   2582598   2582434   2582271   2582102   2581911  
  5690.000000   2581696   2581461   2581231   2581028   2580878  
  5680.000000   2580776   2580704   2580610   2580440   2580129  
  5670.000000   2579638   2578933   2578007   2576856   2575499  
  5660.000000   2573955   2572266   2570483   2568671   2566887  
  5650.000000   2565180   2563560   2562022   2560529   2559052  
  5640.000000   2557566   2556071   2554585   2553133   2551735  
  5630.000000   2550400   2549125   2547899   2546720   2545587  
  5620.000000   2544509   2543488   2542520   2541582   2540650  
  5610.000000   2539703   2538737   2537767   2536824   2535940  
  5600.000000   2535133   2534395   2533700   2533008   2532285  
  5590.000000   2531512   2530685   2529818   2528921   2528000  
  5580.000000   2527050   2526064   2525032   2523959   2522851  
  5570.000000   2521720   2520568   2519389   2518166   2516885  
  5560.000000   2515540   2514144   2512721   2511306   2509928  
  5550.000000   2508604   2507334   2506112   2504924   2503762  
  5540.000000   2502623   2501505   2500406   2499315   2498221  
  5530.000000   2497114   2495986   2494839   2493680   2492514  
  5520.000000   2491339   2490150   2488937   2487700   2486442  
  5510.000000   2485183   2483937   2482718   2481518   2480322  
  5500.000000   2479104   2477849   2476554   2475240   2473931  
  5490.000000   2472653   2471408   2470180   2468931   2467628  
  5480.000000   2466240   2464768   2463219   2461620   2459984  
  5470.000000   2458318   2456611   2454857   2453049   2451196  
  5460.000000   2449311   2447413   2445504   2443580   2441626  
  5450.000000   2439630   2437589   2435519   2433445   2431395  
  5440.000000   2429391   2427441   2425551   2423724   2421977  
  5430.000000   2420326   2418790   2417358   2416013   2414702  
  5420.000000   2413395   2412063   2410736   2409460   2408323  
  5410.000000   2407384   2406686   2406208   2405916   2405748  
  5400.000000   2405679   2405690   2405811   2406055   2406451  
  5390.000000   2406979   2407632   2408366   2409188   2410094  
  5380.000000   2411139   2412347   2413771   2415398   2417233  
  5370.000000   2419226   2421379   2423659   2426110   2428730  
  5360.000000   2431581   2434655   2438008   2441625   2445578  
  5350.000000   2449871   2454596   2459754   2465417   2471540  
  5340.000000   2478159   2485202   2492720   2500662   2509103  
  5330.000000   2517996   2527407   2537263   2547620   2558420  
  5320.000000   2569768   2581666   2594275   2607611   2621820  
  5310.000000   2636853   2652781   2669490   2687017   2705261  
  5300.000000   2724298   2744086   2764758   2786310   2808879  
  5290.000000   2832434   2857032   2882542   2908899   2935896  
  5280.000000   2963445   2991408   3019823   3048713   3078220  
  5270.000000   3108397   3139275   3170724   3202538   3234450  
  5260.000000   3266227   3297747   3328985   3360038   3390972  
  5250.000000   3421847   3452547   3482935   3512724   3541759  
  5240.000000   3569848   3597047   3623361   3648990   3673967  
  5230.000000   3698429   3722277   3745506   3767911   3789466  
  5220.000000   3810020   3829659   3848357   3866300   3883503  
  5210.000000   3900122   3916082   3931414   3945928   3959602  
  5200.000000   3972271   3984016   3994806   4004832   4014116  
  5190.000000   4022816   4030876   4038348   4045102   4051168  
  5180.000000   4056452   4061046   4064916   4068179   4070794  
  5170.000000   4072841   4074259   4075122   4075398   4075192  
  5160.000000   4074495   4073400   4071862   4069923   4067509  
  5150.000000   4064653   4061317   4057580   4053444   4048999  
  5140.000000   4044236   4039209   4033889   4028316   4022476  
  5130.000000   4016427   4010175   4003773   3997213   3990521  
  5120.000000   3983675   3976699   3969592   3962399   3955139  
  5110.000000   3947854   3940550   3933246   3925934   3918629  
  5100.000000   3911337   3904086   3896886   3889747   3882653  
  5090.000000   3875584   3868511   3861420   3854310   3847203  
  5080.000000   3840122   3833093   3826120   3819196   3812287  
  5070.000000   3805367   3798401   3791376   3784277   3777107  
  5060.000000   3769858   3762532   3755121   3747633   3740071  
  5050.000000   3732457   3724802   3717126   3709423   3701690  
  5040.000000   3693906   3686059   3678142   3670166   3662150  
  5030.000000   3654126   3646121   3638156   3630244   3622388  
  5020.000000   3614593   3606859   3599202   3591628   3584160  
  5010.000000   3576803   3569574   3562463   3555481   3548613  
  5000.000000   3541876   3535265   3528816   3522538   3516479  
  4990.000000   3510649   3505087   3499783   3494756   3489968  
  4980.000000   3485424   3481079   3476951   3473016   3469323  
  4970.000000   3465873   3462735   3459911   3457453   3455335  
  4960.000000   3453580   3452135   3451016   3450176   3449651  
  4950.000000   3449412   3449515   3449943   3450752   3451920  
  4940.000000   3453496   3455451   3457829   3460594   3463784  
  4930.000000   3467349   3471313   3475618   3480278   3485240  
  4920.000000   3490525   3496092   3501976   3508150   3514654  
  4910.000000   3521469   3528633   3536127   3543971   3552132  
  4900.000000   3560595   3569304   3578216   3587267   3596413  
  4890.000000   3605610   3614823   3624027   3633181   3642253  
  4880.000000   3651179   3659919   3668402   3676601   3684461  
  4870.000000   3691975   3699098   3705833   3712129   3717991  
  4860.000000   3723370   3728290   3732729   3736741   3740335  
  4850.000000   3743589   3746525   3749220   3751686   3753982  
  4840.000000   3756103   3758086   3759917   3761626   3763211  
  4830.000000   3764714   3766153   3767578   3769011   3770486  
  4820.000000   3772002   3773559   3775132   3776702   3778243  
  4810.000000   3779741   3781186   3782580   3783926   3785233  
  4800.000000   3786512   3787778   3789049   3790346   3791689  
  4790.000000   3793093   3794561   3796090   3797662   3799260  
  4780.000000   3800865   3802468   3804062   3805648   3807222  
  4770.000000   3808780   3810303   3811773   3813162   3814456  
  4760.000000   3815638   3816710   3817675   3818548   3819331  
  4750.000000   3820035   3820645   3821159   3821550   3821811  
  4740.000000   3821927   3821909   3821766   3821531   3821227  
  4730.000000   3820888   3820526   3820149   3819744   3819298  
  4720.000000   3818791   3818220   3817588   3816917   3816235  
  4710.000000   3815572   3814955   3814395   3813903   3813473  
  4700.000000   3813111   3812817   3812608   3812502   3812530  
  4690.000000   3812714   3813079   3813631   3814374   3815282  
  4680.000000   3816328   3817456   3818618   3819747   3820805  
  4670.000000   3821749   3822583   3823317   3824000   3824675  
  4660.000000   3825405   3826229   3827193   3828314   3829613  
  4650.000000   3831088   3832743   3834568   3836551   3838670  
  4640.000000   3840902   3843224   3845616   3848065   3850564  
  4630.000000   3853104   3855673   3858251   3860805   3863298  
  4620.000000   3865685   3867931   3869998   3871866   3873510  
  4610.000000   3874922   3876086   3877012   3877703   3878198  
  4600.000000   3878524   3878743   3878884   3878994   3879071  
  4590.000000   3879126   3879122   3879044   3878847   3878517  
  4580.000000   3878021   3877355   3876499   3875460   3874235  
  4570.000000   3872850   3871328   3869715   3868046   3866363  
  4560.000000   3864684   3863024   3861372   3859720   3858051  
  4550.000000   3856359   3854639   3852891   3851118   3849316  
  4540.000000   3847489   3845635   3843771   3841914   3840102  
  4530.000000   3838361   3836732   3835221   3833849   3832598  
  4520.000000   3831481   3830474   3829611   3828881   3828343  
  4510.000000   3827995   3827910   3828089   3828619   3829508  
  4500.000000   3830858   3832679   3835071   3838025   3841619  
  4490.000000   3845820   3850693   3856194   3862391   3869241  
  4480.000000   3876805   3885027   3893944   3903479   3913646  
  4470.000000   3924359   3935627   3947373   3959601   3972231  
  4460.000000   3985251   3998566   4012141   4025878   4039739  
  4450.000000   4053648   4067590   4081533   4095487   4109451  
  4440.000000   4123437   4137452   4151483   4165526   4179540  
  4430.000000   4193513   4207385   4221146   4234723   4248104  
  4420.000000   4261200   4273991   4286371   4298315   4309710  
  4410.000000   4320530   4330665   4340100   4348745   4356611  
  4400.000000   4363653   4369933   4375464   4380363   4384692  
  4390.000000   4388600   4392170   4395544   4398791   4402021  
  4380.000000   4405267   4408590   4411991   4415500   4419113  
  4370.000000   4422857   4426743   4430805   4435055   4439509  
  4360.000000   4444154   4448972   4453918   4458962   4464043  
  4350.000000   4469146   4474212   4479250   4484208   4489115  
  4340.000000   4493928   4498667   4503248   4507595   4511489  
  4330.000000   4514680   4516809   4517552   4516625   4513933  
  4320.000000   4509565   4503860   4497302   4490488   4483953  
  4310.000000   4478145   4473295   4469483   4466605   4464505  
  4300.000000   4462976   4461858   4461030   4460418   4459991  
  4290.000000   4459718   4459604   4459630   4459821   4460179  
  4280.000000   4460738   4461507   4462493   4463686   4465047  
  4270.000000   4466539   4468092   4469634   4471046   4472185  
  4260.000000   4472858   4472866   4472014   4470181   4467330  
  4250.000000   4463559   4459063   4454134   4449065   4444151  
  4240.000000   4439584   4435495   4431894   4428747   4425950  
  4230.000000   4423410   4421019   4418696   4416376   4414007  
  4220.000000   4411569   4409044   4406469   4403867   4401321  
  4210.000000   4398884   4396644   4394635   4392905   4391444  
  4200.000000   4390252   4389291   4388548   4387985   4387604  
  4190.000000   4387376   4387320   4387408   4387665   4388062  
  4180.000000   4388635   4389361   4390294   4391427   4392834  
  4170.000000   4394522   4396574   4399000   4401877   4405197  
  4160.000000   4409021   4413318   4418127   4423399   4429164  
  4150.000000   4435365   4442028   4449097   4456600   4464487  
  4140.000000   4472799   4481492   4490614   4500121   4510054  
  4130.000000   4520359   4531063   4542112   4553539   4565313  
  4120.000000   4577489   4590061   4603093   4616584   4630580  
  4110.000000   4645055   4660025   4675437   4691270   4707444  
  4100.000000   4723909   4740570   4757372   4774243   4791158  
  4090.000000   4808099   4825077   4842108   4859206   4876389  
  4080.000000   4893641   4910968   4928325   4945699   4963009  
  4070.000000   4980212   4997187   5013874   5030149   5045993  
  4060.000000   5061331   5076206   5090577   5104504   5117922  
  4050.000000   5130871   5143266   5155155   5166467   5177275  
  4040.000000   5187505   5197208   5206268   5214697   5222357  
  4030.000000   5229273   5235344   5240629   5245075   5248754  
  4020.000000   5251604   5253720   5255118   5255915   5256100  
  4010.000000   5255824   5255160   5254114   5252442   5250168  
  4000.000000   5247581  
##END= 
