##TITLE= Sample 017 By ssteindl date Montag, November 19 2018
##JCAMP-DX= 4.24
##DATA TYPE= INFRARED SPECTRUM
##ORIGIN= Exported PE Spectrum Data File
##OWNER= Sandra Steindl
##DATE= 18/11/19
##TIME= 16:28:14.00
##SPECTROMETER/DATA SYSTEM= PERKIN-ELMER Frontier FT-IR/NIR IR
##INSTRUMENT PARAMETERS=
  APODIZATION=stark
  DETECTOR=INGAAS
##RESOLUTION= 16.000000
##DELTAX= -2.000000
##XUNITS= 1/CM
##YUNITS= A
##XFACTOR= 1.00
##YFACTOR= 0.00000011920928955078
##FIRSTX= 10000.00
##LASTX= 4000.00
##NPOINTS= 3001
##FIRSTY= 0.128190
##MAXY= 0.541372
##MINY= 0.108169
##XYDATA= (X++(Y..Y))
 10000.000000   1075336   1076687   1079253   1084400   1091586  
  9990.000000   1099242   1106196   1112076   1116523   1119267  
  9980.000000   1120415   1120365   1119364   1117396   1114321  
  9970.000000   1109906   1103961   1096492   1087836   1078677  
  9960.000000   1069829   1062158   1056219   1052307   1050363  
  9950.000000   1050181   1051539   1054250   1058149   1062866  
  9940.000000   1067752   1071786   1073892   1073232   1069732  
  9930.000000   1064213   1058330   1054053   1052999   1055837  
  9920.000000   1062025   1069962   1077636   1083241   1085856  
  9910.000000   1085474   1082841   1078881   1074262   1069222  
  9900.000000   1063741   1057993   1052680   1049132   1048891  
  9890.000000   1053164   1062061   1074445   1087968   1099913  
  9880.000000   1107944   1110897   1109037   1103751   1097020  
  9870.000000   1090558   1085447   1081870   1079413   1077409  
  9860.000000   1075246   1072615   1069384   1065714   1061822  
  9850.000000   1058198   1055414   1054195   1055097   1058267  
  9840.000000   1063190   1068586   1072752   1073989   1071361  
  9830.000000   1065017   1056305   1047241   1039824   1035301  
  9820.000000   1033831   1034574   1036210   1037561   1038057  
  9810.000000   1037869   1037623   1037978   1039179   1040944  
  9800.000000   1042643   1043648   1043729   1043087   1042305  
  9790.000000   1041907   1042155   1042861   1043547   1043747  
  9780.000000   1043229   1042199   1041088   1040417   1040452  
  9770.000000   1041195   1042398   1043802   1045266   1046766  
  9760.000000   1048266   1049464   1049770   1048337   1044479  
  9750.000000   1037983   1029444   1020176   1011891   1006129  
  9740.000000   1003736   1004646   1007959   1012435   1016938  
  9730.000000   1020876   1024208   1027287   1030473   1033853  
  9720.000000   1037181   1039959   1041771   1042403   1042010  
  9710.000000   1040896   1039394   1037643   1035578   1033074  
  9700.000000   1030079   1026825   1023741   1021381   1020113  
  9690.000000   1020017   1020770   1021847   1022677   1022902  
  9680.000000   1022443   1021454   1020217   1018941   1017760  
  9670.000000   1016658   1015603   1014544   1013464   1012337  
  9660.000000   1011122   1009793   1008389   1007113   1006314  
  9650.000000   1006434   1007809   1010473   1014037   1017710  
  9640.000000   1020544   1021730   1020916   1018321   1014658  
  9630.000000   1010865   1007769   1005860   1005190   1005510  
  9620.000000   1006409   1007553   1008677   1009636   1010250  
  9610.000000   1010328   1009670   1008179   1005967   1003321  
  9600.000000   1000652   0998238   0996122   0994024   0991500  
  9590.000000   0988202   0984123   0979752   0975935   0973602  
  9580.000000   0973373   0975295   0978812   0982929   0986602  
  9570.000000   0989006   0989798   0989059   0987211   0984786  
  9560.000000   0982295   0980171   0978780   0978464   0979487  
  9550.000000   0981958   0985686   0990149   0994553   0998037  
  9540.000000   0999922   0999897   0998091   0994959   0991102  
  9530.000000   0987052   0983154   0979616   0976568   0974236  
  9520.000000   0972886   0972812   0974089   0976507   0979478  
  9510.000000   0982201   0983868   0983892   0982107   0978710  
  9500.000000   0974236   0969275   0964393   0959972   0956279  
  9490.000000   0953498   0951793   0951299   0952038   0953892  
  9480.000000   0956550   0959612   0962654   0965342   0967474  
  9470.000000   0968964   0969848   0970170   0970039   0969529  
  9460.000000   0968787   0967965   0967254   0966790   0966604  
  9450.000000   0966611   0966637   0966558   0966353   0966181  
  9440.000000   0966280   0966874   0968002   0969493   0970978  
  9430.000000   0972073   0972507   0972278   0971601   0970844  
  9420.000000   0970315   0970151   0970243   0970308   0970044  
  9410.000000   0969238   0967853   0965960   0963654   0960957  
  9400.000000   0957820   0954193   0950167   0946061   0942421  
  9390.000000   0939873   0938889   0939598   0941674   0944478  
  9380.000000   0947237   0949359   0950586   0951064   0951205  
  9370.000000   0951451   0952067   0952981   0953881   0954303  
  9360.000000   0953904   0952511   0950223   0947283   0943994  
  9350.000000   0940624   0937349   0934336   0931756   0929865  
  9340.000000   0928952   0929270   0930912   0933699   0937154  
  9330.000000   0940576   0943234   0944581   0944425   0942966  
  9320.000000   0940745   0938477   0936884   0936482   0937437  
  9310.000000   0939525   0942211   0944811   0946683   0947375  
  9300.000000   0946709   0944795   0941973   0938704   0935460  
  9290.000000   0932613   0930424   0929027   0928450   0928650  
  9280.000000   0929484   0930789   0932339   0933954   0935491  
  9270.000000   0936904   0938225   0939504   0940758   0941835  
  9260.000000   0942462   0942263   0940969   0938513   0935134  
  9250.000000   0931360   0927865   0925314   0924100   0924296  
  9240.000000   0925604   0927547   0929599   0931373   0932658  
  9230.000000   0933412   0933671   0933469   0932787   0931566  
  9220.000000   0929806   0927609   0925237   0923009   0921227  
  9210.000000   0920033   0919387   0919063   0918760   0918187  
  9200.000000   0917179   0915746   0914072   0912420   0911065  
  9190.000000   0910229   0910096   0910771   0912310   0914668  
  9180.000000   0917737   0921290   0924988   0928422   0931157  
  9170.000000   0932938   0933714   0933733   0933439   0933416  
  9160.000000   0934215   0936123   0939008   0942296   0945111  
  9150.000000   0946485   0945605   0942099   0936192   0928725  
  9140.000000   0920931   0914151   0909447   0907385   0907863  
  9130.000000   0910217   0913423   0916469   0918620   0919581  
  9120.000000   0919465   0918670   0917713   0916984   0916684  
  9110.000000   0916730   0916953   0917110   0917059   0916732  
  9100.000000   0916177   0915536   0914993   0914779   0915082  
  9090.000000   0916047   0917691   0919903   0922411   0924841  
  9080.000000   0926794   0927971   0928262   0927785   0926835  
  9070.000000   0925782   0924935   0924438   0924230   0924094  
  9060.000000   0923771   0923056   0921893   0920372   0918705  
  9050.000000   0917122   0915790   0914781   0914076   0913618  
  9040.000000   0913351   0913286   0913494   0914104   0915228  
  9030.000000   0916942   0919214   0921911   0924779   0927489  
  9020.000000   0929695   0931096   0931511   0930900   0929389  
  9010.000000   0927220   0924724   0922198   0919888   0917911  
  9000.000000   0916296   0914976   0913833   0912749   0911620  
  8990.000000   0910438   0909260   0908281   0907768   0908057  
  8980.000000   0909431   0912021   0915708   0920072   0924472  
  8970.000000   0928146   0930436   0930939   0929663   0926995  
  8960.000000   0923607   0920233   0917484   0915685   0914854  
  8950.000000   0914746   0914996   0915241   0915226   0914843  
  8940.000000   0914087   0913051   0911846   0910640   0909615  
  8930.000000   0909002   0909037   0909920   0911747   0914427  
  8920.000000   0917677   0921037   0923976   0925966   0926633  
  8910.000000   0925820   0923682   0920605   0917159   0913956  
  8900.000000   0911544   0910283   0910258   0911309   0913084  
  8890.000000   0915175   0917189   0918882   0920160   0921075  
  8880.000000   0921727   0922190   0922496   0922592   0922458  
  8870.000000   0922079   0921563   0921044   0920681   0920558  
  8860.000000   0920669   0920923   0921214   0921504   0921878  
  8850.000000   0922525   0923654   0925384   0927662   0930260  
  8840.000000   0932844   0935112   0936904   0938278   0939469  
  8830.000000   0940777   0942407   0944380   0946507   0948464  
  8820.000000   0949937   0950720   0950821   0950376   0949606  
  8810.000000   0948666   0947625   0946453   0945113   0943657  
  8800.000000   0942282   0941346   0941229   0942268   0944567  
  8790.000000   0948036   0952338   0957045   0961699   0965930  
  8780.000000   0969500   0972244   0974089   0974947   0974803  
  8770.000000   0973653   0971630   0968950   0965972   0963108  
  8760.000000   0960748   0959210   0958633   0959075   0960445  
  8750.000000   0962663   0965597   0969141   0973145   0977392  
  8740.000000   0981577   0985275   0988065   0989552   0989565  
  8730.000000   0988132   0985581   0982410   0979243   0976670  
  8720.000000   0975132   0974862   0975831   0977862   0980623  
  8710.000000   0983790   0987027   0990093   0992812   0995102  
  8700.000000   0996964   0998426   0999582   1000476   1001162  
  8690.000000   1001591   1001690   1001346   1000507   0999254  
  8680.000000   0997814   0996596   0996038   0996559   0998356  
  8670.000000   1001384   1005305   1009595   1013678   1017040  
  8660.000000   1019387   1020608   1020811   1020174   1018943  
  8650.000000   1017347   1015658   1014161   1013196   1013095  
  8640.000000   1014140   1016447   1019903   1024165   1028724  
  8630.000000   1033056   1036739   1039585   1041662   1043263  
  8620.000000   1044800   1046681   1049199   1052447   1056300  
  8610.000000   1060444   1064455   1067878   1070322   1071543  
  8600.000000   1071515   1070427   1068640   1066613   1064789  
  8590.000000   1063510   1062935   1063085   1063873   1065223  
  8580.000000   1067069   1069416   1072250   1075513   1079015  
  8570.000000   1082449   1085458   1087716   1089070   1089553  
  8560.000000   1089409   1088970   1088569   1088435   1088658  
  8550.000000   1089234   1090103   1091232   1092607   1094235  
  8540.000000   1096068   1097962   1099671   1100909   1101466  
  8530.000000   1101282   1100512   1099480   1098604   1098253  
  8520.000000   1098637   1099772   1101510   1103622   1105869  
  8510.000000   1108077   1110149   1112031   1113679   1115018  
  8500.000000   1115991   1116549   1116737   1116677   1116590  
  8490.000000   1116707   1117222   1118227   1119705   1121563  
  8480.000000   1123668   1125910   1128218   1130562   1132913  
  8470.000000   1135216   1137377   1139289   1140869   1142103  
  8460.000000   1143077   1143948   1144912   1146122   1147644  
  8450.000000   1149416   1151266   1152972   1154313   1155170  
  8440.000000   1155530   1155527   1155384   1155383   1155766  
  8430.000000   1156704   1158218   1160204   1162416   1164548  
  8420.000000   1166281   1167380   1167741   1167426   1166630  
  8410.000000   1165632   1164712   1164064   1163750   1163696  
  8400.000000   1163737   1163695   1163440   1162962   1162356  
  8390.000000   1161809   1161496   1161551   1161994   1162747  
  8380.000000   1163646   1164508   1165186   1165597   1165740  
  8370.000000   1165653   1165392   1164990   1164451   1163756  
  8360.000000   1162890   1161870   1160772   1159716   1158840  
  8350.000000   1158262   1158041   1158164   1158531   1159004  
  8340.000000   1159434   1159726   1159851   1159871   1159897  
  8330.000000   1160063   1160459   1161100   1161899   1162684  
  8320.000000   1163260   1163445   1163147   1162361   1161178  
  8310.000000   1159734   1158162   1156557   1154954   1153369  
  8300.000000   1151817   1150381   1149193   1148435   1148242  
  8290.000000   1148671   1149618   1150858   1152069   1152931  
  8280.000000   1153219   1152849   1151905   1150572   1149082  
  8270.000000   1147622   1146307   1145158   1144135   1143177  
  8260.000000   1142237   1141310   1140411   1139579   1138831  
  8250.000000   1138186   1137649   1137230   1136934   1136742  
  8240.000000   1136608   1136435   1136102   1135484   1134500  
  8230.000000   1133160   1131579   1129969   1128565   1127570  
  8220.000000   1127070   1127026   1127261   1127541   1127616  
  8210.000000   1127309   1126540   1125343   1123820   1122105  
  8200.000000   1120313   1118518   1116748   1114995   1113243  
  8190.000000   1111484   1109727   1108009   1106358   1104809  
  8180.000000   1103364   1102016   1100735   1099495   1098276  
  8170.000000   1097072   1095890   1094733   1093600   1092458  
  8160.000000   1091259   1089932   1088423   1086689   1084743  
  8150.000000   1082626   1080432   1078264   1076231   1074422  
  8140.000000   1072900   1071700   1070832   1070288   1070034  
  8130.000000   1070021   1070177   1070420   1070663   1070826  
  8120.000000   1070840   1070652   1070221   1069514   1068515  
  8110.000000   1067217   1065655   1063890   1062028   1060181  
  8100.000000   1058450   1056890   1055493   1054198   1052910  
  8090.000000   1051566   1050154   1048752   1047497   1046559  
  8080.000000   1046070   1046081   1046539   1047285   1048100  
  8070.000000   1048740   1049003   1048743   1047914   1046548  
  8060.000000   1044775   1042782   1040802   1039066   1037759  
  8050.000000   1036978   1036702   1036807   1037085   1037314  
  8040.000000   1037314   1036996   1036368   1035525   1034594  
  8030.000000   1033692   1032899   1032237   1031700   1031261  
  8020.000000   1030899   1030593   1030319   1030031   1029662  
  8010.000000   1029144   1028428   1027515   1026470   1025406  
  8000.000000   1024459   1023744   1023329   1023216   1023351  
  7990.000000   1023639   1023979   1024273   1024442   1024428  
  7980.000000   1024197   1023752   1023134   1022434   1021775  
  7970.000000   1021293   1021089   1021202   1021584   1022106  
  7960.000000   1022588   1022845   1022739   1022199   1021243  
  7950.000000   1019952   1018464   1016929   1015503   1014308  
  7940.000000   1013440   1012937   1012791   1012937   1013282  
  7930.000000   1013722   1014177   1014608   1015029   1015490  
  7920.000000   1016053   1016762   1017627   1018618   1019685  
  7910.000000   1020771   1021828   1022818   1023699   1024416  
  7900.000000   1024902   1025085   1024927   1024438   1023694  
  7890.000000   1022821   1021956   1021217   1020657   1020276  
  7880.000000   1020026   1019864   1019768   1019759   1019877  
  7870.000000   1020146   1020544   1020987   1021348   1021502  
  7860.000000   1021386   1021030   1020563   1020179   1020072  
  7850.000000   1020375   1021111   1022190   1023431   1024617  
  7840.000000   1025552   1026098   1026201   1025879   1025214  
  7830.000000   1024310   1023289   1022258   1021314   1020524  
  7820.000000   1019933   1019560   1019394   1019418   1019593  
  7810.000000   1019892   1020281   1020739   1021245   1021779  
  7800.000000   1022317   1022827   1023273   1023609   1023794  
  7790.000000   1023790   1023578   1023165   1022583   1021900  
  7780.000000   1021190   1020537   1019988   1019564   1019236  
  7770.000000   1018951   1018644   1018267   1017799   1017249  
  7760.000000   1016639   1015990   1015304   1014568   1013766  
  7750.000000   1012909   1012049   1011282   1010725   1010482  
  7740.000000   1010600   1011044   1011693   1012375   1012909  
  7730.000000   1013157   1013060   1012640   1011991   1011235  
  7720.000000   1010488   1009827   1009286   1008855   1008503  
  7710.000000   1008196   1007907   1007628   1007362   1007123  
  7700.000000   1006923   1006768   1006659   1006584   1006526  
  7690.000000   1006463   1006375   1006249   1006087   1005904  
  7680.000000   1005731   1005597   1005530   1005539   1005616  
  7670.000000   1005736   1005872   1005994   1006083   1006129  
  7660.000000   1006135   1006111   1006072   1006045   1006054  
  7650.000000   1006130   1006295   1006557   1006901   1007283  
  7640.000000   1007640   1007897   1007991   1007885   1007578  
  7630.000000   1007108   1006540   1005951   1005412   1004979  
  7620.000000   1004688   1004553   1004572   1004727   1004983  
  7610.000000   1005291   1005596   1005844   1006003   1006073  
  7600.000000   1006095   1006135   1006276   1006577   1007070  
  7590.000000   1007721   1008460   1009176   1009772   1010179  
  7580.000000   1010391   1010459   1010485   1010589   1010886  
  7570.000000   1011448   1012300   1013398   1014649   1015930  
  7560.000000   1017111   1018096   1018831   1019334   1019684  
  7550.000000   1020005   1020439   1021085   1021982   1023068  
  7540.000000   1024209   1025214   1025898   1026131   1025888  
  7530.000000   1025262   1024455   1023724   1023325   1023440  
  7520.000000   1024146   1025391   1027019   1028809   1030538  
  7510.000000   1032032   1033214   1034101   1034803   1035471  
  7500.000000   1036268   1037300   1038610   1040145   1041801  
  7490.000000   1043443   1044960   1046285   1047422   1048426  
  7480.000000   1049386   1050377   1051445   1052580   1053742  
  7470.000000   1054868   1055922   1056902   1057858   1058872  
  7460.000000   1060037   1061435   1063106   1065046   1067205  
  7450.000000   1069503   1071845   1074133   1076284   1078227  
  7440.000000   1079932   1081397   1082667   1083807   1084906  
  7430.000000   1086040   1087269   1088614   1090065   1091594  
  7420.000000   1093170   1094785   1096456   1098216   1100098  
  7410.000000   1102112   1104238   1106418   1108580   1110656  
  7400.000000   1112618   1114472   1116268   1118077   1119967  
  7390.000000   1121983   1124131   1126383   1128685   1130972  
  7380.000000   1133186   1135278   1137224   1139015   1140658  
  7370.000000   1142170   1143580   1144929   1146261   1147628  
  7360.000000   1149077   1150651   1152368   1154229   1156202  
  7350.000000   1158237   1160261   1162202   1163994   1165601  
  7340.000000   1167019   1168278   1169435   1170559   1171715  
  7330.000000   1172955   1174313   1175800   1177407   1179110  
  7320.000000   1180866   1182631   1184351   1185980   1187489  
  7310.000000   1188872   1190155   1191385   1192622   1193916  
  7300.000000   1195296   1196760   1198285   1199840   1201404  
  7290.000000   1202970   1204549   1206156   1207791   1209437  
  7280.000000   1211060   1212626   1214120   1215558   1216994  
  7270.000000   1218494   1220115   1221870   1223725   1225597  
  7260.000000   1227393   1229035   1230494   1231790   1232995  
  7250.000000   1234187   1235439   1236780   1238212   1239702  
  7240.000000   1241221   1242742   1244276   1245839   1247474  
  7230.000000   1249208   1251081   1253105   1255304   1257673  
  7220.000000   1260209   1262878   1265649   1268477   1271344  
  7210.000000   1274248   1277236   1280366   1283705   1287270  
  7200.000000   1291032   1294892   1298724   1302397   1305841  
  7190.000000   1309046   1312088   1315076   1318135   1321336  
  7180.000000   1324696   1328165   1331666   1335115   1338474  
  7170.000000   1341739   1344953   1348165   1351425   1354753  
  7160.000000   1358156   1361621   1365151   1368751   1372451  
  7150.000000   1376267   1380217   1384282   1388436   1392625  
  7140.000000   1396817   1400982   1405141   1409319   1413579  
  7130.000000   1417962   1422519   1427259   1432188   1437276  
  7120.000000   1442498   1447812   1453200   1458641   1464146  
  7110.000000   1469717   1475377   1481122   1486955   1492846  
  7100.000000   1498773   1504692   1510584   1516430   1522238  
  7090.000000   1528029   1533840   1539711   1545686   1551790  
  7080.000000   1558029   1564375   1570766   1577109   1583302  
  7070.000000   1589252   1594908   1600276   1605425   1610466  
  7060.000000   1615525   1620706   1626068   1631609   1637282  
  7050.000000   1643012   1648723   1654365   1659906   1665345  
  7040.000000   1670686   1675940   1681114   1686225   1691299  
  7030.000000   1696378   1701507   1706724   1712035   1717414  
  7020.000000   1722789   1728080   1733196   1738089   1742740  
  7010.000000   1747186   1751484   1755715   1759942   1764214  
  7000.000000   1768535   1772888   1777218   1781468   1785579  
  6990.000000   1789522   1793291   1796925   1800473   1804004  
  6980.000000   1807553   1811139   1814731   1818293   1821772  
  6970.000000   1825156   1828450   1831698   1834929   1838164  
  6960.000000   1841367   1844471   1847382   1850024   1852359  
  6950.000000   1854413   1856255   1857988   1859695   1861444  
  6940.000000   1863257   1865145   1867093   1869108   1871189  
  6930.000000   1873343   1875546   1877760   1879917   1881951  
  6920.000000   1883809   1885478   1886981   1888366   1889685  
  6910.000000   1890975   1892244   1893486   1894684   1895839  
  6900.000000   1896964   1898093   1899253   1900463   1901710  
  6890.000000   1902965   1904179   1905321   1906371   1907342  
  6880.000000   1908263   1909174   1910108   1911087   1912111  
  6870.000000   1913167   1914224   1915248   1916201   1917059  
  6860.000000   1917807   1918456   1919040   1919615   1920240  
  6850.000000   1920973   1921838   1922833   1923916   1925024  
  6840.000000   1926086   1927048   1927876   1928569   1929150  
  6830.000000   1929655   1930116   1930559   1930991   1931408  
  6820.000000   1931790   1932126   1932407   1932646   1932864  
  6810.000000   1933103   1933391   1933757   1934194   1934680  
  6800.000000   1935167   1935607   1935957   1936199   1936332  
  6790.000000   1936375   1936349   1936268   1936138   1935958  
  6780.000000   1935736   1935494   1935263   1935088   1934996  
  6770.000000   1934997   1935075   1935194   1935320   1935431  
  6760.000000   1935529   1935628   1935744   1935875   1936000  
  6750.000000   1936086   1936110   1936077   1936032   1936044  
  6740.000000   1936186   1936495   1936960   1937515   1938061  
  6730.000000   1938506   1938796   1938934   1938974   1938997  
  6720.000000   1939080   1939266   1939560   1939935   1940353  
  6710.000000   1940782   1941202   1941604   1941976   1942304  
  6700.000000   1942559   1942721   1942773   1942722   1942583  
  6690.000000   1942380   1942126   1941822   1941457   1941025  
  6680.000000   1940525   1939986   1939441   1938930   1938467  
  6670.000000   1938049   1937640   1937202   1936698   1936122  
  6660.000000   1935484   1934820   1934153   1933503   1932859  
  6650.000000   1932207   1931527   1930814   1930076   1929334  
  6640.000000   1928604   1927889   1927169   1926415   1925592  
  6630.000000   1924682   1923684   1922624   1921535   1920456  
  6620.000000   1919414   1918425   1917487   1916588   1915701  
  6610.000000   1914802   1913856   1912837   1911722   1910507  
  6600.000000   1909198   1907823   1906411   1904991   1903577  
  6590.000000   1902173   1900769   1899355   1897926   1896491  
  6580.000000   1895068   1893679   1892340   1891058   1889829  
  6570.000000   1888640   1887475   1886317   1885148   1883948  
  6560.000000   1882697   1881381   1879996   1878552   1877082  
  6550.000000   1875624   1874218   1872882   1871608   1870367  
  6540.000000   1869115   1867819   1866469   1865085   1863704  
  6530.000000   1862371   1861112   1859927   1858791   1857666  
  6520.000000   1856522   1855344   1854143   1852944   1851775  
  6510.000000   1850654   1849583   1848547   1847527   1846500  
  6500.000000   1845456   1844385   1843288   1842164   1841015  
  6490.000000   1839850   1838679   1837523   1836403   1835336  
  6480.000000   1834325   1833362   1832419   1831468   1830475  
  6470.000000   1829418   1828281   1827058   1825745   1824345  
  6460.000000   1822865   1821320   1819739   1818160   1816627  
  6450.000000   1815182   1813853   1812654   1811581   1810615  
  6440.000000   1809731   1808897   1808083   1807254   1806388  
  6430.000000   1805465   1804491   1803486   1802494   1801564  
  6420.000000   1800745   1800059   1799509   1799065   1798691  
  6410.000000   1798345   1798009   1797676   1797358   1797062  
  6400.000000   1796795   1796542   1796287   1796009   1795710  
  6390.000000   1795401   1795115   1794881   1794724   1794648  
  6380.000000   1794638   1794668   1794708   1794736   1794741  
  6370.000000   1794720   1794677   1794612   1794524   1794411  
  6360.000000   1794267   1794086   1793862   1793586   1793246  
  6350.000000   1792836   1792352   1791812   1791243   1790684  
  6340.000000   1790169   1789716   1789313   1788926   1788499  
  6330.000000   1787985   1787346   1786579   1785702   1784757  
  6320.000000   1783788   1782839   1781937   1781100   1780334  
  6310.000000   1779636   1778991   1778380   1777766   1777117  
  6300.000000   1776396   1775586   1774684   1773708   1772682  
  6290.000000   1771632   1770570   1769494   1768391   1767252  
  6280.000000   1766071   1764861   1763635   1762412   1761194  
  6270.000000   1759973   1758726   1757432   1756080   1754676  
  6260.000000   1753243   1751816   1750423   1749082   1747793  
  6250.000000   1746539   1745295   1744035   1742737   1741389  
  6240.000000   1739990   1738550   1737088   1735632   1734210  
  6230.000000   1732842   1731534   1730269   1729019   1727747  
  6220.000000   1726432   1725071   1723695   1722352   1721092  
  6210.000000   1719942   1718899   1717924   1716960   1715949  
  6200.000000   1714864   1713712   1712538   1711396   1710338  
  6190.000000   1709387   1708539   1707761   1707015   1706268  
  6180.000000   1705503   1704716   1703911   1703094   1702262  
  6170.000000   1701413   1700543   1699659   1698771   1697893  
  6160.000000   1697032   1696181   1695318   1694414   1693447  
  6150.000000   1692409   1691313   1690189   1689079   1688014  
  6140.000000   1687012   1686072   1685176   1684301   1683431  
  6130.000000   1682560   1681698   1680858   1680058   1679305  
  6120.000000   1678598   1677923   1677264   1676604   1675935  
  6110.000000   1675258   1674586   1673936   1673330   1672782  
  6100.000000   1672298   1671872   1671494   1671146   1670819  
  6090.000000   1670500   1670192   1669892   1669606   1669328  
  6080.000000   1669061   1668798   1668547   1668319   1668143  
  6070.000000   1668042   1668053   1668187   1668456   1668843  
  6060.000000   1669331   1669885   1670485   1671106   1671747  
  6050.000000   1672404   1673100   1673846   1674679   1675617  
  6040.000000   1676694   1677916   1679298   1680828   1682498  
  6030.000000   1684280   1686164   1688124   1690157   1692245  
  6020.000000   1694389   1696568   1698778   1700996   1703226  
  6010.000000   1705456   1707701   1709964   1712269   1714622  
  6000.000000   1717048   1719551   1722160   1724881   1727741  
  5990.000000   1730738   1733879   1737137   1740499   1743932  
  5980.000000   1747437   1751010   1754683   1758479   1762434  
  5970.000000   1766551   1770834   1775245   1779762   1784345  
  5960.000000   1788984   1793658   1798373   1803112   1807875  
  5950.000000   1812638   1817396   1822145   1826906   1831712  
  5940.000000   1836607   1841630   1846802   1852125   1857572  
  5930.000000   1863105   1868672   1874224   1879706   1885072  
  5920.000000   1890272   1895264   1900011   1904495   1908715  
  5910.000000   1912692   1916456   1920051   1923509   1926876  
  5900.000000   1930181   1933473   1936790   1940190   1943700  
  5890.000000   1947353   1951125   1954984   1958855   1962671  
  5880.000000   1966352   1969846   1973112   1976129   1978890  
  5870.000000   1981403   1983688   1985786   1987752   1989659  
  5860.000000   1991571   1993545   1995602   1997746   1999946  
  5850.000000   2002177   2004408   2006631   2008843   2011055  
  5840.000000   2013269   2015484   2017694   2019893   2022087  
  5830.000000   2024284   2026495   2028719   2030943   2033134  
  5820.000000   2035256   2037285   2039222   2041094   2042948  
  5810.000000   2044833   2046774   2048777   2050813   2052860  
  5800.000000   2054889   2056920   2058967   2061084   2063274  
  5790.000000   2065540   2067804   2069984   2071938   2073552  
  5780.000000   2074698   2075298   2075282   2074634   2073356  
  5770.000000   2071513   2069189   2066531   2063677   2060791  
  5760.000000   2057981   2055341   2052892   2050649   2048581  
  5750.000000   2046679   2044921   2043304   2041814   2040435  
  5740.000000   2039143   2037908   2036708   2035526   2034363  
  5730.000000   2033213   2032083   2030959   2029835   2028695  
  5720.000000   2027543   2026387   2025252   2024154   2023107  
  5710.000000   2022103   2021127   2020158   2019189   2018227  
  5700.000000   2017294   2016413   2015594   2014832   2014094  
  5690.000000   2013350   2012566   2011744   2010891   2010045  
  5680.000000   2009220   2008423   2007613   2006736   2005703  
  5670.000000   2004446   2002897   2001032   1998840   1996347  
  5660.000000   1993589   1990625   1987514   1984331   1981141  
  5650.000000   1978009   1974977   1972073   1969303   1966667  
  5640.000000   1964154   1961761   1959483   1957314   1955246  
  5630.000000   1953263   1951348   1949481   1947659   1945875  
  5620.000000   1944147   1942478   1940885   1939359   1937902  
  5610.000000   1936498   1935147   1933845   1932599   1931410  
  5600.000000   1930280   1929200   1928166   1927169   1926215  
  5590.000000   1925310   1924467   1923685   1922952   1922237  
  5580.000000   1921503   1920716   1919858   1918930   1917953  
  5570.000000   1916957   1915963   1914983   1914010   1913027  
  5560.000000   1912018   1910977   1909906   1908815   1907717  
  5550.000000   1906618   1905518   1904414   1903303   1902187  
  5540.000000   1901072   1899968   1898877   1897801   1896735  
  5530.000000   1895673   1894614   1893562   1892523   1891505  
  5520.000000   1890505   1889516   1888524   1887519   1886496  
  5510.000000   1885457   1884409   1883358   1882298   1881222  
  5500.000000   1880111   1878959   1877765   1876546   1875320  
  5490.000000   1874105   1872898   1871684   1870427   1869098  
  5480.000000   1867673   1866153   1864552   1862902   1861232  
  5470.000000   1859568   1857923   1856305   1854712   1853142  
  5460.000000   1851582   1850016   1848416   1846753   1845003  
  5450.000000   1843160   1841245   1839298   1837373   1835510  
  5440.000000   1833738   1832050   1830433   1828863   1827337  
  5430.000000   1825859   1824450   1823122   1821880   1820699  
  5420.000000   1819562   1818443   1817349   1816301   1815349  
  5410.000000   1814528   1813870   1813356   1812967   1812653  
  5400.000000   1812396   1812178   1812026   1811956   1812011  
  5390.000000   1812198   1812537   1813016   1813646   1814421  
  5380.000000   1815360   1816451   1817698   1819058   1820520  
  5370.000000   1822036   1823620   1825264   1827023   1828913  
  5360.000000   1830997   1833274   1835795   1838548   1841593  
  5350.000000   1844935   1848651   1852740   1857261   1862173  
  5340.000000   1867506   1873200   1879307   1885790   1892727  
  5330.000000   1900081   1907915   1916160   1924857   1933940  
  5320.000000   1943493   1953505   1964119   1975350   1987334  
  5310.000000   2000040   2013543   2027755   2042722   2058364  
  5300.000000   2074761   2091879   2109833   2128608   2148299  
  5290.000000   2168843   2190257   2212394   2235185   2258444  
  5280.000000   2282115   2306102   2330469   2355254   2380604  
  5270.000000   2406569   2433192   2460363   2487920   2515637  
  5260.000000   2543322   2570862   2598231   2625492   2652698  
  5250.000000   2679892   2706988   2733875   2760326   2786213  
  5240.000000   2811377   2835849   2859628   2882868   2905598  
  5230.000000   2927931   2949794   2971179   2991915   3011957  
  5220.000000   3031161   3049574   3067163   3084082   3100363  
  5210.000000   3116163   3131448   3146266   3160465   3174019  
  5200.000000   3186769   3198762   3209954   3220495   3230401  
  5190.000000   3239806   3248655   3256983   3264662   3271699  
  5180.000000   3277998   3283636   3288590   3292978   3296781  
  5170.000000   3300089   3302850   3305128   3306873   3308156  
  5160.000000   3308944   3309299   3309172   3308604   3307537  
  5150.000000   3306022   3304042   3301685   3298962   3295963  
  5140.000000   3292680   3289164   3285385   3281381   3277133  
  5130.000000   3272689   3268043   3263230   3258227   3253044  
  5120.000000   3247656   3242090   3236359   3230530   3224646  
  5110.000000   3218766   3212907   3207084   3201278   3195483  
  5100.000000   3189688   3183907   3178155   3172459   3166830  
  5090.000000   3161281   3155805   3150399   3145050   3139751  
  5080.000000   3134482   3129227   3123949   3118621   3113212  
  5070.000000   3107715   3102132   3096489   3090803   3085097  
  5060.000000   3079364   3073594   3067752   3061818   3055772  
  5050.000000   3049621   3043377   3037068   3030712   3024329  
  5040.000000   3017924   3011505   3005073   2998638   2992207  
  5030.000000   2985790   2979391   2973010   2966646   2960299  
  5020.000000   2953979   2947695   2941473   2935324   2929272  
  5010.000000   2923319   2917478   2911742   2906126   2900629  
  5000.000000   2895274   2890064   2885028   2880162   2875489  
  4990.000000   2870998   2866708   2862599   2858691   2854956  
  4980.000000   2851411   2848028   2844832   2841807   2838997  
  4970.000000   2836400   2834073   2832010   2830255   2828784  
  4960.000000   2827626   2826749   2826191   2825927   2826008  
  4950.000000   2826415   2827191   2828301   2829775   2831566  
  4940.000000   2833707   2836163   2838986   2842154   2845726  
  4930.000000   2849674   2854045   2858799   2863972   2869523  
  4920.000000   2875487   2881825   2888567   2895675   2903172  
  4910.000000   2911023   2919250   2927825   2936760   2946016  
  4900.000000   2955574   2965371   2975353   2985455   2995622  
  4890.000000   3005818   3016000   3026146   3036194   3046104  
  4880.000000   3055769   3065125   3074048   3082489   3090341  
  4870.000000   3097590   3104152   3110037   3115172   3119585  
  4860.000000   3123221   3126136   3128308   3129821   3130677  
  4850.000000   3130976   3130735   3130057   3128970   3127580  
  4840.000000   3125916   3124074   3122074   3119983   3117808  
  4830.000000   3115594   3113350   3111115   3108911   3106777  
  4820.000000   3104740   3102829   3101065   3099461   3098033  
  4810.000000   3096782   3095720   3094836   3094131   3093583  
  4800.000000   3093187   3092921   3092791   3092790   3092941  
  4790.000000   3093244   3093720   3094356   3095151   3096072  
  4780.000000   3097100   3098199   3099349   3100520   3101703  
  4770.000000   3102878   3104045   3105200   3106352   3107508  
  4760.000000   3108679   3109866   3111068   3112270   3113455  
  4750.000000   3114609   3115726   3116810   3117877   3118942  
  4740.000000   3120021   3121115   3122218   3123314   3124394  
  4730.000000   3125448   3126485   3127519   3128572   3129659  
  4720.000000   3130799   3131989   3133240   3134539   3135901  
  4710.000000   3137315   3138804   3140365   3142027   3143801  
  4700.000000   3145733   3147856   3150233   3152902   3155911  
  4690.000000   3159265   3162960   3166946   3171175   3175566  
  4680.000000   3180063   3184589   3189109   3193570   3197957  
  4670.000000   3202239   3206421   3210497   3214497   3218439  
  4660.000000   3222371   3226324   3230347   3234473   3238739  
  4650.000000   3243169   3247783   3252589   3257577   3262728  
  4640.000000   3268001   3273360   3278758   3284163   3289542  
  4630.000000   3294879   3300144   3305320   3310357   3315221  
  4620.000000   3319846   3324197   3328217   3331897   3335210  
  4610.000000   3338179   3340798   3343115   3345132   3346909  
  4600.000000   3348449   3349812   3350994   3352038   3352918  
  4590.000000   3353650   3354181   3354503   3354554   3354326  
  4580.000000   3353777   3352926   3351771   3350363   3348728  
  4570.000000   3346931   3345004   3342996   3340918   3338797  
  4560.000000   3336626   3334420   3332172   3329898   3327600  
  4550.000000   3325298   3322995   3320703   3318421   3316157  
  4540.000000   3313912   3311694   3309516   3307383   3305303  
  4530.000000   3303265   3301262   3299263   3297255   3295209  
  4520.000000   3293141   3291047   3288981   3286966   3285078  
  4510.000000   3283342   3281832   3280560   3279594   3278929  
  4500.000000   3278635   3278701   3279203   3280132   3281574  
  4490.000000   3283522   3286072   3289215   3293046   3297538  
  4480.000000   3302768   3308688   3315356   3322712   3330805  
  4470.000000   3339570   3349046   3359156   3369919   3381239  
  4460.000000   3393116   3405449   3418232   3431377   3444882  
  4450.000000   3458672   3472745   3487045   3501571   3516287  
  4440.000000   3531197   3546280   3561521   3576888   3592325  
  4430.000000   3607781   3623163   3638418   3653453   3668236  
  4420.000000   3682688   3696796   3710477   3723711   3736395  
  4410.000000   3748491   3759884   3770543   3780382   3789421  
  4400.000000   3797648   3805162   3812033   3818427   3824456  
  4390.000000   3830300   3836053   3841849   3847725   3853742  
  4380.000000   3859879   3866147   3872499   3878940   3885440  
  4370.000000   3892018   3898664   3905394   3912182   3919016  
  4360.000000   3925836   3932611   3939270   3945802   3952134  
  4350.000000   3958287   3964173   3969821   3975133   3980155  
  4340.000000   3984808   3989151   3993083   3996550   3999276  
  4330.000000   4000952   4001086   3999242   3995025   3988319  
  4320.000000   3979274   3968396   3956401   3944144   3932391  
  4310.000000   3921754   3912553   3904877   3898602   3893518  
  4300.000000   3889405   3886089   3883485   3881534   3880247  
  4290.000000   3879580   3879544   3880069   3881158   3882753  
  4280.000000   3884859   3887424   3890405   3893715   3897243  
  4270.000000   3900874   3904468   3907894   3910978   3913529  
  4260.000000   3915296   3916021   3915444   3913402   3909837  
  4250.000000   3904882   3898795   3891986   3884866   3877864  
  4240.000000   3871268   3865293   3859972   3855286   3851104  
  4230.000000   3847307   3843752   3840333   3836970   3833603  
  4220.000000   3830223   3826819   3823446   3820132   3816979  
  4210.000000   3814036   3811408   3809129   3807264   3805804  
  4200.000000   3804758   3804069   3803704   3803577   3803645  
  4190.000000   3803827   3804108   3804440   3804851   3805327  
  4180.000000   3805919   3806617   3807475   3808479   3809686  
  4170.000000   3811100   3812800   3814813   3817228   3820064  
  4160.000000   3823381   3827154   3831400   3836059   3841130  
  4150.000000   3846551   3852336   3858432   3864871   3871609  
  4140.000000   3878687   3886065   3893789   3901820   3910201  
  4130.000000   3918887   3927910   3937221   3946856   3956783  
  4120.000000   3967062   3977701   3988788   4000353   4012486  
  4110.000000   4025203   4038552   4052501   4067028   4082041  
  4100.000000   4097462   4113165   4129062   4145055   4161091  
  4090.000000   4177132   4193164   4209180   4225163   4241105  
  4080.000000   4256965   4272733   4288356   4303832   4319095  
  4070.000000   4334130   4348835   4363173   4377018   4390344  
  4060.000000   4403050   4415159   4426608   4437451   4447639  
  4050.000000   4457245   4466233   4474699   4482624   4490110  
  4040.000000   4497116   4503701   4509775   4515358   4520351  
  4030.000000   4524797   4528643   4531966   4534744   4537044  
  4020.000000   4538817   4540119   4540942   4541356   4541340  
  4010.000000   4540997   4540378   4539485   4538148   4536384  
  4000.000000   4534398  
##END= 
