##TITLE= Sample 025 By ssteindl date Montag, November 19 2018
##JCAMP-DX= 4.24
##DATA TYPE= INFRARED SPECTRUM
##ORIGIN= Exported PE Spectrum Data File
##OWNER= Sandra Steindl
##DATE= 18/11/19
##TIME= 16:42:34.00
##SPECTROMETER/DATA SYSTEM= PERKIN-ELMER Frontier FT-IR/NIR IR
##INSTRUMENT PARAMETERS=
  APODIZATION=stark
  DETECTOR=INGAAS
##RESOLUTION= 16.000000
##DELTAX= -2.000000
##XUNITS= 1/CM
##YUNITS= A
##XFACTOR= 1.00
##YFACTOR= 0.00000011920928955078
##FIRSTX= 10000.00
##LASTX= 4000.00
##NPOINTS= 3001
##FIRSTY= 0.173190
##MAXY= 0.630168
##MINY= 0.148981
##XYDATA= (X++(Y..Y))
 10000.000000   1452822   1451680   1451835   1455068   1461529  
  9990.000000   1470106   1479543   1488643   1495936   1499917  
  9980.000000   1499777   1495490   1487632   1477179   1465452  
  9970.000000   1453858   1443678   1435939   1431288   1429913  
  9960.000000   1431409   1434915   1439145   1442813   1444847  
  9950.000000   1444803   1442926   1440078   1437432   1436006  
  9940.000000   1436383   1438440   1441512   1444554   1446596  
  9930.000000   1446972   1445559   1442672   1438928   1434959  
  9920.000000   1431249   1428023   1425302   1422993   1421023  
  9910.000000   1419423   1418327   1418001   1418677   1420584  
  9900.000000   1423708   1427864   1432601   1437323   1441453  
  9890.000000   1444470   1446138   1446340   1445179   1442729  
  9880.000000   1439088   1434303   1428490   1421975   1415361  
  9870.000000   1409621   1405844   1405081   1407849   1414024  
  9860.000000   1422613   1432068   1440563   1446529   1449038  
  9850.000000   1447979   1444045   1438371   1432226   1426589  
  9840.000000   1422004   1418513   1415812   1413473   1411124  
  9830.000000   1408629   1406016   1403506   1401254   1399379  
  9820.000000   1397800   1396343   1394804   1393021   1391036  
  9810.000000   1388963   1387074   1385520   1384368   1383428  
  9800.000000   1382413   1380972   1378938   1376400   1373804  
  9790.000000   1371831   1371228   1372576   1376063   1381464  
  9780.000000   1388133   1395254   1401981   1407690   1412021  
  9770.000000   1414911   1416516   1417064   1416823   1415931  
  9760.000000   1414481   1412394   1409557   1405797   1400992  
  9750.000000   1395191   1388641   1381961   1375971   1371720  
  9740.000000   1370060   1371555   1376102   1383028   1391099  
  9730.000000   1398889   1405076   1408743   1409584   1407817  
  9720.000000   1404112   1399229   1393889   1388539   1383411  
  9710.000000   1378548   1373936   1369611   1365659   1362271  
  9700.000000   1359624   1357905   1357175   1357385   1358296  
  9690.000000   1359512   1360530   1360833   1360085   1358203  
  9680.000000   1355524   1352667   1350466   1349617   1350502  
  9670.000000   1352938   1356274   1359510   1361713   1362279  
  9660.000000   1361211   1359074   1356797   1355350   1355372  
  9650.000000   1357052   1360063   1363832   1367752   1371450  
  9640.000000   1374841   1378049   1381163   1384054   1386253  
  9630.000000   1387082   1385898   1382401   1376849   1370044  
  9620.000000   1363135   1357290   1353305   1351458   1351365  
  9610.000000   1352274   1353241   1353539   1352813   1351145  
  9600.000000   1348971   1346807   1345096   1343955   1343230  
  9590.000000   1342481   1341260   1339228   1336401   1333160  
  9580.000000   1330220   1328438   1328522   1330843   1335211  
  9570.000000   1340955   1347049   1352404   1356201   1358061  
  9560.000000   1358154   1357012   1355311   1353552   1351923  
  9550.000000   1350280   1348350   1345945   1343156   1340383  
  9540.000000   1338162   1336993   1337026   1338076   1339592  
  9530.000000   1340974   1341758   1341847   1341494   1341128  
  9520.000000   1341113   1341515   1342077   1342321   1341806  
  9510.000000   1340333   1338037   1335337   1332719   1330578  
  9500.000000   1329040   1328016   1327284   1326666   1326118  
  9490.000000   1325695   1325430   1325183   1324591   1323186  
  9480.000000   1320595   1316795   1312214   1307667   1304135  
  9470.000000   1302405   1302820   1305095   1308437   1311758  
  9460.000000   1314040   1314595   1313256   1310333   1306523  
  9450.000000   1302664   1299585   1297906   1297974   1299777  
  9440.000000   1302957   1306867   1310700   1313722   1315448  
  9430.000000   1315835   1315237   1314328   1313794   1314111  
  9420.000000   1315337   1317108   1318812   1319824   1319769  
  9410.000000   1318609   1316587   1314058   1311296   1308405  
  9400.000000   1305337   1302015   1298497   1295042   1292085  
  9390.000000   1290063   1289232   1289550   1290701   1292252  
  9380.000000   1293839   1295301   1296696   1298196   1299944  
  9370.000000   1301915   1303922   1305689   1307030   1307931  
  9360.000000   1308586   1309273   1310187   1311308   1312325  
  9350.000000   1312811   1312365   1310871   1308529   1305809  
  9340.000000   1303262   1301298   1300050   1299299   1298583  
  9330.000000   1297370   1295276   1292215   1288407   1284313  
  9320.000000   1280505   1277567   1275988   1276083   1277889  
  9310.000000   1281126   1285224   1289413   1292914   1295091  
  9300.000000   1295676   1294808   1293035   1291069   1289572  
  9290.000000   1288889   1288998   1289557   1290102   1290266  
  9280.000000   1289930   1289285   1288702   1288550   1288993  
  9270.000000   1289919   1291006   1291830   1292049   1291488  
  9260.000000   1290222   1288521   1286747   1285281   1284407  
  9250.000000   1284348   1285200   1286983   1289574   1292704  
  9240.000000   1295963   1298844   1300860   1301621   1300944  
  9230.000000   1298892   1295762   1291999   1288083   1284437  
  9220.000000   1281400   1279225   1278071   1277983   1278834  
  9210.000000   1280350   1282085   1283522   1284147   1283626  
  9200.000000   1281944   1279443   1276749   1274567   1273467  
  9190.000000   1273700   1275123   1277244   1279384   1280916  
  9180.000000   1281476   1281025   1279806   1278180   1276485  
  9170.000000   1274877   1273325   1271641   1269665   1267348  
  9160.000000   1264862   1262554   1260839   1260078   1260413  
  9150.000000   1261783   1263896   1266384   1268870   1271089  
  9140.000000   1272908   1274300   1275295   1275900   1276119  
  9130.000000   1275907   1275249   1274141   1272632   1270794  
  9120.000000   1268710   1266482   1264221   1262095   1260291  
  9110.000000   1259046   1258540   1258844   1259826   1261170  
  9100.000000   1262452   1263235   1263223   1262336   1260756  
  9090.000000   1258827   1256929   1255363   1254296   1253765  
  9080.000000   1253738   1254149   1254961   1256110   1257479  
  9070.000000   1258810   1259746   1259917   1259100   1257322  
  9060.000000   1254898   1252399   1250492   1249741   1250403  
  9050.000000   1252405   1255392   1258843   1262192   1264960  
  9040.000000   1266836   1267635   1267285   1265796   1263341  
  9030.000000   1260210   1256847   1253740   1251389   1250120  
  9020.000000   1250008   1250869   1252329   1254021   1255645  
  9010.000000   1257133   1258560   1260141   1262041   1264318  
  9000.000000   1266870   1269464   1271840   1273722   1274894  
  8990.000000   1275172   1274442   1272651   1269859   1266289  
  8980.000000   1262353   1258601   1255579   1253696   1253078  
  8970.000000   1253539   1254611   1255749   1256490   1256648  
  8960.000000   1256315   1255808   1255506   1255702   1256508  
  8950.000000   1257816   1259391   1260933   1262213   1263046  
  8940.000000   1263336   1263009   1262064   1260554   1258630  
  8930.000000   1256544   1254637   1253245   1252600   1252767  
  8920.000000   1253632   1254962   1256498   1258047   1259544  
  8910.000000   1261005   1262472   1263900   1265171   1266081  
  8900.000000   1266488   1266357   1265881   1265400   1265340  
  8890.000000   1266037   1267621   1269985   1272807   1275701  
  8880.000000   1278316   1280481   1282215   1283688   1285104  
  8870.000000   1286597   1288159   1289635   1290764   1291288  
  8860.000000   1291064   1290110   1288642   1286995   1285565  
  8850.000000   1284666   1284440   1284802   1285456   1286017  
  8840.000000   1286146   1285714   1284867   1284025   1283750  
  8830.000000   1284567   1286766   1290263   1294602   1299050  
  8820.000000   1302841   1305361   1306360   1305956   1304611  
  8810.000000   1302925   1301489   1300702   1300723   1301470  
  8800.000000   1302703   1304138   1305527   1306750   1307793  
  8790.000000   1308777   1309855   1311193   1312886   1314911  
  8780.000000   1317133   1319288   1321085   1322242   1322617  
  8770.000000   1322223   1321260   1320061   1319015   1318477  
  8760.000000   1318689   1319733   1321538   1323902   1326554  
  8750.000000   1329194   1331550   1333410   1334678   1335382  
  8740.000000   1335709   1335955   1336484   1337600   1339471  
  8730.000000   1342052   1345103   1348255   1351130   1353473  
  8720.000000   1355229   1356558   1357745   1359086   1360753  
  8710.000000   1362731   1364832   1366782   1368348   1369434  
  8700.000000   1370129   1370657   1371287   1372212   1373468  
  8690.000000   1374923   1376339   1377470   1378197   1378558  
  8680.000000   1378773   1379147   1379978   1381449   1383570  
  8670.000000   1386197   1389099   1392047   1394892   1397591  
  8660.000000   1400199   1402796   1405436   1408077   1410615  
  8650.000000   1412892   1414791   1416264   1417368   1418252  
  8640.000000   1419090   1420059   1421267   1422782   1424620  
  8630.000000   1426783   1429239   1431924   1434694   1437336  
  8620.000000   1439558   1441091   1441762   1441605   1440906  
  8610.000000   1440139   1439863   1440515   1442272   1444950  
  8600.000000   1448049   1450910   1452913   1453720   1453375  
  8590.000000   1452331   1451295   1451028   1452101   1454715  
  8580.000000   1458631   1463232   1467714   1471303   1473487  
  8570.000000   1474116   1473448   1472039   1470599   1469763  
  8560.000000   1469932   1471165   1473217   1475641   1477962  
  8550.000000   1479859   1481249   1482319   1483397   1484846  
  8540.000000   1486886   1489532   1492579   1495670   1498440  
  8530.000000   1500605   1502070   1502907   1503328   1503596  
  8520.000000   1503942   1504530   1505413   1506574   1507922  
  8510.000000   1509350   1510738   1511999   1513081   1513995  
  8500.000000   1514796   1515578   1516419   1517350   1518325  
  8490.000000   1519234   1519943   1520363   1520510   1520515  
  8480.000000   1520603   1520993   1521815   1523032   1524450  
  8470.000000   1525772   1526727   1527168   1527142   1526882  
  8460.000000   1526720   1526990   1527910   1529533   1531753  
  8450.000000   1534346   1537070   1539680   1541995   1543873  
  8440.000000   1545235   1546047   1546336   1546231   1545954  
  8430.000000   1545806   1546081   1547014   1548697   1551053  
  8420.000000   1553819   1556638   1559132   1560998   1562040  
  8410.000000   1562215   1561620   1560465   1559028   1557605  
  8400.000000   1556477   1555866   1555883   1556521   1557624  
  8390.000000   1558953   1560224   1561206   1561765   1561902  
  8380.000000   1561741   1561465   1561250   1561192   1561297  
  8370.000000   1561492   1561681   1561800   1561854   1561931  
  8360.000000   1562167   1562706   1563634   1564948   1566533  
  8350.000000   1568194   1569691   1570794   1571331   1571238  
  8340.000000   1570589   1569581   1568494   1567627   1567231  
  8330.000000   1567439   1568220   1569383   1570624   1571632  
  8320.000000   1572157   1572108   1571549   1570712   1569913  
  8310.000000   1569457   1569547   1570209   1571315   1572591  
  8300.000000   1573713   1574367   1574348   1573615   1572305  
  8290.000000   1570707   1569171   1568055   1567620   1568004  
  8280.000000   1569166   1570916   1572948   1574928   1576546  
  8270.000000   1577584   1577929   1577592   1576689   1575411  
  8260.000000   1573980   1572592   1571396   1570462   1569777  
  8250.000000   1569257   1568772   1568206   1567484   1566625  
  8240.000000   1565707   1564864   1564208   1563812   1563660  
  8230.000000   1563663   1563685   1563596   1563315   1562838  
  8220.000000   1562221   1561558   1560925   1560358   1559833  
  8210.000000   1559281   1558606   1557725   1556585   1555189  
  8200.000000   1553583   1551859   1550127   1548513   1547118  
  8190.000000   1546007   1545173   1544533   1543932   1543190  
  8180.000000   1542152   1540752   1539039   1537172   1535380  
  8170.000000   1533887   1532843   1532271   1532066   1532025  
  8160.000000   1531927   1531586   1530905   1529881   1528589  
  8150.000000   1527142   1525665   1524267   1523043   1522059  
  8140.000000   1521354   1520920   1520685   1520528   1520282  
  8130.000000   1519803   1518995   1517872   1516546   1515202  
  8120.000000   1514030   1513151   1512572   1512166   1511720  
  8110.000000   1510999   1509829   1508157   1506064   1503748  
  8100.000000   1501461   1499457   1497919   1496933   1496470  
  8090.000000   1496396   1496506   1496557   1496333   1495667  
  8080.000000   1494495   1492859   1490898   1488817   1486834  
  8070.000000   1485135   1483838   1482983   1482544   1482450  
  8060.000000   1482604   1482893   1483185   1483327   1483157  
  8050.000000   1482530   1481358   1479649   1477532   1475231  
  8040.000000   1473027   1471180   1469858   1469099   1468805  
  8030.000000   1468787   1468821   1468724   1468387   1467792  
  8020.000000   1466987   1466044   1465039   1464014   1462996  
  8010.000000   1461991   1461021   1460112   1459315   1458674  
  8000.000000   1458226   1457973   1457876   1457862   1457834  
  7990.000000   1457692   1457371   1456843   1456150   1455373  
  7980.000000   1454627   1454008   1453565   1453286   1453095  
  7970.000000   1452898   1452622   1452251   1451840   1451489  
  7960.000000   1451289   1451273   1451381   1451472   1451373  
  7950.000000   1450948   1450162   1449095   1447924   1446844  
  7940.000000   1446000   1445425   1445038   1444685   1444215  
  7930.000000   1443544   1442697   1441788   1440975   1440393  
  7920.000000   1440105   1440091   1440271   1440550   1440858  
  7910.000000   1441178   1441529   1441951   1442466   1443067  
  7900.000000   1443710   1444329   1444848   1445190   1445280  
  7890.000000   1445042   1444415   1443358   1441889   1440090  
  7880.000000   1438119   1436180   1434470   1433137   1432228  
  7870.000000   1431700   1431431   1431288   1431170   1431053  
  7860.000000   1430975   1431011   1431217   1431592   1432070  
  7850.000000   1432530   1432859   1432980   1432901   1432697  
  7840.000000   1432485   1432376   1432429   1432641   1432941  
  7830.000000   1433236   1433435   1433483   1433366   1433095  
  7820.000000   1432684   1432135   1431420   1430514   1429403  
  7810.000000   1428128   1426778   1425498   1424432   1423697  
  7800.000000   1423321   1423246   1423319   1423356   1423182  
  7790.000000   1422696   1421884   1420819   1419624   1418417  
  7780.000000   1417282   1416242   1415277   1414343   1413410  
  7770.000000   1412477   1411572   1410739   1410012   1409402  
  7760.000000   1408892   1408453   1408051   1407663   1407270  
  7750.000000   1406849   1406366   1405774   1405036   1404142  
  7740.000000   1403136   1402110   1401191   1400481   1400025  
  7730.000000   1399778   1399611   1399365   1398901   1398170  
  7720.000000   1397230   1396230   1395359   1394765   1394509  
  7710.000000   1394533   1394693   1394798   1394686   1394259  
  7700.000000   1393516   1392536   1391454   1390422   1389578  
  7690.000000   1389027   1388830   1388995   1389485   1390209  
  7680.000000   1391041   1391834   1392448   1392785   1392806  
  7670.000000   1392541   1392086   1391575   1391156   1390952  
  7660.000000   1391037   1391416   1392020   1392719   1393344  
  7650.000000   1393730   1393757   1393385   1392673   1391763  
  7640.000000   1390853   1390125   1389705   1389614   1389772  
  7630.000000   1390033   1390249   1390336   1390302   1390253  
  7620.000000   1390332   1390663   1391287   1392135   1393049  
  7610.000000   1393826   1394304   1394401   1394160   1393713  
  7600.000000   1393246   1392924   1392855   1393061   1393495  
  7590.000000   1394064   1394674   1395259   1395799   1396305  
  7580.000000   1396815   1397357   1397941   1398549   1399152  
  7570.000000   1399712   1400224   1400701   1401198   1401774  
  7560.000000   1402493   1403379   1404425   1405571   1406745  
  7550.000000   1407867   1408895   1409826   1410710   1411619  
  7540.000000   1412631   1413798   1415145   1416656   1418301  
  7530.000000   1420031   1421811   1423600   1425375   1427104  
  7520.000000   1428772   1430368   1431915   1433458   1435072  
  7510.000000   1436835   1438807   1441008   1443419   1445971  
  7500.000000   1448587   1451177   1453681   1456052   1458272  
  7490.000000   1460325   1462209   1463926   1465513   1467027  
  7480.000000   1468567   1470240   1472146   1474340   1476828  
  7470.000000   1479557   1482437   1485362   1488255   1491057  
  7460.000000   1493759   1496361   1498890   1501367   1503826  
  7450.000000   1506301   1508837   1511481   1514280   1517263  
  7440.000000   1520434   1523765   1527209   1530706   1534192  
  7430.000000   1537602   1540876   1543959   1546811   1549419  
  7420.000000   1551809   1554054   1556262   1558558   1561040  
  7410.000000   1563759   1566696   1569773   1572872   1575878  
  7400.000000   1578707   1581328   1583753   1586027   1588205  
  7390.000000   1590338   1592471   1594639   1596877   1599213  
  7380.000000   1601666   1604232   1606885   1609580   1612276  
  7370.000000   1614948   1617607   1620285   1623023   1625845  
  7360.000000   1628744   1631683   1634616   1637512   1640378  
  7350.000000   1643267   1646253   1649396   1652705   1656119  
  7340.000000   1659515   1662744   1665675   1668240   1670446  
  7330.000000   1672383   1674178   1675991   1677952   1680162  
  7320.000000   1682654   1685413   1688355   1691360   1694259  
  7310.000000   1696890   1699101   1700818   1702039   1702856  
  7300.000000   1703423   1703924   1704520   1705325   1706370  
  7290.000000   1707626   1709007   1710423   1711783   1713044  
  7280.000000   1714188   1715247   1716266   1717308   1718426  
  7270.000000   1719652   1720989   1722394   1723800   1725115  
  7260.000000   1726267   1727209   1727961   1728585   1729193  
  7250.000000   1729894   1730786   1731904   1733246   1734753  
  7240.000000   1736375   1738062   1739820   1741673   1743685  
  7230.000000   1745894   1748332   1750973   1753784   1756700  
  7220.000000   1759688   1762716   1765806   1768973   1772265  
  7210.000000   1775690   1779258   1782922   1786647   1790365  
  7200.000000   1794055   1797698   1801343   1805040   1808880  
  7190.000000   1812917   1817203   1821722   1826442   1831288  
  7180.000000   1836207   1841149   1846128   1851166   1856330  
  7170.000000   1861654   1867171   1872844   1878638   1884471  
  7160.000000   1890303   1896098   1901880   1907688   1913605  
  7150.000000   1919698   1926048   1932683   1939613   1946774  
  7140.000000   1954079   1961381   1968563   1975518   1982234  
  7130.000000   1988761   1995249   2001866   2008803   2016175  
  7120.000000   2024033   2032316   2040908   2049645   2058395  
  7110.000000   2067052   2075586   2083987   2092289   2100512  
  7100.000000   2108698   2116871   2125084   2133379   2141807  
  7090.000000   2150393   2159134   2167992   2176913   2185834  
  7080.000000   2194718   2203540   2212302   2221002   2229639  
  7070.000000   2238191   2246647   2255006   2263308   2271623  
  7060.000000   2280039   2288637   2297452   2306478   2315654  
  7050.000000   2324902   2334138   2343305   2352361   2361282  
  7040.000000   2370040   2378598   2386915   2394967   2402761  
  7030.000000   2410353   2417816   2425248   2432707   2440231  
  7020.000000   2447796   2455372   2462902   2470365   2477729  
  7010.000000   2484987   2492100   2499032   2505715   2512108  
  7000.000000   2518184   2523984   2529564   2535026   2540436  
  6990.000000   2545857   2551282   2556704   2562070   2567359  
  6980.000000   2572530   2577577   2582465   2587178   2591674  
  6970.000000   2595946   2599987   2603835   2607525   2611110  
  6960.000000   2614606   2618022   2621331   2624531   2627614  
  6950.000000   2630627   2633605   2636600   2639608   2642598  
  6940.000000   2645481   2648178   2650620   2652803   2654762  
  6930.000000   2656588   2658365   2660174   2662044   2663982  
  6920.000000   2665962   2667964   2669956   2671919   2673821  
  6910.000000   2675631   2677306   2678820   2680164   2681368  
  6900.000000   2682484   2683578   2684703   2685888   2687124  
  6890.000000   2688382   2689623   2690824   2691975   2693091  
  6880.000000   2694189   2695286   2696388   2697495   2698600  
  6870.000000   2699698   2700786   2701863   2702923   2703958  
  6860.000000   2704961   2705937   2706897   2707866   2708860  
  6850.000000   2709888   2710929   2711952   2712913   2713788  
  6840.000000   2714574   2715301   2716005   2716717   2717438  
  6830.000000   2718139   2718771   2719291   2719685   2719980  
  6820.000000   2720235   2720524   2720904   2721403   2722005  
  6810.000000   2722678   2723370   2724047   2724676   2725241  
  6800.000000   2725713   2726070   2726284   2726346   2726267  
  6790.000000   2726085   2725844   2725585   2725313   2725008  
  6780.000000   2724618   2724103   2723446   2722684   2721887  
  6770.000000   2721151   2720547   2720111   2719817   2719599  
  6760.000000   2719368   2719045   2718577   2717951   2717182  
  6750.000000   2716316   2715402   2714499   2713653   2712904  
  6740.000000   2712265   2711729   2711254   2710787   2710264  
  6730.000000   2709650   2708928   2708123   2707270   2706406  
  6720.000000   2705537   2704648   2703693   2702632   2701441  
  6710.000000   2700132   2698738   2697302   2695846   2694367  
  6700.000000   2692828   2691191   2689427   2687554   2685629  
  6690.000000   2683747   2682003   2680480   2679205   2678166  
  6680.000000   2677298   2676511   2675703   2674780   2673670  
  6670.000000   2672332   2670758   2668982   2667063   2665078  
  6660.000000   2663102   2661193   2659374   2657644   2655973  
  6650.000000   2654331   2652683   2651018   2649319   2647586  
  6640.000000   2645809   2643985   2642111   2640205   2638292  
  6630.000000   2636410   2634582   2632809   2631052   2629249  
  6620.000000   2627326   2625234   2622962   2620549   2618067  
  6610.000000   2615601   2613215   2610943   2608778   2606695  
  6600.000000   2604661   2602659   2600686   2598753   2596868  
  6590.000000   2595031   2593230   2591445   2589656   2587845  
  6580.000000   2586004   2584126   2582209   2580252   2578265  
  6570.000000   2576264   2574282   2572353   2570505   2568747  
  6560.000000   2567066   2565434   2563820   2562208   2560608  
  6550.000000   2559043   2557543   2556112   2554730   2553343  
  6540.000000   2551895   2550346   2548702   2547007   2545340  
  6530.000000   2543773   2542351   2541069   2539888   2538742  
  6520.000000   2537582   2536380   2535147   2533914   2532721  
  6510.000000   2531594   2530549   2529585   2528699   2527886  
  6500.000000   2527140   2526442   2525757   2525035   2524219  
  6490.000000   2523270   2522178   2520970   2519701   2518434  
  6480.000000   2517215   2516061   2514959   2513883   2512805  
  6470.000000   2511718   2510630   2509561   2508524   2507521  
  6460.000000   2506537   2505550   2504544   2503518   2502482  
  6450.000000   2501449   2500429   2499413   2498384   2497321  
  6440.000000   2496217   2495081   2493939   2492824   2491757  
  6430.000000   2490746   2489782   2488849   2487934   2487036  
  6420.000000   2486160   2485314   2484496   2483686   2482859  
  6410.000000   2481987   2481059   2480082   2479081   2478084  
  6400.000000   2477115   2476180   2475276   2474397   2473547  
  6390.000000   2472739   2471993   2471321   2470714   2470141  
  6380.000000   2469553   2468906   2468171   2467355   2466487  
  6370.000000   2465611   2464761   2463947   2463155   2462358  
  6360.000000   2461530   2460667   2459779   2458890   2458015  
  6350.000000   2457153   2456278   2455359   2454366   2453291  
  6340.000000   2452152   2450988   2449842   2448749   2447718  
  6330.000000   2446748   2445819   2444915   2444021   2443136  
  6320.000000   2442253   2441371   2440476   2439557   2438599  
  6310.000000   2437598   2436548   2435451   2434297   2433076  
  6300.000000   2431765   2430352   2428823   2427188   2425453  
  6290.000000   2423637   2421741   2419767   2417699   2415540  
  6280.000000   2413293   2410997   2408689   2406422   2404220  
  6270.000000   2402089   2399995   2397895   2395729   2393461  
  6260.000000   2391068   2388560   2385953   2383285   2380582  
  6250.000000   2377877   2375189   2372540   2369931   2367358  
  6240.000000   2364791   2362193   2359517   2356734   2353835  
  6230.000000   2350847   2347824   2344834   2341931   2339147  
  6220.000000   2336474   2333878   2331301   2328693   2326022  
  6210.000000   2323282   2320493   2317693   2314920   2312205  
  6200.000000   2309561   2306983   2304451   2301936   2299410  
  6190.000000   2296846   2294236   2291583   2288905   2286229  
  6180.000000   2283581   2280981   2278439   2275951   2273512  
  6170.000000   2271109   2268740   2266405   2264111   2261863  
  6160.000000   2259669   2257523   2255424   2253360   2251325  
  6150.000000   2249310   2247311   2245318   2243328   2241336  
  6140.000000   2239348   2237371   2235423   2233515   2231655  
  6130.000000   2229830   2228023   2226202   2224345   2222440  
  6120.000000   2220504   2218569   2216685   2214892   2213228  
  6110.000000   2211702   2210313   2209035   2207845   2206714  
  6100.000000   2205624   2204555   2203507   2202473   2201468  
  6090.000000   2200497   2199582   2198729   2197950   2197232  
  6080.000000   2196567   2195933   2195326   2194741   2194200  
  6070.000000   2193721   2193333   2193046   2192872   2192797  
  6060.000000   2192823   2192939   2193161   2193488   2193937  
  6050.000000   2194490   2195137   2195834   2196558   2197284  
  6040.000000   2198029   2198817   2199705   2200733   2201942  
  6030.000000   2203330   2204882   2206553   2208302   2210082  
  6020.000000   2211869   2213640   2215394   2217128   2218856  
  6010.000000   2220587   2222344   2224139   2225986   2227880  
  6000.000000   2229807   2231734   2233631   2235465   2237228  
  5990.000000   2238925   2240584   2242237   2243920   2245654  
  5980.000000   2247450   2249307   2251216   2253169   2255162  
  5970.000000   2257194   2259269   2261387   2263552   2265761  
  5960.000000   2268011   2270288   2272581   2274865   2277124  
  5950.000000   2279334   2281487   2283578   2285621   2287631  
  5940.000000   2289631   2291635   2293654   2295692   2297756  
  5930.000000   2299855   2302004   2304222   2306522   2308906  
  5920.000000   2311362   2313863   2316376   2318869   2321324  
  5910.000000   2323726   2326077   2328373   2330618   2332808  
  5900.000000   2334952   2337062   2339164   2341290   2343470  
  5890.000000   2345726   2348056   2350442   2352853   2355255  
  5880.000000   2357624   2359945   2362218   2364443   2366621  
  5870.000000   2368745   2370809   2372805   2374743   2376637  
  5860.000000   2378522   2380427   2382392   2384438   2386593  
  5850.000000   2388870   2391288   2393859   2396590   2399476  
  5840.000000   2402500   2405634   2408845   2412102   2415382  
  5830.000000   2418667   2421939   2425181   2428360   2431444  
  5820.000000   2434393   2437191   2439824   2442309   2444652  
  5810.000000   2446874   2448960   2450900   2452649   2454194  
  5800.000000   2455505   2456606   2457505   2458245   2458833  
  5790.000000   2459290   2459593   2459739   2459697   2459468  
  5780.000000   2459034   2458403   2457564   2456526   2455287  
  5770.000000   2453877   2452330   2450707   2449071   2447483  
  5760.000000   2445983   2444592   2443313   2442144   2441084  
  5750.000000   2440142   2439334   2438669   2438154   2437776  
  5740.000000   2437524   2437374   2437325   2437364   2437497  
  5730.000000   2437702   2437959   2438217   2438439   2438583  
  5720.000000   2438654   2438671   2438696   2438785   2438996  
  5710.000000   2439350   2439850   2440468   2441172   2441932  
  5700.000000   2442729   2443552   2444396   2445254   2446122  
  5690.000000   2446992   2447864   2448743   2449632   2450534  
  5680.000000   2451436   2452318   2453144   2453888   2454523  
  5670.000000   2455048   2455461   2455774   2455985   2456094  
  5660.000000   2456089   2455969   2455740   2455429   2455064  
  5650.000000   2454683   2454301   2453927   2453547   2453152  
  5640.000000   2452731   2452293   2451852   2451428   2451030  
  5630.000000   2450654   2450284   2449901   2449493   2449057  
  5620.000000   2448602   2448140   2447674   2447201   2446709  
  5610.000000   2446191   2445649   2445103   2444578   2444105  
  5600.000000   2443690   2443327   2442977   2442602   2442156  
  5590.000000   2441617   2440973   2440231   2439398   2438486  
  5580.000000   2437494   2436432   2435306   2434140   2432955  
  5570.000000   2431781   2430628   2429499   2428378   2427250  
  5560.000000   2426098   2424921   2423723   2422514   2421301  
  5550.000000   2420085   2418862   2417628   2416385   2415146  
  5540.000000   2413927   2412742   2411593   2410475   2409374  
  5530.000000   2408284   2407206   2406160   2405168   2404249  
  5520.000000   2403403   2402608   2401826   2401014   2400140  
  5510.000000   2399191   2398171   2397097   2395986   2394850  
  5500.000000   2393691   2392511   2391310   2390101   2388890  
  5490.000000   2387682   2386461   2385205   2383876   2382455  
  5480.000000   2380932   2379330   2377681   2376023   2374374  
  5470.000000   2372735   2371081   2369388   2367631   2365813  
  5460.000000   2363947   2362060   2360165   2358268   2356353  
  5450.000000   2354406   2352416   2350390   2348347   2346310  
  5440.000000   2344299   2342316   2340355   2338405   2336469  
  5430.000000   2334556   2332689   2330878   2329131   2327427  
  5420.000000   2325755   2324097   2322476   2320925   2319515  
  5410.000000   2318292   2317299   2316522   2315941   2315500  
  5400.000000   2315178   2314947   2314826   2314818   2314955  
  5390.000000   2315228   2315655   2316221   2316956   2317868  
  5380.000000   2319007   2320371   2321975   2323762   2325702  
  5370.000000   2327720   2329814   2331960   2334224   2336627  
  5360.000000   2339257   2342124   2345297   2348762   2352589  
  5350.000000   2356773   2361399   2366455   2372010   2378011  
  5340.000000   2384499   2391410   2398812   2406675   2415105  
  5330.000000   2424076   2433673   2443824   2454580   2465854  
  5320.000000   2477729   2490167   2503313   2517160   2531852  
  5310.000000   2547341   2563714   2580871   2598881   2617662  
  5300.000000   2637327   2657854   2679396   2701951   2725651  
  5290.000000   2750438   2776346   2803213   2830963   2859386  
  5280.000000   2888408   2917911   2947952   2978559   3009868  
  5270.000000   3041913   3074691   3108046   3141744   3175508  
  5260.000000   3209089   3242366   3275289   3307936   3340322  
  5250.000000   3372478   3404238   3435457   3465830   3495234  
  5240.000000   3523482   3550668   3576789   3602061   3626489  
  5230.000000   3650216   3673113   3695192   3716235   3736241  
  5220.000000   3755050   3772770   3789366   3805046   3819829  
  5210.000000   3833911   3847243   3859910   3871747   3882768  
  5200.000000   3892806   3901936   3910095   3917449   3923988  
  5190.000000   3929858   3934997   3939475   3943183   3946183  
  5180.000000   3948402   3949947   3950787   3951030   3950625  
  5170.000000   3949638   3948008   3945811   3943034   3939800  
  5160.000000   3936132   3932146   3927828   3923230   3918291  
  5150.000000   3913037   3907422   3901500   3895265   3888784  
  5140.000000   3882057   3875140   3868028   3860771   3853374  
  5130.000000   3845883   3838296   3830632   3822859   3814975  
  5120.000000   3806956   3798829   3790621   3782402   3774222  
  5110.000000   3766131   3758133   3750217   3742343   3734480  
  5100.000000   3726599   3718702   3710800   3702920   3695074  
  5090.000000   3687277   3679527   3671824   3664158   3656532  
  5080.000000   3648935   3641359   3633779   3626173   3618506  
  5070.000000   3610762   3602925   3595002   3586999   3578932  
  5060.000000   3570807   3562632   3554406   3546140   3537837  
  5050.000000   3529515   3521184   3512859   3504540   3496231  
  5040.000000   3487928   3479636   3471365   3463132   3454956  
  5030.000000   3446848   3438814   3430845   3422937   3415075  
  5020.000000   3407269   3399525   3391873   3384332   3376937  
  5010.000000   3369689   3362609   3355678   3348905   3342267  
  5000.000000   3335781   3329434   3323258   3317249   3311457  
  4990.000000   3305889   3300608   3295624   3290995   3286712  
  4980.000000   3282811   3279252   3276047   3273143   3270562  
  4970.000000   3268270   3266318   3264693   3263460   3262603  
  4960.000000   3262170   3262121   3262485   3263210   3264323  
  4950.000000   3265778   3267608   3269773   3272313   3275192  
  4940.000000   3278454   3282066   3286071   3290430   3295169  
  4930.000000   3300231   3305620   3311271   3317193   3323343  
  4920.000000   3329757   3336419   3343377   3350616   3358162  
  4910.000000   3365976   3374059   3382362   3390884   3399588  
  4900.000000   3408481   3417540   3426771   3436149   3445667  
  4890.000000   3455297   3465021   3474805   3484624   3494444  
  4880.000000   3504229   3513950   3523572   3533072   3542422  
  4870.000000   3551610   3560612   3569421   3578016   3586399  
  4860.000000   3594555   3602501   3610231   3617776   3625135  
  4850.000000   3632346   3639414   3646380   3653250   3660059  
  4840.000000   3666796   3673478   3680068   3686562   3692915  
  4830.000000   3699124   3705156   3711021   3716693   3722179  
  4820.000000   3727443   3732476   3737237   3741728   3745929  
  4810.000000   3749869   3753559   3757048   3760353   3763519  
  4800.000000   3766554   3769498   3772357   3775166   3777929  
  4790.000000   3780671   3783380   3786062   3788686   3791250  
  4780.000000   3793725   3796111   3798387   3800559   3802605  
  4770.000000   3804531   3806321   3807991   3809534   3810976  
  4760.000000   3812311   3813553   3814670   3815651   3816445  
  4750.000000   3817034   3817377   3817479   3817322   3816937  
  4740.000000   3816321   3815511   3814509   3813353   3812046  
  4730.000000   3810623   3809080   3807435   3805670   3803786  
  4720.000000   3801761   3799604   3797317   3794931   3792471  
  4710.000000   3789974   3787458   3784946   3782435   3779939  
  4700.000000   3777454   3774997   3772572   3770193   3767848  
  4690.000000   3765528   3763202   3760844   3758424   3755926  
  4680.000000   3753340   3750665   3747898   3745038   3742079  
  4670.000000   3739016   3735858   3732620   3729338   3726051  
  4660.000000   3722810   3719651   3716610   3713702   3710944  
  4650.000000   3708337   3705896   3703619   3701522   3699600  
  4640.000000   3697861   3696292   3694894   3693652   3692566  
  4630.000000   3691615   3690788   3690049   3689373   3688713  
  4620.000000   3688047   3687345   3686610   3685841   3685057  
  4610.000000   3684262   3683464   3682657   3681837   3680999  
  4600.000000   3680151   3679308   3678495   3677736   3677050  
  4590.000000   3676446   3675921   3675466   3675063   3674695  
  4580.000000   3674344   3673993   3673622   3673214   3672757  
  4570.000000   3672243   3671670   3671044   3670372   3669658  
  4560.000000   3668905   3668112   3667278   3666403   3665498  
  4550.000000   3664575   3663654   3662744   3661859   3660993  
  4540.000000   3660152   3659325   3658528   3657758   3657046  
  4530.000000   3656395   3655841   3655384   3655068   3654896  
  4520.000000   3654934   3655198   3655770   3656660   3657942  
  4510.000000   3659597   3661684   3664172   3667130   3670539  
  4500.000000   3674494   3678992   3684137   3689920   3696432  
  4490.000000   3703648   3711641   3720370   3729882   3740106  
  4480.000000   3751051   3762610   3774759   3787382   3800454  
  4470.000000   3813881   3827652   3841695   3856001   3870499  
  4460.000000   3885170   3899948   3914805   3929691   3944575  
  4450.000000   3959416   3974174   3988812   4003285   4017575  
  4440.000000   4031649   4045523   4059177   4072647   4085906  
  4430.000000   4098988   4111839   4124487   4136856   4148970  
  4420.000000   4160738   4172176   4183169   4193715   4203675  
  4410.000000   4213023   4221606   4229396   4236253   4242173  
  4400.000000   4247065   4250976   4253880   4255878   4256999  
  4390.000000   4257373   4257056   4256179   4254811   4253083  
  4380.000000   4251085   4248961   4246836   4244869   4243203  
  4370.000000   4241982   4241326   4241319   4242017   4243419  
  4360.000000   4245510   4248220   4251487   4255207   4259310  
  4350.000000   4263698   4268319   4273112   4278064   4283153  
  4340.000000   4288391   4293759   4299237   4304749   4310191  
  4330.000000   4315410   4320238   4324518   4328133   4331048  
  4320.000000   4333303   4335042   4336439   4337721   4339050  
  4310.000000   4340575   4342324   4344299   4346403   4348560  
  4300.000000   4350649   4352608   4354361   4355888   4357154  
  4290.000000   4358159   4358886   4359349   4359552   4359535  
  4280.000000   4359326   4358991   4358564   4358110   4357645  
  4270.000000   4357208   4356784   4356371   4355911   4355359  
  4260.000000   4354622   4353625   4352282   4350546   4348393  
  4250.000000   4345858   4343007   4339948   4336796   4333668  
  4240.000000   4330653   4327817   4325180   4322750   4320501  
  4230.000000   4318408   4316437   4314558   4312740   4310948  
  4220.000000   4309151   4307312   4305413   4303432   4301381  
  4210.000000   4299272   4297146   4295033   4292979   4291008  
  4200.000000   4289150   4287408   4285800   4284319   4282981  
  4190.000000   4281772   4280711   4279772   4278973   4278278  
  4180.000000   4277709   4277237   4276912   4276736   4276809  
  4170.000000   4277177   4277976   4279268   4281182   4283739  
  4160.000000   4287014   4290959   4295589   4300811   4306627  
  4150.000000   4312945   4319790   4327094   4334910   4343191  
  4140.000000   4352007   4361324   4371217   4381653   4392694  
  4130.000000   4404283   4416446   4429095   4442232   4455770  
  4120.000000   4469722   4484035   4498755   4513859   4529398  
  4110.000000   4545352   4561751   4578558   4595780   4613364  
  4100.000000   4631293   4649508   4667978   4686642   4705471  
  4090.000000   4724418   4743462   4762571   4781729   4800920  
  4080.000000   4820129   4839364   4858618   4877920   4897263  
  4070.000000   4916673   4936112   4955579   4974994   4994335  
  4060.000000   5013491   5032430   5051023   5069238   5086940  
  4050.000000   5104124   5120689   5136688   5152057   5166875  
  4040.000000   5181050   5194619   5207420   5219450   5230535  
  4030.000000   5240712   5249857   5258055   5265218   5271415  
  4020.000000   5276510   5280562   5283506   5285423   5286231  
  4010.000000   5286094   5285096   5283295   5280471   5276777  
  4000.000000   5272652  
##END= 
