##TITLE= Sample 013 By ssteindl date Montag, November 19 2018
##JCAMP-DX= 4.24
##DATA TYPE= INFRARED SPECTRUM
##ORIGIN= Exported PE Spectrum Data File
##OWNER= Sandra Steindl
##DATE= 18/11/19
##TIME= 16:21:03.00
##SPECTROMETER/DATA SYSTEM= PERKIN-ELMER Frontier FT-IR/NIR IR
##INSTRUMENT PARAMETERS=
  APODIZATION=stark
  DETECTOR=INGAAS
##RESOLUTION= 16.000000
##DELTAX= -2.000000
##XUNITS= 1/CM
##YUNITS= A
##XFACTOR= 1.00
##YFACTOR= 0.00000011920928955078
##FIRSTX= 10000.00
##LASTX= 4000.00
##NPOINTS= 3001
##FIRSTY= 0.137147
##MAXY= 0.525371
##MINY= 0.118877
##XYDATA= (X++(Y..Y))
 10000.000000   1150475   1145348   1141813   1141791   1145140  
  9990.000000   1149942   1154335   1157160   1157883   1156680  
  9980.000000   1154642   1153205   1153391   1155425   1158955  
  9970.000000   1163260   1167657   1171690   1175187   1178041  
  9960.000000   1180013   1180750   1179875   1177398   1173818  
  9950.000000   1170210   1167834   1167698   1170095   1174405  
  9940.000000   1179271   1183051   1184382   1182625   1177954  
  9930.000000   1171216   1163500   1155889   1149209   1144127  
  9920.000000   1141137   1140634   1142752   1147183   1153063  
  9910.000000   1158983   1163336   1164697   1162335   1156409  
  9900.000000   1147986   1138649   1130054   1123461   1119537  
  9890.000000   1118402   1119820   1123453   1128879   1135595  
  9880.000000   1142794   1149409   1154209   1156150   1154771  
  9870.000000   1150353   1144005   1137189   1131379   1127445  
  9860.000000   1125512   1124965   1124828   1124264   1122893  
  9850.000000   1121001   1119264   1118503   1119202   1121402  
  9840.000000   1124635   1128178   1131342   1133641   1134950  
  9830.000000   1135326   1134967   1133980   1132439   1130345  
  9820.000000   1127801   1124997   1122267   1119967   1118378  
  9810.000000   1117654   1117748   1118571   1120004   1122071  
  9800.000000   1124892   1128619   1133281   1138617   1144063  
  9790.000000   1148801   1152022   1153139   1152032   1149093  
  9780.000000   1145142   1141219   1138275   1136959   1137443  
  9770.000000   1139481   1142491   1145786   1148658   1150555  
  9760.000000   1151047   1149951   1147297   1143412   1138897  
  9750.000000   1134547   1131210   1129510   1129631   1131183  
  9740.000000   1133246   1134679   1134482   1132204   1128133  
  9730.000000   1123207   1118712   1115761   1114928   1115959  
  9720.000000   1117956   1119670   1120064   1118674   1115804  
  9710.000000   1112401   1109635   1108541   1109582   1112661  
  9700.000000   1117146   1122210   1127071   1131151   1134158  
  9690.000000   1135932   1136412   1135467   1132988   1128902  
  9680.000000   1123338   1116663   1109468   1102506   1096491  
  9670.000000   1092079   1089679   1089541   1091625   1095650  
  9660.000000   1101025   1106867   1112103   1115593   1116422  
  9650.000000   1114088   1108751   1101229   1092922   1085466  
  9640.000000   1080360   1078586   1080343   1085036   1091390  
  9630.000000   1097826   1102820   1105279   1104775   1101539  
  9620.000000   1096377   1090330   1084462   1079535   1075969  
  9610.000000   1073789   1072794   1072715   1073340   1074640  
  9600.000000   1076632   1079388   1082777   1086508   1090081  
  9590.000000   1092939   1094655   1094980   1094026   1092046  
  9580.000000   1089479   1086641   1083733   1080760   1077603  
  9570.000000   1074202   1070599   1067146   1064365   1062967  
  9560.000000   1063537   1066422   1071480   1078048   1085012  
  9550.000000   1090989   1094725   1095315   1092551   1086873  
  9540.000000   1079346   1071325   1064171   1058924   1056129  
  9530.000000   1055802   1057531   1060682   1064550   1068524  
  9520.000000   1072064   1074756   1076272   1076456   1075409  
  9510.000000   1073508   1071412   1069853   1069463   1070502  
  9500.000000   1072760   1075616   1078232   1079908   1080278  
  9490.000000   1079482   1078003   1076473   1075332   1074672  
  9480.000000   1074201   1073419   1071875   1069385   1066147  
  9470.000000   1062658   1059519   1057185   1055786   1055115  
  9460.000000   1054750   1054262   1053410   1052192   1050845  
  9450.000000   1049679   1048988   1048918   1049483   1050566  
  9440.000000   1052011   1053651   1055364   1057050   1058628  
  9430.000000   1060039   1061252   1062309   1063298   1064344  
  9420.000000   1065522   1066817   1068078   1069069   1069501  
  9410.000000   1069160   1067944   1065934   1063337   1060454  
  9400.000000   1057569   1054894   1052514   1050409   1048467  
  9390.000000   1046564   1044591   1042514   1040371   1038286  
  9380.000000   1036418   1034946   1033996   1033615   1033745  
  9370.000000   1034223   1034849   1035403   1035759   1035840  
  9360.000000   1035693   1035375   1034974   1034493   1033894  
  9350.000000   1033085   1032024   1030770   1029518   1028583  
  9340.000000   1028299   1028947   1030618   1033193   1036314  
  9330.000000   1039473   1042139   1043878   1044475   1043940  
  9320.000000   1042497   1040479   1038252   1036118   1034280  
  9310.000000   1032839   1031836   1031290   1031200   1031554  
  9300.000000   1032259   1033163   1034025   1034608   1034741  
  9290.000000   1034393   1033703   1032921   1032331   1032115  
  9280.000000   1032299   1032714   1033105   1033240   1033037  
  9270.000000   1032597   1032144   1031927   1032085   1032602  
  9260.000000   1033295   1033939   1034376   1034602   1034765  
  9250.000000   1035065   1035616   1036340   1036953   1037093  
  9240.000000   1036477   1035061   1033068   1030943   1029189  
  9230.000000   1028179   1028007   1028468   1029180   1029733  
  9220.000000   1029854   1029434   1028513   1027200   1025610  
  9210.000000   1023859   1022065   1020428   1019240   1018876  
  9200.000000   1019654   1021682   1024733   1028270   1031584  
  9190.000000   1033965   1034919   1034265   1032204   1029173  
  9180.000000   1025723   1022331   1019350   1017013   1015447  
  9170.000000   1014740   1014892   1015869   1017534   1019691  
  9160.000000   1022065   1024353   1026283   1027637   1028294  
  9150.000000   1028147   1027157   1025315   1022777   1019851  
  9140.000000   1017013   1014827   1013782   1014195   1016017  
  9130.000000   1018899   1022219   1025351   1027828   1029464  
  9120.000000   1030343   1030655   1030587   1030126   1029110  
  9110.000000   1027247   1024376   1020586   1016341   1012357  
  9100.000000   1009399   1008083   1008625   1010865   1014210  
  9090.000000   1017960   1021431   1024230   1026240   1027618  
  9080.000000   1028656   1029597   1030528   1031269   1031469  
  9070.000000   1030660   1028481   1024784   1019759   1013923  
  9060.000000   1008015   1002867   0999155   0997282   0997215  
  9050.000000   0998563   1000666   1002807   1004383   1005064  
  9040.000000   1004851   1004006   1002942   1002050   1001624  
  9030.000000   1001738   1002315   1003123   1003930   1004528  
  9020.000000   1004807   1004754   1004436   1003989   1003541  
  9010.000000   1003205   1003044   1003073   1003265   1003550  
  9000.000000   1003852   1004081   1004176   1004086   1003794  
  8990.000000   1003293   1002632   1001868   1001101   1000427  
  8980.000000   0999952   0999747   0999850   1000263   1000972  
  8970.000000   1001974   1003281   1004923   1006910   1009216  
  8960.000000   1011736   1014301   1016707   1018774   1020403  
  8950.000000   1021593   1022422   1022991   1023365   1023536  
  8940.000000   1023431   1022975   1022149   1021046   1019837  
  8930.000000   1018742   1017899   1017352   1016990   1016662  
  8920.000000   1016230   1015690   1015168   1014873   1014991  
  8910.000000   1015546   1016359   1017064   1017258   1016637  
  8900.000000   1015149   1013006   1010651   1008604   1007318  
  8890.000000   1007047   1007809   1009417   1011558   1013868  
  8880.000000   1015990   1017625   1018585   1018816   1018445  
  8870.000000   1017744   1017105   1016901   1017377   1018531  
  8860.000000   1020117   1021708   1022891   1023429   1023388  
  8850.000000   1023107   1023047   1023580   1024803   1026494  
  8840.000000   1028194   1029419   1029894   1029691   1029208  
  8830.000000   1029017   1029596   1031146   1033479   1036125  
  8820.000000   1038504   1040172   1040951   1040973   1040558  
  8810.000000   1040074   1039767   1039712   1039819   1039927  
  8800.000000   1039898   1039653   1039184   1038495   1037579  
  8790.000000   1036414   1034995   1033408   1031844   1030587  
  8780.000000   1029938   1030103   1031131   1032861   1034998  
  8770.000000   1037175   1039091   1040551   1041522   1042063  
  8760.000000   1042322   1042438   1042574   1042858   1043428  
  8750.000000   1044394   1045833   1047755   1050083   1052678  
  8740.000000   1055354   1057961   1060401   1062665   1064787  
  8730.000000   1066801   1068688   1070365   1071705   1072594  
  8720.000000   1072989   1072957   1072659   1072299   1072047  
  8710.000000   1071985   1072079   1072224   1072273   1072125  
  8700.000000   1071750   1071223   1070696   1070362   1070401  
  8690.000000   1070937   1072000   1073527   1075364   1077306  
  8680.000000   1079145   1080710   1081933   1082842   1083571  
  8670.000000   1084272   1085079   1086025   1087050   1088003  
  8660.000000   1088732   1089141   1089266   1089261   1089358  
  8650.000000   1089778   1090646   1091950   1093546   1095221  
  8640.000000   1096781   1098116   1099231   1100222   1101225  
  8630.000000   1102351   1103660   1105139   1106745   1108408  
  8620.000000   1110078   1111700   1113233   1114616   1115810  
  8610.000000   1116796   1117625   1118423   1119380   1120689  
  8600.000000   1122467   1124723   1127323   1130059   1132691  
  8590.000000   1135067   1137155   1139034   1140834   1142636  
  8580.000000   1144435   1146076   1147334   1147974   1147882  
  8570.000000   1147112   1145890   1144582   1143570   1143214  
  8560.000000   1143716   1145170   1147513   1150594   1154152  
  8550.000000   1157867   1161377   1164312   1166354   1167289  
  8540.000000   1167107   1165986   1164296   1162477   1160977  
  8530.000000   1160111   1160034   1160709   1161971   1163593  
  8520.000000   1165337   1167030   1168541   1169825   1170891  
  8510.000000   1171821   1172772   1173939   1175537   1177694  
  8500.000000   1180407   1183477   1186552   1189199   1191052  
  8490.000000   1191939   1191970   1191499   1191011   1190939  
  8480.000000   1191514   1192693   1194188   1195607   1196618  
  8470.000000   1197105   1197204   1197254   1197628   1198606  
  8460.000000   1200237   1202345   1204585   1206589   1208100  
  8450.000000   1209038   1209511   1209741   1209968   1210372  
  8440.000000   1211008   1211837   1212757   1213669   1214495  
  8430.000000   1215202   1215781   1216240   1216572   1216769  
  8420.000000   1216821   1216737   1216549   1216303   1216039  
  8410.000000   1215799   1215601   1215477   1215450   1215578  
  8400.000000   1215922   1216541   1217439   1218545   1219705  
  8390.000000   1220702   1221305   1221324   1220677   1219432  
  8380.000000   1217803   1216110   1214688   1213822   1213658  
  8370.000000   1214185   1215209   1216436   1217536   1218240  
  8360.000000   1218388   1217953   1217021   1215748   1214305  
  8350.000000   1212822   1211388   1210046   1208837   1207808  
  8340.000000   1207024   1206551   1206417   1206608   1207024  
  8330.000000   1207532   1207972   1208231   1208264   1208105  
  8320.000000   1207843   1207573   1207357   1207181   1206967  
  8310.000000   1206583   1205926   1204939   1203661   1202202  
  8300.000000   1200727   1199391   1198301   1197498   1196950  
  8290.000000   1196600   1196390   1196303   1196368   1196646  
  8280.000000   1197191   1198015   1199053   1200169   1201181  
  8270.000000   1201907   1202219   1202077   1201540   1200748  
  8260.000000   1199869   1199060   1198408   1197935   1197574  
  8250.000000   1197230   1196776   1196118   1195189   1193984  
  8240.000000   1192528   1190878   1189100   1187257   1185394  
  8230.000000   1183526   1181638   1179703   1177695   1175638  
  8220.000000   1173605   1171742   1170230   1169256   1168937  
  8210.000000   1169268   1170079   1171056   1171814   1171998  
  8200.000000   1171392   1169974   1167939   1165621   1163406  
  8190.000000   1161590   1160300   1159445   1158783   1158001  
  8180.000000   1156850   1155219   1153176   1150933   1148758  
  8170.000000   1146907   1145523   1144637   1144166   1143988  
  8160.000000   1143993   1144111   1144321   1144600   1144894  
  8150.000000   1145080   1144976   1144389   1143185   1141357  
  8140.000000   1139059   1136581   1134277   1132466   1131339  
  8130.000000   1130911   1131015   1131375   1131670   1131642  
  8120.000000   1131134   1130127   1128713   1127058   1125353  
  8110.000000   1123768   1122422   1121364   1120578   1119982  
  8100.000000   1119459   1118876   1118124   1117147   1115960  
  8090.000000   1114640   1113307   1112079   1111034   1110192  
  8080.000000   1109524   1108977   1108507   1108111   1107823  
  8070.000000   1107694   1107757   1107987   1108301   1108555  
  8060.000000   1108601   1108310   1107628   1106573   1105241  
  8050.000000   1103773   1102322   1101031   1100006   1099319  
  8040.000000   1098982   1098967   1099185   1099511   1099798  
  8030.000000   1099913   1099768   1099333   1098645   1097770  
  8020.000000   1096789   1095745   1094657   1093512   1092307  
  8010.000000   1091069   1089868   1088812   1088006   1087529  
  8000.000000   1087401   1087578   1087968   1088452   1088912  
  7990.000000   1089243   1089364   1089220   1088797   1088131  
  7980.000000   1087326   1086541   1085962   1085744   1085945  
  7970.000000   1086491   1087172   1087704   1087817   1087353  
  7960.000000   1086324   1084904   1083374   1082018   1081033  
  7950.000000   1080477   1080276   1080276   1080321   1080308  
  7940.000000   1080215   1080081   1079964   1079910   1079935  
  7930.000000   1080032   1080203   1080461   1080843   1081367  
  7920.000000   1082013   1082697   1083291   1083661   1083724  
  7910.000000   1083488   1083061   1082612   1082319   1082296  
  7900.000000   1082564   1083040   1083578   1084025   1084262  
  7890.000000   1084253   1084032   1083701   1083386   1083217  
  7880.000000   1083287   1083643   1084268   1085083   1085954  
  7870.000000   1086716   1087215   1087340   1087065   1086454  
  7860.000000   1085644   1084804   1084086   1083583   1083315  
  7850.000000   1083242   1083294   1083409   1083548   1083708  
  7840.000000   1083897   1084119   1084359   1084587   1084769  
  7830.000000   1084883   1084932   1084940   1084937   1084950  
  7820.000000   1084987   1085041   1085093   1085123   1085112  
  7810.000000   1085041   1084880   1084593   1084142   1083513  
  7800.000000   1082728   1081867   1081049   1080409   1080048  
  7790.000000   1079995   1080187   1080484   1080704   1080686  
  7780.000000   1080336   1079661   1078760   1077803   1076969  
  7770.000000   1076415   1076228   1076415   1076912   1077594  
  7760.000000   1078314   1078918   1079281   1079314   1078983  
  7750.000000   1078307   1077357   1076248   1075116   1074107  
  7740.000000   1073350   1072945   1072933   1073301   1073962  
  7730.000000   1074779   1075565   1076137   1076336   1076070  
  7720.000000   1075334   1074209   1072850   1071433   1070131  
  7710.000000   1069050   1068230   1067630   1067160   1066709  
  7700.000000   1066187   1065548   1064810   1064050   1063381  
  7690.000000   1062925   1062775   1062971   1063489   1064239  
  7680.000000   1065105   1065959   1066706   1067292   1067706  
  7670.000000   1067962   1068081   1068073   1067941   1067680  
  7660.000000   1067312   1066871   1066420   1066016   1065688  
  7650.000000   1065424   1065166   1064846   1064412   1063873  
  7640.000000   1063301   1062822   1062563   1062612   1062975  
  7630.000000   1063573   1064274   1064938   1065471   1065844  
  7620.000000   1066095   1066283   1066464   1066647   1066805  
  7610.000000   1066881   1066829   1066628   1066304   1065912  
  7600.000000   1065521   1065200   1065001   1064974   1065154  
  7590.000000   1065574   1066241   1067126   1068147   1069180  
  7580.000000   1070078   1070717   1071035   1071043   1070834  
  7570.000000   1070527   1070251   1070075   1070019   1070046  
  7560.000000   1070102   1070150   1070186   1070243   1070377  
  7550.000000   1070642   1071074   1071682   1072448   1073334  
  7540.000000   1074286   1075242   1076137   1076909   1077520  
  7530.000000   1077969   1078307   1078621   1079018   1079577  
  7520.000000   1080333   1081236   1082188   1083056   1083736  
  7510.000000   1084180   1084418   1084543   1084676   1084933  
  7500.000000   1085403   1086130   1087126   1088367   1089818  
  7490.000000   1091410   1093060   1094652   1096069   1097212  
  7480.000000   1098051   1098622   1099045   1099471   1100058  
  7470.000000   1100911   1102064   1103478   1105069   1106745  
  7460.000000   1108439   1110118   1111776   1113413   1115019  
  7450.000000   1116568   1118032   1119386   1120639   1121819  
  7440.000000   1122984   1124177   1125436   1126759   1128130  
  7430.000000   1129516   1130891   1132236   1133554   1134857  
  7420.000000   1136168   1137523   1138960   1140528   1142265  
  7410.000000   1144195   1146306   1148546   1150824   1153027  
  7400.000000   1155054   1156837   1158358   1159642   1160749  
  7390.000000   1161747   1162702   1163663   1164674   1165782  
  7380.000000   1167031   1168467   1170102   1171924   1173872  
  7370.000000   1175873   1177847   1179747   1181565   1183336  
  7360.000000   1185109   1186918   1188755   1190565   1192262  
  7350.000000   1193757   1194997   1195994   1196822   1197600  
  7340.000000   1198450   1199454   1200639   1201966   1203349  
  7330.000000   1204681   1205866   1206846   1207624   1208259  
  7320.000000   1208862   1209572   1210520   1211803   1213447  
  7310.000000   1215402   1217549   1219734   1221811   1223686  
  7300.000000   1225335   1226812   1228206   1229607   1231069  
  7290.000000   1232583   1234091   1235498   1236719   1237697  
  7280.000000   1238423   1238930   1239284   1239563   1239847  
  7270.000000   1240214   1240736   1241475   1242479   1243762  
  7260.000000   1245300   1247022   1248819   1250565   1252160  
  7250.000000   1253542   1254731   1255792   1256850   1258017  
  7240.000000   1259387   1260979   1262765   1264652   1266557  
  7230.000000   1268406   1270194   1271960   1273796   1275793  
  7220.000000   1278032   1280532   1283268   1286151   1289082  
  7210.000000   1291953   1294706   1297321   1299845   1302349  
  7200.000000   1304931   1307669   1310619   1313793   1317173  
  7190.000000   1320706   1324330   1327967   1331549   1335011  
  7180.000000   1338313   1341429   1344371   1347162   1349859  
  7170.000000   1352513   1355196   1357953   1360834   1363855  
  7160.000000   1367025   1370327   1373746   1377262   1380872  
  7150.000000   1384580   1388419   1392419   1396619   1401023  
  7140.000000   1405618   1410330   1415078   1419751   1424285  
  7130.000000   1428639   1432853   1436995   1441183   1445510  
  7120.000000   1450056   1454830   1459809   1464922   1470108  
  7110.000000   1475315   1480534   1485773   1491067   1496431  
  7100.000000   1501875   1507372   1512891   1518389   1523844  
  7090.000000   1529246   1534616   1539988   1545406   1550912  
  7080.000000   1556529   1562253   1568054   1573870   1579628  
  7070.000000   1585254   1590697   1595940   1601003   1605931  
  7060.000000   1610780   1615595   1620400   1625202   1629999  
  7050.000000   1634800   1639625   1644515   1649505   1654622  
  7040.000000   1659858   1665178   1670526   1675850   1681106  
  7030.000000   1686281   1691372   1696390   1701333   1706195  
  7020.000000   1710957   1715612   1720163   1724631   1729034  
  7010.000000   1733393   1737697   1741928   1746049   1750051  
  7000.000000   1753937   1757748   1761527   1765316   1769118  
  6990.000000   1772910   1776636   1780254   1783736   1787101  
  6980.000000   1790383   1793631   1796861   1800066   1803198  
  6970.000000   1806214   1809078   1811806   1814432   1817019  
  6960.000000   1819602   1822195   1824762   1827260   1829637  
  6950.000000   1831884   1834015   1836081   1838121   1840167  
  6940.000000   1842208   1844223   1846175   1848052   1849853  
  6930.000000   1851604   1853326   1855027   1856688   1858279  
  6920.000000   1859763   1861126   1862377   1863553   1864695  
  6910.000000   1865841   1866999   1868167   1869322   1870456  
  6900.000000   1871564   1872663   1873771   1874901   1876048  
  6890.000000   1877193   1878304   1879348   1880302   1881155  
  6880.000000   1881914   1882593   1883217   1883823   1884453  
  6870.000000   1885163   1886003   1887016   1888211   1889567  
  6860.000000   1891025   1892505   1893916   1895185   1896263  
  6850.000000   1897132   1897802   1898302   1898668   1898947  
  6840.000000   1899184   1899427   1899717   1900090   1900555  
  6830.000000   1901106   1901706   1902310   1902863   1903328  
  6820.000000   1903680   1903924   1904084   1904203   1904323  
  6810.000000   1904488   1904723   1905035   1905407   1905805  
  6800.000000   1906181   1906491   1906705   1906817   1906844  
  6790.000000   1906826   1906800   1906797   1906826   1906878  
  6780.000000   1906934   1906975   1906991   1906982   1906950  
  6770.000000   1906896   1906809   1906676   1906487   1906251  
  6760.000000   1905999   1905779   1905640   1905615   1905707  
  6750.000000   1905884   1906095   1906288   1906428   1906511  
  6740.000000   1906557   1906599   1906666   1906775   1906926  
  6730.000000   1907115   1907336   1907590   1907878   1908196  
  6720.000000   1908524   1908829   1909065   1909199   1909215  
  6710.000000   1909127   1908971   1908793   1908631   1908511  
  6700.000000   1908434   1908397   1908386   1908396   1908419  
  6690.000000   1908443   1908441   1908383   1908228   1907957  
  6680.000000   1907566   1907085   1906555   1906025   1905520  
  6670.000000   1905046   1904578   1904087   1903541   1902934  
  6660.000000   1902268   1901564   1900831   1900072   1899266  
  6650.000000   1898396   1897443   1896411   1895317   1894195  
  6640.000000   1893074   1891976   1890906   1889860   1888825  
  6630.000000   1887794   1886759   1885721   1884677   1883624  
  6620.000000   1882556   1881473   1880375   1879271   1878167  
  6610.000000   1877065   1875957   1874831   1873669   1872468  
  6600.000000   1871234   1869987   1868746   1867520   1866295  
  6590.000000   1865039   1863711   1862277   1860726   1859078  
  6580.000000   1857371   1855656   1853975   1852357   1850818  
  6570.000000   1849365   1848005   1846748   1845599   1844550  
  6560.000000   1843569   1842609   1841609   1840528   1839351  
  6550.000000   1838100   1836828   1835591   1834426   1833333  
  6540.000000   1832273   1831183   1830001   1828689   1827246  
  6530.000000   1825708   1824134   1822586   1821114   1819748  
  6520.000000   1818495   1817346   1816285   1815288   1814327  
  6510.000000   1813373   1812399   1811380   1810304   1809172  
  6500.000000   1807998   1806805   1805618   1804462   1803355  
  6490.000000   1802312   1801341   1800439   1799592   1798771  
  6480.000000   1797932   1797027   1796013   1794869   1793600  
  6470.000000   1792236   1790825   1789409   1788015   1786646  
  6460.000000   1785287   1783911   1782501   1781055   1779591  
  6450.000000   1778140   1776741   1775426   1774216   1773120  
  6440.000000   1772136   1771248   1770436   1769665   1768907  
  6430.000000   1768127   1767320   1766489   1765674   1764918  
  6420.000000   1764274   1763768   1763405   1763151   1762962  
  6410.000000   1762784   1762587   1762357   1762111   1761868  
  6400.000000   1761649   1761456   1761282   1761105   1760910  
  6390.000000   1760687   1760439   1760175   1759905   1759636  
  6380.000000   1759368   1759103   1758843   1758594   1758358  
  6370.000000   1758134   1757909   1757661   1757363   1756999  
  6360.000000   1756565   1756077   1755560   1755044   1754542  
  6350.000000   1754059   1753583   1753099   1752594   1752069  
  6340.000000   1751525   1750971   1750408   1749834   1749245  
  6330.000000   1748643   1748037   1747450   1746903   1746413  
  6320.000000   1745971   1745551   1745109   1744603   1743999  
  6310.000000   1743295   1742503   1741659   1740792   1739933  
  6300.000000   1739090   1738268   1737462   1736668   1735871  
  6290.000000   1735054   1734184   1733228   1732150   1730934  
  6280.000000   1729587   1728148   1726676   1725232   1723860  
  6270.000000   1722577   1721368   1720199   1719031   1717840  
  6260.000000   1716619   1715386   1714162   1712971   1711822  
  6250.000000   1710715   1709636   1708572   1707511   1706445  
  6240.000000   1705371   1704284   1703177   1702044   1700876  
  6230.000000   1699665   1698409   1697103   1695750   1694354  
  6220.000000   1692928   1691492   1690075   1688712   1687436  
  6210.000000   1686266   1685209   1684250   1683359   1682502  
  6200.000000   1681646   1680763   1679841   1678871   1677854  
  6190.000000   1676795   1675707   1674611   1673538   1672520  
  6180.000000   1671588   1670753   1670006   1669315   1668636  
  6170.000000   1667924   1667149   1666306   1665411   1664497  
  6160.000000   1663600   1662746   1661946   1661195   1660476  
  6150.000000   1659770   1659060   1658332   1657578   1656791  
  6140.000000   1655965   1655098   1654190   1653246   1652278  
  6130.000000   1651297   1650321   1649364   1648439   1647557  
  6120.000000   1646726   1645952   1645237   1644572   1643951  
  6110.000000   1643356   1642780   1642212   1641655   1641112  
  6100.000000   1640595   1640107   1639652   1639222   1638814  
  6090.000000   1638420   1638049   1637707   1637418   1637196  
  6080.000000   1637059   1637007   1637037   1637129   1637267  
  6070.000000   1637425   1637595   1637762   1637935   1638122  
  6060.000000   1638352   1638644   1639029   1639517   1640120  
  6050.000000   1640821   1641612   1642466   1643379   1644340  
  6040.000000   1645369   1646472   1647673   1648970   1650367  
  6030.000000   1651841   1653383   1654968   1656596   1658255  
  6020.000000   1659958   1661699   1663492   1665329   1667226  
  6010.000000   1669176   1671199   1673290   1675465   1677713  
  6000.000000   1680043   1682446   1684935   1687518   1690222  
  5990.000000   1693059   1696050   1699184   1702455   1705828  
  5980.000000   1709287   1712803   1716376   1719997   1723678  
  5970.000000   1727409   1731199   1735033   1738918   1742852  
  5960.000000   1746856   1750932   1755094   1759324   1763606  
  5950.000000   1767905   1772202   1776488   1780785   1785128  
  5940.000000   1789561   1794120   1798814   1803633   1808534  
  5930.000000   1813471   1818389   1823243   1827987   1832586  
  5920.000000   1836998   1841192   1845138   1848831   1852283  
  5910.000000   1855529   1858612   1861579   1864459   1867279  
  5900.000000   1870044   1872777   1875491   1878229   1881016  
  5890.000000   1883889   1886846   1889875   1892929   1895961  
  5880.000000   1898912   1901742   1904416   1906914   1909221  
  5870.000000   1911331   1913249   1915001   1916632   1918207  
  5860.000000   1919796   1921462   1923241   1925141   1927142  
  5850.000000   1929215   1931330   1933472   1935640   1937842  
  5840.000000   1940085   1942369   1944688   1947028   1949385  
  5830.000000   1951755   1954145   1956556   1958988   1961421  
  5820.000000   1963839   1966215   1968539   1970811   1973045  
  5810.000000   1975258   1977460   1979660   1981847   1984029  
  5800.000000   1986200   1988394   1990622   1992922   1995279  
  5790.000000   1997680   2000042   2002289   2004293   2005958  
  5780.000000   2007169   2007857   2007959   2007467   2006393  
  5770.000000   2004816   2002830   2000581   1998198   1995817  
  5760.000000   1993512   1991339   1989292   1987365   1985525  
  5750.000000   1983770   1982092   1980504   1979007   1977600  
  5740.000000   1976269   1974997   1973770   1972575   1971411  
  5730.000000   1970269   1969147   1968026   1966899   1965755  
  5720.000000   1964601   1963450   1962322   1961220   1960141  
  5710.000000   1959062   1957959   1956816   1955643   1954474  
  5700.000000   1953357   1952340   1951445   1950669   1949973  
  5690.000000   1949312   1948636   1947922   1947158   1946357  
  5680.000000   1945522   1944659   1943743   1942753   1941650  
  5670.000000   1940408   1938998   1937406   1935613   1933612  
  5660.000000   1931392   1928970   1926373   1923658   1920887  
  5650.000000   1918130   1915438   1912847   1910367   1908001  
  5640.000000   1905742   1903594   1901557   1899631   1897810  
  5630.000000   1896071   1894393   1892744   1891116   1889502  
  5620.000000   1887920   1886376   1884887   1883449   1882063  
  5610.000000   1880721   1879432   1878206   1877068   1876031  
  5600.000000   1875104   1874269   1873505   1872777   1872061  
  5590.000000   1871338   1870604   1869856   1869091   1868295  
  5580.000000   1867458   1866573   1865645   1864695   1863753  
  5570.000000   1862848   1861994   1861186   1860404   1859621  
  5560.000000   1858812   1857968   1857089   1856184   1855260  
  5550.000000   1854316   1853345   1852339   1851296   1850226  
  5540.000000   1849144   1848070   1847014   1845979   1844955  
  5530.000000   1843937   1842919   1841908   1840914   1839948  
  5520.000000   1839008   1838083   1837153   1836199   1835208  
  5510.000000   1834181   1833126   1832053   1830965   1829861  
  5500.000000   1828732   1827578   1826404   1825233   1824084  
  5490.000000   1822973   1821892   1820812   1819690   1818489  
  5480.000000   1817184   1815781   1814305   1812798   1811296  
  5470.000000   1809825   1808394   1807001   1805638   1804301  
  5460.000000   1802980   1801663   1800326   1798939   1797471  
  5450.000000   1795905   1794249   1792534   1790815   1789141  
  5440.000000   1787550   1786050   1784633   1783275   1781965  
  5430.000000   1780694   1779473   1778305   1777194   1776123  
  5420.000000   1775083   1774058   1773071   1772146   1771338  
  5410.000000   1770677   1770183   1769826   1769572   1769365  
  5400.000000   1769185   1769019   1768908   1768879   1768986  
  5390.000000   1769236   1769644   1770182   1770853   1771642  
  5380.000000   1772579   1773668   1774939   1776375   1777978  
  5370.000000   1779704   1781552   1783486   1785532   1787673  
  5360.000000   1789950   1792350   1794924   1797672   1800677  
  5350.000000   1803964   1807633   1811699   1816225   1821165  
  5340.000000   1826534   1832258   1838372   1844838   1851732  
  5330.000000   1859034   1866815   1875020   1883690   1892750  
  5320.000000   1902264   1912200   1922681   1933714   1945440  
  5310.000000   1957845   1971024   1984914   1999572   2014923  
  5300.000000   2031035   2047857   2065482   2083877   2103127  
  5290.000000   2123169   2144030   2165582   2187780   2210463  
  5280.000000   2233593   2257079   2280980   2305317   2330213  
  5270.000000   2355694   2381783   2408365   2435288   2462346  
  5260.000000   2489374   2516280   2543052   2569746   2596401  
  5250.000000   2623034   2649541   2675802   2701600   2726824  
  5240.000000   2751345   2775223   2798476   2821265   2843618  
  5230.000000   2865630   2887211   2908332   2928805   2948573  
  5220.000000   2967489   2985598   3002873   3019475   3035447  
  5210.000000   3050961   3066005   3080639   3094724   3108226  
  5200.000000   3120972   3132976   3144162   3154648   3164435  
  5190.000000   3173659   3182292   3190406   3197923   3204890  
  5180.000000   3211241   3217056   3222303   3227066   3231292  
  5170.000000   3235025   3238183   3240800   3242815   3244296  
  5160.000000   3245223   3245678   3245638   3245166   3244228  
  5150.000000   3242885   3241125   3239030   3236605   3233926  
  5140.000000   3230976   3227796   3224350   3220671   3216745  
  5130.000000   3212625   3208318   3203877   3199300   3194616  
  5120.000000   3189812   3184913   3179918   3174866   3169766  
  5110.000000   3164644   3159493   3154314   3149094   3143839  
  5100.000000   3138558   3133284   3128044   3122869   3117768  
  5090.000000   3112742   3107774   3102853   3097960   3093092  
  5080.000000   3088233   3083377   3078502   3073594   3068633  
  5070.000000   3063617   3058548   3053442   3048306   3043142  
  5060.000000   3037928   3032641   3027239   3021704   3016021  
  5050.000000   3010209   3004286   2998291   2992244   2986171  
  5040.000000   2980079   2973981   2967881   2961793   2955718  
  5030.000000   2949658   2943600   2937528   2931419   2925263  
  5020.000000   2919057   2912815   2906564   2900326   2894130  
  5010.000000   2887985   2881906   2875889   2869954   2864106  
  5000.000000   2858378   2852784   2847356   2842100   2837039  
  4990.000000   2832165   2827500   2823034   2818791   2814752  
  4980.000000   2810933   2807302   2803865   2800587   2797488  
  4970.000000   2794554   2791828   2789310   2787051   2785040  
  4960.000000   2783315   2781849   2780675   2779767   2779168  
  4950.000000   2778859   2778885   2779221   2779903   2780893  
  4940.000000   2782228   2783876   2785887   2788241   2790996  
  4930.000000   2794125   2797675   2801606   2805949   2810660  
  4920.000000   2815768   2821233   2827083   2833278   2839838  
  4910.000000   2846722   2853944   2861470   2869310   2877431  
  4900.000000   2885824   2894444   2903256   2912206   2921247  
  4890.000000   2930339   2939434   2948504   2957487   2966344  
  4880.000000   2974984   2983355   2991349   2998922   3005976  
  4870.000000   3012491   3018387   3023665   3028264   3032211  
  4860.000000   3035476   3038122   3040151   3041653   3042645  
  4850.000000   3043215   3043373   3043197   3042694   3041938  
  4840.000000   3040946   3039794   3038503   3037136   3035709  
  4830.000000   3034263   3032809   3031376   3029980   3028645  
  4820.000000   3027393   3026241   3025208   3024303   3023539  
  4810.000000   3022920   3022461   3022156   3022013   3022013  
  4800.000000   3022151   3022398   3022745   3023171   3023683  
  4790.000000   3024274   3024963   3025751   3026647   3027641  
  4780.000000   3028728   3029889   3031110   3032373   3033667  
  4770.000000   3034975   3036290   3037598   3038891   3040161  
  4760.000000   3041402   3042612   3043790   3044933   3046042  
  4750.000000   3047113   3048144   3049133   3050077   3050978  
  4740.000000   3051835   3052657   3053451   3054234   3055021  
  4730.000000   3055833   3056683   3057579   3058518   3059481  
  4720.000000   3060452   3061403   3062326   3063210   3064077  
  4710.000000   3064941   3065845   3066812   3067885   3069085  
  4700.000000   3070454   3072013   3073808   3075861   3078210  
  4690.000000   3080862   3083827   3087077   3090588   3094303  
  4680.000000   3098176   3102132   3106122   3110073   3113948  
  4670.000000   3117700   3121329   3124835   3128263   3131649  
  4660.000000   3135058   3138528   3142109   3145821   3149690  
  4650.000000   3153726   3157946   3162355   3166955   3171735  
  4640.000000   3176665   3181707   3186807   3191921   3197004  
  4630.000000   3202033   3206981   3211839   3216579   3221183  
  4620.000000   3225604   3229813   3233761   3237433   3240801  
  4610.000000   3243881   3246660   3249171   3251403   3253390  
  4600.000000   3255119   3256631   3257924   3259048   3260007  
  4590.000000   3260843   3261533   3262085   3262441   3262577  
  4580.000000   3262431   3261994   3261244   3260219   3258949  
  4570.000000   3257504   3255927   3254276   3252566   3250821  
  4560.000000   3249029   3247197   3245314   3243398   3241454  
  4550.000000   3239505   3237558   3235627   3233704   3231782  
  4540.000000   3229846   3227884   3225891   3223863   3221811  
  4530.000000   3219739   3217665   3215594   3213547   3211526  
  4520.000000   3209557   3207639   3205805   3204055   3202430  
  4510.000000   3200934   3199624   3198509   3197666   3197105  
  4500.000000   3196903   3197055   3197628   3198599   3200036  
  4490.000000   3201920   3204342   3207303   3210913   3215174  
  4480.000000   3220178   3225896   3232379   3239559   3247458  
  4470.000000   3255989   3265159   3274876   3285140   3295858  
  4460.000000   3307028   3318566   3330479   3342698   3355232  
  4450.000000   3368021   3381061   3394289   3407691   3421220  
  4440.000000   3434865   3448607   3462438   3476347   3490298  
  4430.000000   3504255   3518144   3531913   3545473   3558791  
  4420.000000   3571797   3584489   3596806   3608750   3620244  
  4410.000000   3631265   3641722   3651591   3660799   3669365  
  4400.000000   3677274   3684605   3691396   3697762   3703765  
  4390.000000   3709523   3715096   3720589   3726042   3731532  
  4380.000000   3737065   3742681   3748363   3754133   3759980  
  4370.000000   3765932   3771987   3778161   3784423   3790745  
  4360.000000   3797045   3803268   3809320   3815183   3820796  
  4350.000000   3826201   3831352   3836313   3841025   3845549  
  4340.000000   3849821   3853890   3857658   3861065   3863851  
  4330.000000   3865721   3866209   3864897   3861402   3855596  
  4320.000000   3847599   3837872   3827072   3815997   3805360  
  4310.000000   3795732   3787409   3780473   3774801   3770197  
  4300.000000   3766452   3763406   3760976   3759106   3757796  
  4290.000000   3756994   3756694   3756819   3757366   3758280  
  4280.000000   3759576   3761225   3763219   3765513   3768048  
  4270.000000   3770762   3773569   3776385   3779071   3781460  
  4260.000000   3783305   3784341   3784285   3782933   3780185  
  4250.000000   3776116   3770936   3765000   3758686   3752392  
  4240.000000   3746401   3740927   3736026   3731698   3727848  
  4230.000000   3724381   3721179   3718152   3715227   3712345  
  4220.000000   3709491   3706645   3703851   3701129   3698571  
  4210.000000   3696222   3694178   3692472   3691165   3690247  
  4200.000000   3689725   3689545   3689672   3690023   3690554  
  4190.000000   3691187   3691903   3692656   3693468   3694323  
  4180.000000   3695265   3696284   3697424   3698672   3700077  
  4170.000000   3701646   3703454   3705531   3707964   3710773  
  4160.000000   3714016   3717668   3721741   3726177   3730980  
  4150.000000   3736096   3741553   3747323   3753454   3759922  
  4140.000000   3766778   3773984   3781576   3789501   3797786  
  4130.000000   3806371   3815285   3824480   3834001   3843831  
  4120.000000   3854039   3864633   3875691   3887225   3899296  
  4110.000000   3911893   3925042   3938695   3952827   3967350  
  4100.000000   3982197   3997257   4012451   4027691   4042935  
  4090.000000   4058156   4073352   4088535   4103710   4118888  
  4080.000000   4134042   4149165   4164202   4179136   4193889  
  4070.000000   4208435   4222671   4236570   4250025   4263031  
  4060.000000   4275504   4287472   4298866   4309722   4319964  
  4050.000000   4329633   4338662   4347118   4354963   4362279  
  4040.000000   4369019   4375239   4380856   4385908   4390320  
  4030.000000   4394165   4397418   4400182   4402449   4404291  
  4020.000000   4405654   4406582   4407055   4407134   4406792  
  4010.000000   4406136   4405218   4404045   4402450   4400443  
  4000.000000   4398219  
##END= 
