##TITLE= Sample 010 By ssteindl date Dienstag, November 20 2018
##JCAMP-DX= 4.24
##DATA TYPE= INFRARED SPECTRUM
##ORIGIN= Exported PE Spectrum Data File
##OWNER= Sandra Steindl
##DATE= 18/11/20
##TIME= 14:05:18.00
##SPECTROMETER/DATA SYSTEM= PERKIN-ELMER Frontier FT-IR/NIR IR
##INSTRUMENT PARAMETERS=
  APODIZATION=stark
  DETECTOR=INGAAS
##RESOLUTION= 16.000000
##DELTAX= -2.000000
##XUNITS= 1/CM
##YUNITS= A
##XFACTOR= 1.00
##YFACTOR= 0.00000011920928955078
##FIRSTX= 10000.00
##LASTX= 4000.00
##NPOINTS= 3001
##FIRSTY= 0.219345
##MAXY= 0.588394
##MINY= 0.193151
##XYDATA= (X++(Y..Y))
 10000.000000   1839999   1842298   1843725   1843014   1839874  
  9990.000000   1834953   1829138   1823237   1818008   1813918  
  9980.000000   1810915   1808525   1806301   1804036   1801902  
  9970.000000   1800348   1799874   1800755   1802811   1805548  
  9960.000000   1808362   1810914   1813327   1816135   1820044  
  9950.000000   1825465   1832246   1839514   1845942   1850142  
  9940.000000   1851166   1848823   1843728   1837106   1830375  
  9930.000000   1824800   1821159   1819729   1820261   1822202  
  9920.000000   1824766   1827122   1828483   1828256   1826194  
  9910.000000   1822467   1817685   1812723   1808478   1805578  
  9900.000000   1804199   1804083   1804732   1805740   1807005  
  9890.000000   1808808   1811563   1815526   1820445   1825488  
  9880.000000   1829435   1831057   1829668   1825330   1818992  
  9870.000000   1812052   1805965   1801691   1799482   1798933  
  9860.000000   1799246   1799682   1799801   1799634   1799528  
  9850.000000   1799971   1801302   1803616   1806695   1810132  
  9840.000000   1813419   1816081   1817764   1818295   1817750  
  9830.000000   1816455   1814916   1813685   1813107   1813186  
  9820.000000   1813469   1813225   1811677   1808368   1803353  
  9810.000000   1797262   1791069   1785755   1781955   1779720  
  9800.000000   1778594   1777815   1776704   1774904   1772442  
  9790.000000   1769668   1766969   1764720   1763147   1762499  
  9780.000000   1763061   1765160   1769002   1774368   1780517  
  9770.000000   1786084   1789525   1789441   1785227   1777227  
  9760.000000   1766790   1755794   1746108   1739043   1735111  
  9750.000000   1734143   1735578   1738887   1743654   1749635  
  9740.000000   1756417   1763365   1769519   1773909   1775903  
  9730.000000   1775498   1773457   1770949   1769179   1768747  
  9720.000000   1769502   1770533   1770673   1769001   1765279  
  9710.000000   1760065   1754418   1749495   1746025   1744183  
  9700.000000   1743620   1743828   1744462   1745516   1747255  
  9690.000000   1749937   1753533   1757585   1761328   1763975  
  9680.000000   1765082   1764718   1763481   1762211   1761644  
  9670.000000   1762131   1763477   1765154   1766494   1767077  
  9660.000000   1766834   1766056   1765166   1764461   1763927  
  9650.000000   1763193   1761690   1758854   1754405   1748450  
  9640.000000   1741550   1734559   1728432   1723993   1721740  
  9630.000000   1721793   1723864   1727388   1731630   1735867  
  9620.000000   1739518   1742247   1744004   1744960   1745457  
  9610.000000   1745818   1746314   1747007   1747815   1748488  
  9600.000000   1748737   1748307   1747069   1745105   1742674  
  9590.000000   1740209   1738138   1736814   1736341   1736603  
  9580.000000   1737267   1737930   1738250   1738045   1737350  
  9570.000000   1736356   1735321   1734426   1733687   1732959  
  9560.000000   1732024   1730753   1729217   1727711   1726656  
  9550.000000   1726417   1727151   1728697   1730643   1732403  
  9540.000000   1733439   1733356   1732054   1729682   1726623  
  9530.000000   1723361   1720414   1718262   1717287   1717752  
  9520.000000   1719698   1722952   1727056   1731409   1735345  
  9510.000000   1738363   1740219   1740972   1740908   1740343  
  9500.000000   1739532   1738502   1737142   1735227   1732599  
  9490.000000   1729263   1725442   1721566   1718126   1715600  
  9480.000000   1714280   1714286   1715493   1717619   1720216  
  9470.000000   1722773   1724786   1725889   1725953   1725141  
  9460.000000   1723842   1722548   1721658   1721335   1721453  
  9450.000000   1721635   1721453   1720559   1718865   1716501  
  9440.000000   1713743   1710810   1707769   1704524   1700961  
  9430.000000   1697137   1693388   1690340   1688672   1688927  
  9420.000000   1691191   1695085   1699821   1704497   1708405  
  9410.000000   1711164   1712777   1713385   1713137   1711975  
  9400.000000   1709713   1706153   1701366   1695850   1690504  
  9390.000000   1686433   1684492   1685041   1687701   1691575  
  9380.000000   1695491   1698426   1699778   1699433   1697709  
  9370.000000   1695032   1691804   1688195   1684305   1680218  
  9360.000000   1676224   1672787   1670468   1669735   1670730  
  9350.000000   1673266   1676806   1680746   1684546   1687918  
  9340.000000   1690828   1693371   1695635   1697498   1698645  
  9330.000000   1698633   1697160   1694220   1690231   1685909  
  9320.000000   1682088   1679476   1678413   1678808   1680104  
  9310.000000   1681553   1682405   1682225   1680949   1678922  
  9300.000000   1676728   1674993   1674168   1674355   1675346  
  9290.000000   1676645   1677762   1678260   1677961   1676861  
  9280.000000   1675131   1673015   1670775   1668691   1667050  
  9270.000000   1666189   1666463   1668202   1671554   1676371  
  9260.000000   1682087   1687863   1692732   1695912   1696982  
  9250.000000   1696023   1693578   1690458   1687462   1685106  
  9240.000000   1683481   1682308   1681096   1679375   1676849  
  9230.000000   1673536   1669710   1665824   1662278   1659338  
  9220.000000   1657057   1655328   1653986   1652860   1651898  
  9210.000000   1651110   1650596   1650434   1650647   1651175  
  9200.000000   1651897   1652701   1653543   1654466   1655604  
  9190.000000   1657114   1659113   1661546   1664144   1666445  
  9180.000000   1667938   1668189   1667010   1664528   1661190  
  9170.000000   1657649   1654547   1652363   1651235   1651035  
  9160.000000   1651406   1651973   1652425   1652622   1652585  
  9150.000000   1652404   1652152   1651765   1651087   1649884  
  9140.000000   1648024   1645492   1642504   1639440   1636826  
  9130.000000   1635170   1634839   1635980   1638466   1641946  
  9120.000000   1645887   1649721   1652964   1655338   1656830  
  9110.000000   1657647   1658147   1658678   1659464   1660511  
  9100.000000   1661609   1662428   1662654   1662141   1660941  
  9090.000000   1659323   1657610   1656121   1654985   1654164  
  9080.000000   1653430   1652513   1651188   1649363   1647095  
  9070.000000   1644552   1641967   1639561   1637487   1635829  
  9060.000000   1634587   1633715   1633124   1632715   1632422  
  9050.000000   1632221   1632164   1632316   1632733   1633362  
  9040.000000   1634040   1634458   1634287   1633283   1631470  
  9030.000000   1629153   1626887   1625289   1624851   1625737  
  9020.000000   1627714   1630234   1632656   1634464   1635437  
  9010.000000   1635682   1635547   1635423   1635578   1636052  
  9000.000000   1636729   1637417   1638024   1638571   1639200  
  8990.000000   1640048   1641144   1642363   1643449   1644169  
  8980.000000   1644415   1644315   1644177   1644386   1645230  
  8970.000000   1646763   1648770   1650842   1652529   1653483  
  8960.000000   1653560   1652834   1651543   1649998   1648473  
  8950.000000   1647196   1646307   1645920   1646074   1646776  
  8940.000000   1647937   1649404   1650927   1652245   1653109  
  8930.000000   1653355   1652900   1651754   1649997   1647765  
  8920.000000   1645238   1642641   1640232   1638271   1636943  
  8910.000000   1636299   1636191   1636309   1636263   1635712  
  8900.000000   1634487   1632641   1630456   1628313   1626593  
  8890.000000   1625514   1625126   1625290   1625807   1626477  
  8880.000000   1627198   1627957   1628816   1629841   1631055  
  8870.000000   1632421   1633861   1635279   1636602   1637770  
  8860.000000   1638785   1639645   1640381   1640995   1641497  
  8850.000000   1641861   1642055   1642026   1641754   1641253  
  8840.000000   1640620   1640049   1639802   1640169   1641334  
  8830.000000   1643358   1646094   1649279   1652567   1655669  
  8820.000000   1658413   1660759   1662742   1664366   1665553  
  8810.000000   1666120   1665878   1664714   1662715   1660174  
  8800.000000   1657541   1655289   1653739   1652993   1652898  
  8790.000000   1653176   1653536   1653812   1653991   1654181  
  8780.000000   1654504   1655012   1655636   1656232   1656671  
  8770.000000   1656929   1657141   1657543   1658381   1659770  
  8760.000000   1661636   1663698   1665586   1666923   1667486  
  8750.000000   1667213   1666247   1664821   1663211   1661643  
  8740.000000   1660288   1659287   1658768   1658881   1659749  
  8730.000000   1661467   1664021   1667299   1671053   1674964  
  8720.000000   1678680   1681879   1684333   1685901   1686586  
  8710.000000   1686471   1685758   1684674   1683481   1682393  
  8700.000000   1681573   1681099   1680972   1681150   1681574  
  8690.000000   1682215   1683059   1684124   1685420   1686943  
  8680.000000   1688666   1690542   1692538   1694620   1696777  
  8670.000000   1698986   1701213   1703399   1705461   1707333  
  8660.000000   1708985   1710452   1711808   1713151   1714538  
  8650.000000   1715971   1717355   1718553   1719398   1719774  
  8640.000000   1719635   1719030   1718104   1717041   1716043  
  8630.000000   1715257   1714755   1714527   1714474   1714475  
  8620.000000   1714411   1714266   1714136   1714259   1714927  
  8610.000000   1716409   1718807   1721978   1725512   1728814  
  8600.000000   1731294   1732513   1732376   1731116   1729276  
  8590.000000   1727460   1726177   1725653   1725821   1726398  
  8580.000000   1727045   1727548   1727914   1728374   1729246  
  8570.000000   1730801   1733113   1736029   1739208   1742241  
  8560.000000   1744801   1746720   1748028   1748896   1749560  
  8550.000000   1750236   1751059   1752089   1753310   1754674  
  8540.000000   1756098   1757474   1758668   1759528   1759928  
  8530.000000   1759793   1759142   1758090   1756837   1755614  
  8520.000000   1754629   1754032   1753898   1754260   1755110  
  8510.000000   1756446   1758246   1760477   1763048   1765802  
  8500.000000   1768523   1770961   1772913   1774234   1774909  
  8490.000000   1775010   1774712   1774216   1773732   1773431  
  8480.000000   1773433   1773807   1774552   1775631   1776952  
  8470.000000   1778415   1779889   1781274   1782486   1783498  
  8460.000000   1784327   1785023   1785658   1786283   1786926  
  8450.000000   1787565   1788146   1788592   1788837   1788845  
  8440.000000   1788635   1788286   1787916   1787673   1787684  
  8430.000000   1788042   1788760   1789791   1791036   1792374  
  8420.000000   1793702   1794946   1796080   1797095   1797975  
  8410.000000   1798691   1799195   1799462   1799503   1799407  
  8400.000000   1799337   1799497   1800063   1801108   1802550  
  8390.000000   1804157   1805596   1806531   1806719   1806106  
  8380.000000   1804854   1803298   1801838   1800844   1800542  
  8370.000000   1800974   1801983   1803294   1804593   1805625  
  8360.000000   1806242   1806417   1806219   1805773   1805208  
  8350.000000   1804622   1804075   1803591   1803192   1802900  
  8340.000000   1802741   1802743   1802908   1803225   1803633  
  8330.000000   1804063   1804417   1804629   1804656   1804499  
  8320.000000   1804189   1803778   1803324   1802864   1802403  
  8310.000000   1801906   1801309   1800536   1799528   1798265  
  8300.000000   1796796   1795232   1793736   1792481   1791596  
  8290.000000   1791137   1791057   1791235   1791505   1791723  
  8280.000000   1791821   1791817   1791808   1791901   1792163  
  8270.000000   1792563   1792969   1793182   1793023   1792405  
  8260.000000   1791394   1790196   1789095   1788357   1788132  
  8250.000000   1788407   1788998   1789626   1790005   1789954  
  8240.000000   1789434   1788564   1787544   1786599   1785881  
  8230.000000   1785454   1785259   1785174   1785040   1784733  
  8220.000000   1784174   1783348   1782280   1781020   1779613  
  8210.000000   1778092   1776461   1774707   1772806   1770746  
  8200.000000   1768540   1766238   1763931   1761741   1759796  
  8190.000000   1758201   1756998   1756157   1755571   1755092  
  8180.000000   1754572   1753909   1753080   1752142   1751210  
  8170.000000   1750411   1749847   1749543   1749448   1749433  
  8160.000000   1749333   1748991   1748301   1747234   1745846  
  8150.000000   1744268   1742669   1741223   1740049   1739186  
  8140.000000   1738570   1738061   1737475   1736656   1735517  
  8130.000000   1734074   1732440   1730777   1729240   1727915  
  8120.000000   1726790   1725755   1724659   1723374   1721857  
  8110.000000   1720179   1718503   1717035   1715941   1715298  
  8100.000000   1715063   1715091   1715183   1715143   1714840  
  8090.000000   1714217   1713300   1712165   1710912   1709640  
  8080.000000   1708439   1707377   1706505   1705835   1705342  
  8070.000000   1704949   1704547   1704021   1703286   1702330  
  8060.000000   1701218   1700092   1699118   1698433   1698099  
  8050.000000   1698071   1698222   1698368   1698346   1698036  
  8040.000000   1697397   1696447   1695251   1693886   1692430  
  8030.000000   1690972   1689615   1688495   1687757   1687529  
  8020.000000   1687860   1688694   1689835   1690996   1691851  
  8010.000000   1692128   1691692   1690566   1688939   1687074  
  8000.000000   1685247   1683650   1682357   1681324   1680438  
  7990.000000   1679586   1678705   1677826   1677043   1676490  
  7980.000000   1676264   1676387   1676779   1677268   1677645  
  7970.000000   1677706   1677325   1676469   1675221   1673747  
  7960.000000   1672260   1670971   1670046   1669575   1669557  
  7950.000000   1669905   1670465   1671048   1671467   1671570  
  7940.000000   1671277   1670580   1669553   1668323   1667050  
  7930.000000   1665890   1664969   1664364   1664105   1664171  
  7920.000000   1664506   1665026   1665628   1666199   1666629  
  7910.000000   1666831   1666759   1666425   1665907   1665323  
  7900.000000   1664818   1664506   1664454   1664648   1665014  
  7890.000000   1665436   1665801   1666027   1666081   1665983  
  7880.000000   1665776   1665518   1665256   1665037   1664908  
  7870.000000   1664923   1665135   1665573   1666213   1666965  
  7860.000000   1667669   1668145   1668240   1667894   1667169  
  7850.000000   1666238   1665323   1664622   1664229   1664107  
  7840.000000   1664103   1664023   1663698   1663067   1662183  
  7830.000000   1661192   1660263   1659527   1659025   1658706  
  7820.000000   1658466   1658195   1657825   1657349   1656819  
  7810.000000   1656313   1655904   1655642   1655543   1655601  
  7800.000000   1655788   1656066   1656380   1656661   1656826  
  7790.000000   1656805   1656551   1656070   1655418   1654688  
  7780.000000   1653981   1653362   1652843   1652379   1651888  
  7770.000000   1651291   1650540   1649647   1648665   1647681  
  7760.000000   1646768   1645981   1645336   1644826   1644427  
  7750.000000   1644116   1643872   1643674   1643492   1643283  
  7740.000000   1642999   1642590   1642029   1641305   1640439  
  7730.000000   1639461   1638415   1637344   1636301   1635340  
  7720.000000   1634522   1633909   1633539   1633422   1633515  
  7710.000000   1633740   1633993   1634172   1634204   1634058  
  7700.000000   1633745   1633294   1632742   1632108   1631394  
  7690.000000   1630593   1629709   1628766   1627822   1626952  
  7680.000000   1626230   1625704   1625379   1625208   1625114  
  7670.000000   1625001   1624792   1624441   1623954   1623378  
  7660.000000   1622798   1622306   1621984   1621883   1622013  
  7650.000000   1622346   1622823   1623378   1623949   1624490  
  7640.000000   1624970   1625366   1625655   1625800   1625762  
  7630.000000   1625496   1624989   1624258   1623371   1622432  
  7620.000000   1621564   1620875   1620437   1620266   1620321  
  7610.000000   1620519   1620765   1620975   1621106   1621158  
  7600.000000   1621177   1621230   1621383   1621677   1622114  
  7590.000000   1622651   1623225   1623770   1624248   1624665  
  7580.000000   1625071   1625531   1626097   1626770   1627484  
  7570.000000   1628114   1628520   1628590   1628299   1627720  
  7560.000000   1627009   1626354   1625917   1625782   1625941  
  7550.000000   1626304   1626748   1627168   1627513   1627791  
  7540.000000   1628055   1628354   1628719   1629136   1629570  
  7530.000000   1629974   1630337   1630677   1631052   1631524  
  7520.000000   1632147   1632943   1633900   1634979   1636136  
  7510.000000   1637317   1638485   1639592   1640604   1641476  
  7500.000000   1642187   1642731   1643152   1643519   1643928  
  7490.000000   1644466   1645200   1646162   1647345   1648723  
  7480.000000   1650258   1651921   1653690   1655544   1657454  
  7470.000000   1659369   1661230   1662967   1664534   1665899  
  7460.000000   1667079   1668112   1669076   1670043   1671091  
  7450.000000   1672272   1673613   1675107   1676723   1678409  
  7440.000000   1680110   1681789   1683437   1685085   1686788  
  7430.000000   1688605   1690581   1692712   1694951   1697207  
  7420.000000   1699386   1701407   1703243   1704912   1706480  
  7410.000000   1708025   1709613   1711278   1713019   1714810  
  7400.000000   1716620   1718430   1720240   1722074   1723961  
  7390.000000   1725926   1727973   1730086   1732220   1734314  
  7380.000000   1736301   1738119   1739735   1741153   1742412  
  7370.000000   1743587   1744766   1746031   1747432   1748977  
  7360.000000   1750630   1752330   1754006   1755602   1757090  
  7350.000000   1758467   1759747   1760953   1762109   1763242  
  7340.000000   1764386   1765588   1766901   1768372   1770016  
  7330.000000   1771807   1773675   1775530   1777281   1778882  
  7320.000000   1780333   1781687   1783013   1784370   1785780  
  7310.000000   1787215   1788621   1789937   1791130   1792202  
  7300.000000   1793190   1794144   1795100   1796072   1797044  
  7290.000000   1797998   1798923   1799836   1800769   1801765  
  7280.000000   1802852   1804031   1805268   1806512   1807710  
  7270.000000   1808822   1809832   1810745   1811585   1812374  
  7260.000000   1813140   1813900   1814677   1815492   1816368  
  7250.000000   1817316   1818344   1819434   1820564   1821697  
  7240.000000   1822809   1823878   1824913   1825924   1826951  
  7230.000000   1828020   1829177   1830447   1831866   1833438  
  7220.000000   1835167   1837028   1838998   1841043   1843159  
  7210.000000   1845346   1847639   1850068   1852664   1855420  
  7200.000000   1858308   1861265   1864239   1867177   1870075  
  7190.000000   1872933   1875787   1878647   1881523   1884392  
  7180.000000   1887240   1890052   1892855   1895684   1898601  
  7170.000000   1901643   1904833   1908148   1911556   1915014  
  7160.000000   1918511   1922051   1925675   1929414   1933300  
  7150.000000   1937332   1941508   1945801   1950206   1954704  
  7140.000000   1959297   1963947   1968624   1973259   1977816  
  7130.000000   1982270   1986665   1991073   1995613   2000379  
  7120.000000   2005441   2010794   2016396   2022164   2028032  
  7110.000000   2033947   2039897   2045864   2051838   2057768  
  7100.000000   2063613   2069322   2074902   2080395   2085902  
  7090.000000   2091521   2097336   2103368   2109586   2115915  
  7080.000000   2122280   2128622   2134926   2141201   2147468  
  7070.000000   2153729   2159968   2166155   2172277   2178344  
  7060.000000   2184409   2190536   2196786   2203173   2209669  
  7050.000000   2216201   2222687   2229068   2235328   2241501  
  7040.000000   2247641   2253806   2260019   2266272   2272522  
  7030.000000   2278725   2284841   2290857   2296770   2302590  
  7020.000000   2308310   2313917   2319379   2324672   2329777  
  7010.000000   2334707   2339490   2344185   2348846   2353549  
  7000.000000   2358339   2363262   2368316   2373485   2378701  
  6990.000000   2383883   2388924   2393740   2398263   2402481  
  6980.000000   2406411   2410113   2413643   2417069   2420425  
  6970.000000   2423742   2427026   2430291   2433527   2436735  
  6960.000000   2439889   2442967   2445920   2448724   2451348  
  6950.000000   2453812   2456137   2458387   2460611   2462870  
  6940.000000   2465188   2467574   2469996   2472411   2474742  
  6930.000000   2476922   2478883   2480594   2482056   2483324  
  6920.000000   2484474   2485598   2486759   2487981   2489232  
  6910.000000   2490452   2491571   2492557   2493422   2494231  
  6900.000000   2495063   2495996   2497055   2498223   2499435  
  6890.000000   2500624   2501745   2502796   2503815   2504857  
  6880.000000   2505959   2507128   2508328   2509499   2510581  
  6870.000000   2511537   2512363   2513085   2513741   2514367  
  6860.000000   2514982   2515592   2516186   2516755   2517285  
  6850.000000   2517772   2518213   2518622   2519017   2519440  
  6840.000000   2519936   2520548   2521288   2522129   2522997  
  6830.000000   2523793   2524421   2524834   2525049   2525152  
  6820.000000   2525266   2525509   2525940   2526547   2527241  
  6810.000000   2527904   2528420   2528728   2528825   2528763  
  6800.000000   2528613   2528443   2528286   2528142   2527987  
  6790.000000   2527795   2527548   2527247   2526899   2526525  
  6780.000000   2526144   2525783   2525464   2525217   2525058  
  6770.000000   2524990   2524984   2524993   2524958   2524830  
  6760.000000   2524589   2524254   2523872   2523502   2523190  
  6750.000000   2522947   2522749   2522549   2522297   2521962  
  6740.000000   2521536   2521041   2520507   2519970   2519455  
  6730.000000   2518984   2518568   2518226   2517968   2517803  
  6720.000000   2517716   2517677   2517631   2517517   2517278  
  6710.000000   2516875   2516293   2515542   2514645   2513639  
  6700.000000   2512562   2511457   2510365   2509327   2508371  
  6690.000000   2507513   2506745   2506053   2505408   2504801  
  6680.000000   2504224   2503687   2503192   2502730   2502258  
  6670.000000   2501713   2501018   2500110   2498963   2497597  
  6660.000000   2496074   2494477   2492886   2491363   2489936  
  6650.000000   2488611   2487373   2486209   2485095   2484016  
  6640.000000   2482945   2481860   2480738   2479574   2478372  
  6630.000000   2477158   2475956   2474778   2473610   2472414  
  6620.000000   2471134   2469725   2468168   2466484   2464723  
  6610.000000   2462956   2461236   2459594   2458021   2456485  
  6600.000000   2454945   2453375   2451766   2450133   2448501  
  6590.000000   2446890   2445310   2443759   2442225   2440696  
  6580.000000   2439162   2437623   2436081   2434545   2433021  
  6570.000000   2431518   2430047   2428615   2427227   2425878  
  6560.000000   2424557   2423243   2421913   2420551   2419152  
  6550.000000   2417721   2416275   2414826   2413390   2411969  
  6540.000000   2410569   2409192   2407848   2406547   2405302  
  6530.000000   2404115   2402982   2401892   2400835   2399808  
  6520.000000   2398813   2397858   2396944   2396058   2395177  
  6510.000000   2394267   2393301   2392272   2391194   2390099  
  6500.000000   2389024   2387990   2386998   2386029   2385056  
  6490.000000   2384064   2383055   2382055   2381096   2380205  
  6480.000000   2379381   2378601   2377823   2377007   2376128  
  6470.000000   2375183   2374184   2373145   2372071   2370951  
  6460.000000   2369771   2368519   2367211   2365881   2364583  
  6450.000000   2363367   2362263   2361271   2360367   2359511  
  6440.000000   2358669   2357823   2356978   2356145   2355342  
  6430.000000   2354572   2353829   2353092   2352344   2351574  
  6420.000000   2350787   2350002   2349254   2348579   2348019  
  6410.000000   2347605   2347355   2347260   2347285   2347361  
  6400.000000   2347405   2347334   2347093   2346667   2346094  
  6390.000000   2345445   2344807   2344245   2343791   2343437  
  6380.000000   2343142   2342859   2342550   2342201   2341810  
  6370.000000   2341389   2340940   2340458   2339932   2339360  
  6360.000000   2338754   2338145   2337567   2337046   2336581  
  6350.000000   2336146   2335698   2335193   2334608   2333945  
  6340.000000   2333229   2332494   2331765   2331053   2330349  
  6330.000000   2329644   2328927   2328209   2327503   2326832  
  6320.000000   2326200   2325604   2325020   2324427   2323804  
  6310.000000   2323144   2322442   2321696   2320887   2319991  
  6300.000000   2318971   2317808   2316500   2315078   2313587  
  6290.000000   2312087   2310616   2309202   2307841   2306526  
  6280.000000   2305235   2303962   2302692   2301423   2300131  
  6270.000000   2298797   2297391   2295895   2294305   2292636  
  6260.000000   2290912   2289156   2287376   2285566   2283706  
  6250.000000   2281789   2279817   2277825   2275859   2273971  
  6240.000000   2272190   2270522   2268940   2267403   2265866  
  6230.000000   2264298   2262679   2261004   2259271   2257475  
  6220.000000   2255610   2253672   2251668   2249620   2247560  
  6210.000000   2245523   2243536   2241611   2239746   2237930  
  6200.000000   2236152   2234411   2232709   2231053   2229443  
  6190.000000   2227869   2226317   2224769   2223217   2221658  
  6180.000000   2220103   2218559   2217034   2215528   2214038  
  6170.000000   2212565   2211121   2209725   2208396   2207145  
  6160.000000   2205964   2204823   2203677   2202477   2201189  
  6150.000000   2199798   2198312   2196757   2195164   2193564  
  6140.000000   2191983   2190441   2188962   2187566   2186267  
  6130.000000   2185069   2183959   2182905   2181868   2180812  
  6120.000000   2179716   2178575   2177408   2176236   2175083  
  6110.000000   2173958   2172864   2171793   2170745   2169719  
  6100.000000   2168729   2167784   2166898   2166069   2165299  
  6090.000000   2164577   2163907   2163286   2162728   2162231  
  6080.000000   2161801   2161427   2161105   2160826   2160599  
  6070.000000   2160431   2160347   2160350   2160448   2160619  
  6060.000000   2160847   2161101   2161380   2161678   2162022  
  6050.000000   2162423   2162904   2163462   2164098   2164797  
  6040.000000   2165564   2166402   2167339   2168392   2169585  
  6030.000000   2170916   2172381   2173950   2175607   2177327  
  6020.000000   2179102   2180918   2182775   2184656   2186555  
  6010.000000   2188454   2190355   2192252   2194164   2196093  
  6000.000000   2198049   2200020   2202000   2203965   2205916  
  5990.000000   2207854   2209808   2211811   2213908   2216130  
  5980.000000   2218506   2221040   2223733   2226564   2229515  
  5970.000000   2232549   2235638   2238743   2241846   2244929  
  5960.000000   2248002   2251075   2254179   2257321   2260511  
  5950.000000   2263725   2266944   2270134   2273288   2276412  
  5940.000000   2279540   2282718   2285995   2289403   2292953  
  5930.000000   2296631   2300403   2304226   2308053   2311842  
  5920.000000   2315557   2319167   2322651   2325993   2329191  
  5910.000000   2332251   2335190   2338032   2340804   2343536  
  5900.000000   2346253   2348985   2351754   2354587   2357490  
  5890.000000   2360466   2363488   2366527   2369535   2372480  
  5880.000000   2375327   2378069   2380702   2383231   2385660  
  5870.000000   2387984   2390200   2392304   2394307   2396229  
  5860.000000   2398101   2399954   2401815   2403700   2405619  
  5850.000000   2407585   2409614   2411733   2413968   2416339  
  5840.000000   2418845   2421461   2424143   2426837   2429501  
  5830.000000   2432105   2434642   2437118   2439540   2441909  
  5820.000000   2444215   2446447   2448590   2450648   2452630  
  5810.000000   2454561   2456452   2458319   2460144   2461926  
  5800.000000   2463630   2465261   2466799   2468268   2469654  
  5790.000000   2470972   2472187   2473283   2474195   2474879  
  5780.000000   2475255   2475272   2474864   2474007   2472687  
  5770.000000   2470951   2468869   2466562   2464147   2461749  
  5760.000000   2459450   2457315   2455355   2453578   2451968  
  5750.000000   2450523   2449234   2448093   2447080   2446161  
  5740.000000   2445298   2444452   2443607   2442759   2441937  
  5730.000000   2441162   2440465   2439846   2439303   2438808  
  5720.000000   2438344   2437894   2437458   2437037   2436637  
  5710.000000   2436256   2435889   2435530   2435184   2434862  
  5700.000000   2434586   2434375   2434238   2434168   2434140  
  5690.000000   2434129   2434105   2434065   2434005   2433944  
  5680.000000   2433883   2433822   2433735   2433591   2433343  
  5670.000000   2432957   2432397   2431642   2430673   2429486  
  5660.000000   2428081   2426484   2424733   2422897   2421046  
  5650.000000   2419255   2417568   2416011   2414567   2413206  
  5640.000000   2411885   2410571   2409241   2407891   2406525  
  5630.000000   2405157   2403801   2402471   2401189   2399971  
  5620.000000   2398835   2397784   2396814   2395899   2395009  
  5610.000000   2394111   2393186   2392232   2391265   2390306  
  5600.000000   2389382   2388503   2387669   2386866   2386076  
  5590.000000   2385279   2384461   2383613   2382730   2381808  
  5580.000000   2380850   2379864   2378866   2377877   2376914  
  5570.000000   2375989   2375094   2374211   2373310   2372364  
  5560.000000   2371355   2370281   2369157   2368002   2366837  
  5550.000000   2365676   2364527   2363391   2362267   2361160  
  5540.000000   2360070   2358998   2357938   2356884   2355829  
  5530.000000   2354777   2353739   2352733   2351776   2350874  
  5520.000000   2350011   2349161   2348285   2347355   2346359  
  5510.000000   2345305   2344217   2343121   2342031   2340951  
  5500.000000   2339865   2338764   2337636   2336491   2335337  
  5490.000000   2334191   2333049   2331899   2330711   2329461  
  5480.000000   2328132   2326729   2325269   2323781   2322284  
  5470.000000   2320791   2319293   2317779   2316230   2314639  
  5460.000000   2312996   2311298   2309533   2307691   2305762  
  5450.000000   2303754   2301690   2299617   2297588   2295647  
  5440.000000   2293814   2292079   2290413   2288774   2287132  
  5430.000000   2285468   2283786   2282089   2280390   2278689  
  5420.000000   2276999   2275334   2273742   2272269   2270979  
  5410.000000   2269897   2269028   2268323   2267730   2267185  
  5400.000000   2266667   2266168   2265729   2265380   2265167  
  5390.000000   2265087   2265145   2265313   2265595   2265991  
  5380.000000   2266539   2267251   2268151   2269207   2270400  
  5370.000000   2271668   2273003   2274377   2275833   2277384  
  5360.000000   2279096   2280971   2283059   2285346   2287885  
  5350.000000   2290674   2293794   2297252   2301123   2305385  
  5340.000000   2310078   2315148   2320632   2326483   2332752  
  5330.000000   2339391   2346447   2353854   2361652   2369786  
  5320.000000   2378340   2387306   2396819   2406887   2417639  
  5310.000000   2429037   2441156   2453913   2467364   2481441  
  5300.000000   2496232   2511712   2528004   2545100   2563112  
  5290.000000   2581999   2601813   2622439   2643846   2665870  
  5280.000000   2688469   2711532   2735104   2759186   2783894  
  5270.000000   2809248   2835274   2861849   2888818   2915954  
  5260.000000   2943076   2970072   2996924   3023693   3050428  
  5250.000000   3077164   3103801   3130209   3156144   3181457  
  5240.000000   3205977   3229731   3252713   3275084   3296875  
  5230.000000   3318207   3339006   3359270   3378821   3397618  
  5220.000000   3415509   3432541   3448673   3464063   3478739  
  5210.000000   3492871   3506439   3519514   3531961   3543767  
  5200.000000   3554773   3565013   3574421   3583128   3591134  
  5190.000000   3598579   3605427   3611746   3617446   3622561  
  5180.000000   3627012   3630867   3634086   3636757   3638842  
  5170.000000   3640408   3641407   3641910   3641890   3641441  
  5160.000000   3640555   3639314   3637684   3635710   3633337  
  5150.000000   3630609   3627499   3624083   3620363   3616409  
  5140.000000   3612201   3607768   3603066   3598111   3592882  
  5130.000000   3587427   3581764   3575956   3570021   3564003  
  5120.000000   3557902   3551748   3545543   3539323   3533101  
  5110.000000   3526909   3520747   3514621   3508515   3502421  
  5100.000000   3496323   3490223   3484116   3478009   3471899  
  5090.000000   3465792   3459689   3453605   3447558   3441571  
  5080.000000   3435658   3429827   3424060   3418330   3412599  
  5070.000000   3406841   3401038   3395193   3389317   3383426  
  5060.000000   3377521   3371598   3365631   3359597   3353473  
  5050.000000   3347252   3340936   3334543   3328085   3321581  
  5040.000000   3315036   3308457   3301847   3295217   3288583  
  5030.000000   3281965   3275383   3268856   3262396   3256010  
  5020.000000   3249704   3243481   3237352   3231316   3225386  
  5010.000000   3219556   3213836   3208212   3202694   3197274  
  5000.000000   3191974   3186790   3181757   3176869   3172159  
  4990.000000   3167620   3163289   3159163   3155290   3151674  
  4980.000000   3148364   3145352   3142672   3140293   3138233  
  4970.000000   3136449   3134963   3133739   3132810   3132149  
  4960.000000   3131800   3131736   3132004   3132579   3133508  
  4950.000000   3134766   3136397   3138368   3140712   3143387  
  4940.000000   3146422   3149778   3153492   3157530   3161933  
  4930.000000   3166664   3171749   3177139   3182852   3188838  
  4920.000000   3195123   3201674   3208529   3215670   3223131  
  4910.000000   3230889   3238961   3247311   3255937   3264794  
  4900.000000   3273866   3283110   3292500   3302002   3311589  
  4890.000000   3321232   3330896   3340551   3350143   3359630  
  4880.000000   3368942   3378035   3386839   3395326   3403436  
  4870.000000   3411162   3418457   3425328   3431743   3437732  
  4860.000000   3443280   3448440   3453213   3457659   3461775  
  4850.000000   3465615   3469169   3472486   3475562   3478450  
  4840.000000   3481154   3483727   3486172   3488527   3490789  
  4830.000000   3492986   3495115   3497199   3499232   3501227  
  4820.000000   3503169   3505060   3506884   3508648   3510357  
  4810.000000   3512035   3513702   3515381   3517080   3518796  
  4800.000000   3520514   3522220   3523898   3525550   3527181  
  4790.000000   3528809   3530447   3532106   3533785   3535483  
  4780.000000   3537191   3538908   3540628   3542354   3544078  
  4770.000000   3545791   3547469   3549096   3550643   3552102  
  4760.000000   3553458   3554718   3555878   3556945   3557908  
  4750.000000   3558767   3559508   3560133   3560634   3561027  
  4740.000000   3561310   3561500   3561594   3561604   3561526  
  4730.000000   3561371   3561141   3560849   3560496   3560086  
  4720.000000   3559609   3559060   3558434   3557735   3556984  
  4710.000000   3556209   3555458   3554769   3554186   3553730  
  4700.000000   3553419   3553250   3553222   3553322   3553551  
  4690.000000   3553903   3554384   3554991   3555728   3556582  
  4680.000000   3557543   3558577   3559658   3560739   3561790  
  4670.000000   3562768   3563664   3564462   3565183   3565840  
  4660.000000   3566476   3567120   3567823   3568619   3569557  
  4650.000000   3570669   3571997   3573558   3575367   3577411  
  4640.000000   3579668   3582097   3584657   3587305   3590005  
  4630.000000   3592724   3595435   3598108   3600709   3603205  
  4620.000000   3605559   3607745   3609741   3611547   3613157  
  4610.000000   3614585   3615832   3616917   3617842   3618636  
  4600.000000   3619309   3619902   3620429   3620924   3621380  
  4590.000000   3621802   3622157   3622431   3622584   3622608  
  4580.000000   3622480   3622210   3621788   3621228   3620526  
  4570.000000   3619696   3618739   3617677   3616520   3615298  
  4560.000000   3614024   3612718   3611382   3610021   3608626  
  4550.000000   3607197   3605729   3604225   3602692   3601139  
  4540.000000   3599582   3598034   3596518   3595046   3593641  
  4530.000000   3592307   3591061   3589895   3588823   3587833  
  4520.000000   3586951   3586172   3585538   3585046   3584749  
  4510.000000   3584640   3584782   3585174   3585902   3586979  
  4500.000000   3588510   3590507   3593060   3596149   3599836  
  4490.000000   3604072   3608911   3614314   3620356   3627017  
  4480.000000   3634382   3642427   3651211   3660679   3670852  
  4470.000000   3681645   3693053   3704975   3717390   3730190  
  4460.000000   3743341   3756740   3770353   3784096   3797946  
  4450.000000   3811846   3825784   3839723   3853655   3867561  
  4440.000000   3881433   3895270   3909062   3922820   3936518  
  4430.000000   3950164   3963703   3977127   3990354   4003366  
  4420.000000   4016067   4028442   4040393   4051906   4062873  
  4410.000000   4073271   4082984   4091984   4100167   4107539  
  4400.000000   4114050   4119768   4124716   4129019   4132744  
  4390.000000   4136036   4138971   4141679   4144224   4146709  
  4380.000000   4149176   4151698   4154302   4157045   4159955  
  4370.000000   4163083   4166466   4170146   4174143   4178463  
  4360.000000   4183088   4187983   4193090   4198361   4203726  
  4350.000000   4209150   4214563   4219955   4225264   4230507  
  4340.000000   4235639   4240677   4245542   4250158   4254305  
  4330.000000   4257727   4260055   4260963   4260161   4257566  
  4320.000000   4253278   4247654   4241184   4234467   4228019  
  4310.000000   4222267   4217409   4213506   4210445   4208075  
  4300.000000   4206212   4204724   4203516   4202538   4201773  
  4290.000000   4201195   4200814   4200613   4200619   4200836  
  4280.000000   4201293   4201987   4202903   4204006   4205235  
  4270.000000   4206542   4207854   4209115   4210223   4211055  
  4260.000000   4211426   4211134   4209967   4207781   4204517  
  4250.000000   4200265   4195220   4189690   4183996   4178459  
  4240.000000   4173296   4168654   4164546   4160939   4157721  
  4230.000000   4154792   4152038   4149372   4146724   4144037  
  4220.000000   4141286   4138449   4135557   4132634   4129768  
  4210.000000   4127018   4124482   4122205   4120240   4118582  
  4200.000000   4117229   4116134   4115269   4114576   4114035  
  4190.000000   4113592   4113240   4112932   4112682   4112459  
  4180.000000   4112306   4112220   4112276   4112495   4112971  
  4170.000000   4113737   4114885   4116439   4118476   4120994  
  4160.000000   4124043   4127585   4131640   4136142   4141096  
  4150.000000   4146430   4152161   4158231   4164682   4171481  
  4140.000000   4178698   4186315   4194409   4202954   4212006  
  4130.000000   4221513   4231494   4241876   4252664   4263795  
  4120.000000   4275296   4287141   4299387   4312034   4325147  
  4110.000000   4338716   4352774   4367274   4382197   4397455  
  4100.000000   4412992   4428710   4444560   4460481   4476464  
  4090.000000   4492503   4508623   4524841   4541174   4557634  
  4080.000000   4574208   4590896   4607661   4624490   4641314  
  4070.000000   4658096   4674727   4691150   4707249   4722996  
  4060.000000   4738311   4753215   4767649   4781649   4795141  
  4050.000000   4808154   4820608   4832553   4843928   4854802  
  4040.000000   4865100   4874864   4883969   4892431   4900124  
  4030.000000   4907097   4913272   4918737   4923439   4927445  
  4020.000000   4930654   4933112   4934767   4935684   4935807  
  4010.000000   4935272   4934146   4932477   4930092   4927084  
  4000.000000   4923763  
##END= 
