##TITLE= Sample 005 By ssteindl date Dienstag, November 20 2018
##JCAMP-DX= 4.24
##DATA TYPE= INFRARED SPECTRUM
##ORIGIN= Exported PE Spectrum Data File
##OWNER= Sandra Steindl
##DATE= 18/11/20
##TIME= 13:59:25.00
##SPECTROMETER/DATA SYSTEM= PERKIN-ELMER Frontier FT-IR/NIR IR
##INSTRUMENT PARAMETERS=
  APODIZATION=stark
  DETECTOR=INGAAS
##RESOLUTION= 16.000000
##DELTAX= -2.000000
##XUNITS= 1/CM
##YUNITS= A
##XFACTOR= 1.00
##YFACTOR= 0.00000011920928955078
##FIRSTX= 10000.00
##LASTX= 4000.00
##NPOINTS= 3001
##FIRSTY= 0.202701
##MAXY= 0.615511
##MINY= 0.180890
##XYDATA= (X++(Y..Y))
 10000.000000   1700377   1701935   1704144   1707664   1712070  
  9990.000000   1716432   1720253   1723541   1726222   1727944  
  9980.000000   1728224   1726543   1722455   1715882   1707447  
  9970.000000   1698412   1690369   1684769   1682415   1683226  
  9960.000000   1686186   1689858   1692779   1694129   1693849  
  9950.000000   1692678   1691740   1692079   1694267   1698114  
  9940.000000   1702802   1707006   1709440   1709081   1705630  
  9930.000000   1699476   1691679   1683643   1676749   1672071  
  9920.000000   1670113   1670802   1673582   1677634   1682156  
  9910.000000   1686543   1690460   1693796   1696503   1698512  
  9900.000000   1699722   1700085   1699791   1699281   1699226  
  9890.000000   1700258   1702702   1706398   1710656   1714546  
  9880.000000   1717147   1717977   1717033   1714832   1712069  
  9870.000000   1709392   1707134   1705303   1703686   1702027  
  9860.000000   1700182   1698112   1695847   1693325   1690407  
  9850.000000   1686896   1682764   1678249   1673932   1670556  
  9840.000000   1668768   1668861   1670642   1673600   1677129  
  9830.000000   1680902   1684918   1689482   1694852   1700962  
  9820.000000   1707280   1712848   1716686   1718042   1716773  
  9810.000000   1713234   1708167   1702316   1696202   1690110  
  9800.000000   1684152   1678640   1674049   1671156   1670555  
  9790.000000   1672512   1676581   1681763   1686728   1690262  
  9780.000000   1691628   1690610   1687483   1682615   1676405  
  9770.000000   1669088   1661022   1652762   1645235   1639553  
  9760.000000   1636675   1637009   1640140   1644943   1649948  
  9750.000000   1653932   1656314   1657318   1657683   1658229  
  9740.000000   1659397   1661083   1662809   1664083   1664786  
  9730.000000   1665266   1666140   1667851   1670255   1672507  
  9720.000000   1673314   1671491   1666530   1658904   1649948  
  9710.000000   1641350   1634507   1630038   1627699   1626706  
  9700.000000   1626236   1625885   1625752   1626281   1627789  
  9690.000000   1630216   1632987   1635340   1636719   1637105  
  9680.000000   1637085   1637489   1638983   1641568   1644540  
  9670.000000   1646675   1646809   1644303   1639374   1632962  
  9660.000000   1626360   1620692   1616533   1613859   1612197  
  9650.000000   1611060   1610181   1609688   1609929   1611218  
  9640.000000   1613577   1616638   1619780   1622329   1623857  
  9630.000000   1624204   1623550   1622158   1620351   1618351  
  9620.000000   1616408   1614806   1613927   1614156   1615715  
  9610.000000   1618534   1622157   1625913   1629067   1631164  
  9600.000000   1632122   1632308   1632354   1632885   1634279  
  9590.000000   1636475   1639012   1641186   1642296   1641890  
  9580.000000   1639856   1636493   1632358   1628208   1624762  
  9570.000000   1622622   1622078   1623061   1625096   1627403  
  9560.000000   1629067   1629298   1627638   1624140   1619321  
  9550.000000   1614062   1609300   1605806   1603958   1603721  
  9540.000000   1604699   1606308   1607922   1609006   1609181  
  9530.000000   1608221   1606083   1602835   1598721   1594052  
  9520.000000   1589249   1584671   1580624   1577251   1574607  
  9510.000000   1572703   1571582   1571374   1572227   1574253  
  9500.000000   1577396   1581386   1585754   1589909   1593313  
  9490.000000   1595568   1596588   1596514   1595737   1594678  
  9480.000000   1593740   1593158   1593003   1593193   1593518  
  9470.000000   1593747   1593660   1593183   1592410   1591646  
  9460.000000   1591282   1591692   1593007   1595066   1597365  
  9450.000000   1599258   1600135   1599715   1598148   1596040  
  9440.000000   1594209   1593380   1593848   1595329   1597036  
  9430.000000   1597969   1597292   1594608   1590100   1584436  
  9420.000000   1578547   1573320   1569361   1566867   1565693  
  9410.000000   1565463   1565780   1566298   1566805   1567191  
  9400.000000   1567431   1567590   1567792   1568253   1569232  
  9390.000000   1570967   1573598   1577058   1581074   1585182  
  9380.000000   1588839   1591543   1592931   1592861   1591431  
  9370.000000   1588955   1585892   1582735   1579915   1577705  
  9360.000000   1576172   1575169   1574375   1573408   1571954  
  9350.000000   1569922   1567468   1564992   1562968   1561824  
  9340.000000   1561773   1562787   1564599   1566826   1569076  
  9330.000000   1571069   1572665   1573827   1574562   1574833  
  9320.000000   1574609   1573819   1572475   1570596   1568294  
  9310.000000   1565672   1562861   1559997   1557222   1554753  
  9300.000000   1552841   1551834   1552044   1553699   1556776  
  9290.000000   1560992   1565813   1570575   1574611   1577374  
  9280.000000   1578561   1578132   1576369   1573730   1570807  
  9270.000000   1568145   1566169   1565076   1564770   1564931  
  9260.000000   1565075   1564813   1563940   1562598   1561159  
  9250.000000   1560147   1559967   1560737   1562170   1563662  
  9240.000000   1564526   1564216   1562555   1559764   1556430  
  9230.000000   1553244   1550796   1549358   1548857   1548956  
  9220.000000   1549217   1549257   1548848   1547995   1546901  
  9210.000000   1545909   1545366   1545563   1546629   1548493  
  9200.000000   1550845   1553190   1554973   1555725   1555220  
  9190.000000   1553562   1551171   1548636   1546499   1545041  
  9180.000000   1544210   1543656   1542951   1541745   1539943  
  9170.000000   1537722   1535439   1533479   1532062   1531235  
  9160.000000   1530912   1531034   1531646   1532895   1534915  
  9150.000000   1537684   1540911   1544030   1546359   1547331  
  9140.000000   1546758   1544871   1542269   1539651   1537579  
  9130.000000   1536268   1535532   1534961   1534131   1532872  
  9120.000000   1531306   1529832   1528892   1528802   1529578  
  9110.000000   1530930   1532377   1533370   1533516   1532612  
  9100.000000   1530730   1528101   1525077   1522077   1519540  
  9090.000000   1517885   1517415   1518292   1520474   1523691  
  9080.000000   1527454   1531181   1534316   1536453   1537391  
  9070.000000   1537153   1535979   1534217   1532272   1530487  
  9060.000000   1529135   1528349   1528106   1528236   1528460  
  9050.000000   1528500   1528139   1527349   1526275   1525223  
  9040.000000   1524508   1524361   1524811   1525677   1526641  
  9030.000000   1527371   1527662   1527479   1526955   1526282  
  9020.000000   1525643   1525108   1524650   1524181   1523631  
  9010.000000   1522998   1522343   1521766   1521340   1521105  
  9000.000000   1521073   1521269   1521761   1522625   1523881  
  8990.000000   1525398   1526862   1527823   1527846   1526700  
  8980.000000   1524511   1521775   1519257   1517725   1517701  
  8970.000000   1519237   1521878   1524820   1527183   1528309  
  8960.000000   1527948   1526315   1523984   1521680   1520046  
  8950.000000   1519487   1520100   1521701   1523911   1526249  
  8940.000000   1528257   1529577   1530026   1529613   1528523  
  8930.000000   1527074   1525619   1524444   1523690   1523332  
  8920.000000   1523243   1523275   1523339   1523464   1523754  
  8910.000000   1524333   1525215   1526291   1527314   1528002  
  8900.000000   1528139   1527670   1526733   1525594   1524550  
  8890.000000   1523803   1523426   1523348   1523425   1523494  
  8880.000000   1523434   1523181   1522712   1522043   1521207  
  8870.000000   1520294   1519463   1518949   1519016   1519845  
  8860.000000   1521462   1523637   1525960   1527908   1529059  
  8850.000000   1529181   1528358   1526931   1525427   1524363  
  8840.000000   1524112   1524830   1526452   1528780   1531543  
  8830.000000   1534495   1537447   1540267   1542862   1545133  
  8820.000000   1546997   1548359   1549175   1549423   1549163  
  8810.000000   1548501   1547625   1546780   1546239   1546282  
  8800.000000   1547102   1548809   1551332   1554473   1557896  
  8790.000000   1561233   1564162   1566457   1568036   1568906  
  8780.000000   1569162   1568908   1568251   1567300   1566171  
  8770.000000   1565054   1564174   1563817   1564230   1565586  
  8760.000000   1567875   1570898   1574224   1577277   1579415  
  8750.000000   1580098   1579038   1576308   1572394   1568078  
  8740.000000   1564289   1561822   1561135   1562177   1564429  
  8730.000000   1567046   1569186   1570248   1570099   1569037  
  8720.000000   1567663   1566606   1566307   1566898   1568260  
  8710.000000   1570153   1572428   1575107   1578381   1582445  
  8700.000000   1587299   1592643   1597881   1602301   1605326  
  8690.000000   1606708   1606669   1605754   1604663   1603943  
  8680.000000   1603844   1604267   1604889   1605363   1605487  
  8670.000000   1605318   1605102   1605182   1605793   1607012  
  8660.000000   1608711   1610672   1612687   1614647   1616582  
  8650.000000   1618572   1620703   1622955   1625219   1627306  
  8640.000000   1629034   1630293   1631092   1631558   1631899  
  8630.000000   1632350   1633118   1634350   1636093   1638289  
  8620.000000   1640749   1643188   1645266   1646686   1647281  
  8610.000000   1647092   1646379   1645565   1645107   1645354  
  8600.000000   1646440   1648237   1650430   1652627   1654512  
  8590.000000   1655940   1656952   1657739   1658519   1659471  
  8580.000000   1660647   1662026   1663533   1665112   1666747  
  8570.000000   1668445   1670217   1672006   1673687   1675054  
  8560.000000   1675900   1676060   1675483   1674257   1672601  
  8550.000000   1670834   1669305   1668365   1668292   1669274  
  8540.000000   1671336   1674335   1677940   1681690   1685065  
  8530.000000   1687595   1688983   1689178   1688400   1687073  
  8520.000000   1685713   1684780   1684576   1685171   1686424  
  8510.000000   1688051   1689734   1691194   1692247   1692809  
  8500.000000   1692878   1692508   1691791   1690854   1689886  
  8490.000000   1689109   1688775   1689096   1690202   1692085  
  8480.000000   1694574   1697385   1700184   1702688   1704736  
  8470.000000   1706318   1707565   1708660   1709779   1710990  
  8460.000000   1712254   1713428   1714358   1714934   1715156  
  8450.000000   1715150   1715113   1715284   1715832   1716849  
  8440.000000   1718297   1720068   1721993   1723907   1725662  
  8430.000000   1727148   1728291   1729050   1729413   1729416  
  8420.000000   1729150   1728752   1728383   1728191   1728274  
  8410.000000   1728643   1729215   1729845   1730369   1730670  
  8400.000000   1730709   1730540   1730298   1730153   1730257  
  8390.000000   1730700   1731487   1732550   1733762   1734991  
  8380.000000   1736132   1737134   1738004   1738794   1739563  
  8370.000000   1740348   1741127   1741827   1742336   1742545  
  8360.000000   1742396   1741912   1741204   1740438   1739776  
  8350.000000   1739326   1739090   1738979   1738828   1738496  
  8340.000000   1737921   1737175   1736436   1735948   1735918  
  8330.000000   1736443   1737450   1738710   1739900   1740706  
  8320.000000   1740923   1740503   1739577   1738392   1737244  
  8310.000000   1736362   1735851   1735669   1735659   1735620  
  8300.000000   1735379   1734867   1734147   1733399   1732844  
  8290.000000   1732679   1732984   1733701   1734634   1735509  
  8280.000000   1736060   1736121   1735680   1734881   1733966  
  8270.000000   1733197   1732761   1732714   1732960   1733298  
  8260.000000   1733487   1733344   1732788   1731869   1730725  
  8250.000000   1729551   1728517   1727741   1727249   1726982  
  8240.000000   1726821   1726617   1726224   1725526   1724455  
  8230.000000   1723011   1721260   1719341   1717437   1715745  
  8220.000000   1714427   1713575   1713191   1713186   1713399  
  8210.000000   1713633   1713700   1713462   1712852   1711888  
  8200.000000   1710655   1709294   1707958   1706798   1705908  
  8190.000000   1705325   1705003   1704830   1704648   1704292  
  8180.000000   1703616   1702530   1701000   1699048   1696736  
  8170.000000   1694156   1691419   1688658   1686021   1683666  
  8160.000000   1681731   1680308   1679403   1678933   1678730  
  8150.000000   1678578   1678279   1677685   1676744   1675483  
  8140.000000   1673992   1672374   1670734   1669152   1667710  
  8130.000000   1666485   1665561   1665008   1664848   1665029  
  8120.000000   1665407   1665773   1665901   1665619   1664865  
  8110.000000   1663705   1662308   1660887   1659626   1658630  
  8100.000000   1657907   1657385   1656951   1656501   1655954  
  8090.000000   1655271   1654429   1653429   1652274   1651005  
  8080.000000   1649694   1648458   1647422   1646689   1646285  
  8070.000000   1646138   1646088   1645936   1645502   1644689  
  8060.000000   1643508   1642058   1640494   1638948   1637509  
  8050.000000   1636180   1634925   1633680   1632413   1631124  
  8040.000000   1629851   1628653   1627582   1626689   1626014  
  8030.000000   1625602   1625495   1625723   1626267   1627041  
  8020.000000   1627888   1628599   1628981   1628898   1628332  
  8010.000000   1627363   1626158   1624881   1623655   1622511  
  8000.000000   1621417   1620302   1619128   1617918   1616759  
  7990.000000   1615779   1615079   1614712   1614636   1614768  
  7980.000000   1614995   1615247   1615507   1615810   1616213  
  7970.000000   1616736   1617343   1617917   1618302   1618329  
  7960.000000   1617887   1616930   1615516   1613769   1611872  
  7950.000000   1610019   1608388   1607123   1606296   1605931  
  7940.000000   1605965   1606298   1606787   1607294   1607704  
  7930.000000   1607949   1608014   1607905   1607652   1607250  
  7920.000000   1606689   1605925   1604945   1603768   1602487  
  7910.000000   1601252   1600254   1599661   1599577   1600003  
  7900.000000   1600825   1601850   1602846   1603625   1604081  
  7890.000000   1604231   1604198   1604173   1604346   1604838  
  7880.000000   1605658   1606685   1607708   1608473   1608774  
  7870.000000   1608500   1607673   1606428   1604969   1603509  
  7860.000000   1602208   1601162   1600395   1599906   1599684  
  7850.000000   1599751   1600122   1600803   1601733   1602791  
  7840.000000   1603793   1604553   1604938   1604901   1604507  
  7830.000000   1603886   1603190   1602527   1601938   1601403  
  7820.000000   1600867   1600303   1599727   1599216   1598856  
  7810.000000   1598722   1598811   1599052   1599313   1599452  
  7800.000000   1599363   1598997   1598375   1597546   1596567  
  7790.000000   1595473   1594280   1593014   1591725   1590519  
  7780.000000   1589534   1588915   1588751   1589034   1589634  
  7770.000000   1590320   1590818   1590875   1590343   1589207  
  7760.000000   1587603   1585762   1583968   1582465   1581409  
  7750.000000   1580836   1580666   1580744   1580892   1580969  
  7740.000000   1580903   1580705   1580441   1580193   1580021  
  7730.000000   1579929   1579874   1579774   1579566   1579219  
  7720.000000   1578764   1578274   1577837   1577518   1577327  
  7710.000000   1577224   1577130   1576964   1576673   1576250  
  7700.000000   1575727   1575158   1574590   1574047   1573525  
  7690.000000   1573006   1572472   1571919   1571363   1570832  
  7680.000000   1570347   1569919   1569537   1569180   1568830  
  7670.000000   1568472   1568111   1567743   1567365   1566948  
  7660.000000   1566458   1565856   1565135   1564330   1563535  
  7650.000000   1562881   1562512   1562536   1562995   1563844  
  7640.000000   1564955   1566145   1567222   1568027   1568479  
  7630.000000   1568580   1568418   1568119   1567821   1567615  
  7620.000000   1567540   1567567   1567633   1567669   1567635  
  7610.000000   1567542   1567448   1567445   1567613   1567995  
  7600.000000   1568572   1569265   1569961   1570537   1570906  
  7590.000000   1571022   1570909   1570628   1570275   1569940  
  7580.000000   1569696   1569574   1569576   1569676   1569836  
  7570.000000   1570027   1570238   1570485   1570808   1571259  
  7560.000000   1571878   1572680   1573648   1574722   1575828  
  7550.000000   1576868   1577775   1578489   1579003   1579325  
  7540.000000   1579502   1579590   1579670   1579835   1580193  
  7530.000000   1580847   1581875   1583309   1585112   1587176  
  7520.000000   1589344   1591434   1593290   1594802   1595943  
  7510.000000   1596745   1597298   1597700   1598057   1598449  
  7500.000000   1598955   1599636   1600552   1601741   1603215  
  7490.000000   1604941   1606838   1608783   1610639   1612286  
  7480.000000   1613664   1614776   1615705   1616570   1617519  
  7470.000000   1618664   1620084   1621782   1623710   1625774  
  7460.000000   1627872   1629910   1631837   1633645   1635375  
  7450.000000   1637096   1638885   1640792   1642842   1645010  
  7440.000000   1647253   1649504   1651720   1653873   1655970  
  7430.000000   1658031   1660089   1662165   1664271   1666401  
  7420.000000   1668547   1670697   1672841   1674970   1677074  
  7410.000000   1679146   1681186   1683207   1685238   1687325  
  7400.000000   1689506   1691807   1694216   1696689   1699151  
  7390.000000   1701527   1703758   1705825   1707739   1709538  
  7380.000000   1711261   1712935   1714571   1716163   1717711  
  7370.000000   1719218   1720705   1722193   1723696   1725216  
  7360.000000   1726741   1728275   1729841   1731507   1733363  
  7350.000000   1735505   1737991   1740812   1743867   1746998  
  7340.000000   1750024   1752798   1755236   1757330   1759137  
  7330.000000   1760738   1762211   1763606   1764947   1766242  
  7320.000000   1767495   1768728   1769973   1771283   1772694  
  7310.000000   1774242   1775917   1777695   1779509   1781285  
  7300.000000   1782942   1784420   1785685   1786750   1787669  
  7290.000000   1788525   1789399   1790344   1791361   1792404  
  7280.000000   1793396   1794265   1794979   1795561   1796091  
  7270.000000   1796673   1797393   1798286   1799326   1800437  
  7260.000000   1801537   1802563   1803512   1804421   1805366  
  7250.000000   1806410   1807594   1808907   1810321   1811792  
  7240.000000   1813309   1814877   1816542   1818337   1820295  
  7230.000000   1822397   1824615   1826886   1829170   1831426  
  7220.000000   1833652   1835846   1838036   1840242   1842503  
  7210.000000   1844855   1847347   1850009   1852868   1855907  
  7200.000000   1859089   1862340   1865592   1868775   1871864  
  7190.000000   1874844   1877750   1880613   1883493   1886433  
  7180.000000   1889492   1892709   1896126   1899753   1903586  
  7170.000000   1907575   1911660   1915758   1919816   1923792  
  7160.000000   1927700   1931558   1935413   1939278   1943181  
  7150.000000   1947120   1951132   1955251   1959556   1964098  
  7140.000000   1968919   1973992   1979262   1984635   1990054  
  7130.000000   1995495   2001016   2006691   2012615   2018815  
  7120.000000   2025274   2031886   2038542   2045129   2051615  
  7110.000000   2058003   2064361   2070736   2077165   2083630  
  7100.000000   2090114   2096590   2103084   2109636   2116308  
  7090.000000   2123118   2130039   2136980   2143843   2150557  
  7080.000000   2157134   2163671   2170327   2177251   2184527  
  7070.000000   2192120   2199895   2207659   2215244   2222550  
  7060.000000   2229590   2236451   2243266   2250138   2257124  
  7050.000000   2264207   2271333   2278433   2285460   2292403  
  7040.000000   2299276   2306116   2312953   2319817   2326718  
  7030.000000   2333666   2340650   2347653   2354630   2361534  
  7020.000000   2368301   2374892   2381285   2387503   2393580  
  7010.000000   2399575   2405517   2411423   2417272   2423038  
  7000.000000   2428677   2434174   2439503   2444672   2449671  
  6990.000000   2454516   2459213   2463808   2468338   2472868  
  6980.000000   2477428   2482030   2486623   2491132   2495458  
  6970.000000   2499535   2503328   2506862   2510181   2513348  
  6960.000000   2516390   2519328   2522152   2524888   2527577  
  6950.000000   2530316   2533187   2536262   2539521   2542885  
  6940.000000   2546191   2549279   2552014   2554353   2556330  
  6930.000000   2558052   2559644   2561215   2562817   2564456  
  6920.000000   2566096   2567702   2569235   2570698   2572101  
  6910.000000   2573488   2574892   2576357   2577898   2579517  
  6900.000000   2581174   2582803   2584317   2585640   2586729  
  6890.000000   2587601   2588330   2589033   2589815   2590743  
  6880.000000   2591810   2592951   2594067   2595080   2595958  
  6870.000000   2596736   2597481   2598268   2599130   2600050  
  6860.000000   2600970   2601829   2602593   2603273   2603917  
  6850.000000   2604585   2605310   2606091   2606890   2607670  
  6840.000000   2608414   2609153   2609938   2610825   2611826  
  6830.000000   2612899   2613949   2614865   2615560   2616006  
  6820.000000   2616236   2616326   2616358   2616394   2616450  
  6810.000000   2616521   2616583   2616634   2616682   2616751  
  6800.000000   2616850   2616971   2617076   2617124   2617077  
  6790.000000   2616928   2616693   2616410   2616107   2615800  
  6780.000000   2615485   2615155   2614808   2614468   2614164  
  6770.000000   2613930   2613772   2613665   2613553   2613373  
  6760.000000   2613075   2612639   2612074   2611409   2610669  
  6750.000000   2609865   2608998   2608073   2607109   2606158  
  6740.000000   2605280   2604541   2603969   2603562   2603274  
  6730.000000   2603054   2602850   2602641   2602421   2602188  
  6720.000000   2601920   2601564   2601049   2600315   2599342  
  6710.000000   2598175   2596912   2595684   2594598   2593721  
  6700.000000   2593043   2592509   2592028   2591525   2590943  
  6690.000000   2590266   2589493   2588639   2587709   2586716  
  6680.000000   2585670   2584597   2583524   2582478   2581463  
  6670.000000   2580459   2579425   2578319   2577115   2575828  
  6660.000000   2574492   2573163   2571875   2570637   2569415  
  6650.000000   2568167   2566853   2565470   2564049   2562648  
  6640.000000   2561319   2560091   2558942   2557823   2556662  
  6630.000000   2555405   2554025   2552532   2550958   2549346  
  6620.000000   2547725   2546118   2544528   2542961   2541419  
  6610.000000   2539910   2538433   2536981   2535534   2534069  
  6600.000000   2532560   2530998   2529382   2527723   2526033  
  6590.000000   2524314   2522567   2520784   2518967   2517124  
  6580.000000   2515274   2513439   2511638   2509884   2508184  
  6570.000000   2506546   2504985   2503524   2502187   2500985  
  6560.000000   2499908   2498920   2497965   2496986   2495944  
  6550.000000   2494823   2493640   2492419   2491188   2489956  
  6540.000000   2488719   2487462   2486181   2484886   2483602  
  6530.000000   2482364   2481195   2480096   2479045   2478008  
  6520.000000   2476952   2475861   2474745   2473628   2472543  
  6510.000000   2471507   2470522   2469572   2468634   2467687  
  6500.000000   2466726   2465756   2464794   2463857   2462958  
  6490.000000   2462104   2461295   2460526   2459785   2459046  
  6480.000000   2458278   2457438   2456487   2455401   2454186  
  6470.000000   2452880   2451547   2450264   2449096   2448083  
  6460.000000   2447225   2446491   2445825   2445166   2444461  
  6450.000000   2443677   2442804   2441855   2440866   2439878  
  6440.000000   2438936   2438072   2437300   2436605   2435956  
  6430.000000   2435309   2434633   2433917   2433181   2432465  
  6420.000000   2431817   2431266   2430815   2430430   2430067  
  6410.000000   2429678   2429245   2428778   2428315   2427900  
  6400.000000   2427568   2427324   2427150   2427009   2426866  
  6390.000000   2426697   2426496   2426272   2426034   2425785  
  6380.000000   2425518   2425220   2424879   2424489   2424050  
  6370.000000   2423567   2423044   2422479   2421870   2421223  
  6360.000000   2420551   2419886   2419263   2418716   2418259  
  6350.000000   2417890   2417579   2417293   2416996   2416664  
  6340.000000   2416281   2415840   2415331   2414740   2414051  
  6330.000000   2413256   2412357   2411380   2410364   2409363  
  6320.000000   2408419   2407566   2406810   2406141   2405527  
  6310.000000   2404930   2404299   2403592   2402764   2401790  
  6300.000000   2400660   2399394   2398030   2396621   2395212  
  6290.000000   2393833   2392478   2391126   2389737   2388289  
  6280.000000   2386771   2385209   2383636   2382095   2380598  
  6270.000000   2379144   2377699   2376226   2374686   2373064  
  6260.000000   2371352   2369562   2367700   2365772   2363774  
  6250.000000   2361713   2359598   2357457   2355325   2353237  
  6240.000000   2351213   2349255   2347345   2345459   2343571  
  6230.000000   2341670   2339751   2337822   2335884   2333937  
  6220.000000   2331976   2329997   2328003   2326011   2324041  
  6210.000000   2322114   2320238   2318406   2316597   2314780  
  6200.000000   2312931   2311040   2309112   2307167   2305233  
  6190.000000   2303334   2301489   2299703   2297974   2296289  
  6180.000000   2294632   2292984   2291335   2289682   2288039  
  6170.000000   2286431   2284891   2283441   2282090   2280814  
  6160.000000   2279571   2278306   2276971   2275539   2274019  
  6150.000000   2272442   2270852   2269286   2267764   2266288  
  6140.000000   2264847   2263432   2262047   2260707   2259427  
  6130.000000   2258209   2257035   2255866   2254659   2253381  
  6120.000000   2252030   2250634   2249247   2247923   2246704  
  6110.000000   2245599   2244595   2243654   2242742   2241831  
  6100.000000   2240916   2239997   2239092   2238211   2237374  
  6090.000000   2236592   2235888   2235272   2234761   2234346  
  6080.000000   2234012   2233721   2233443   2233150   2232854  
  6070.000000   2232576   2232372   2232278   2232329   2232513  
  6060.000000   2232809   2233166   2233556   2233951   2234368  
  6050.000000   2234818   2235340   2235945   2236647   2237436  
  6040.000000   2238313   2239274   2240341   2241530   2242873  
  6030.000000   2244373   2246031   2247811   2249678   2251574  
  6020.000000   2253461   2255296   2257071   2258780   2260451  
  6010.000000   2262111   2263807   2265575   2267446   2269424  
  6000.000000   2271497   2273626   2275776   2277905   2280003  
  5990.000000   2282069   2284134   2286227   2288386   2290626  
  5980.000000   2292963   2295389   2297907   2300506   2303193  
  5970.000000   2305958   2308801   2311699   2314638   2317591  
  5960.000000   2320546   2323494   2326446   2329410   2332409  
  5950.000000   2335452   2338556   2341724   2344967   2348284  
  5940.000000   2351678   2355134   2358633   2362143   2365637  
  5930.000000   2369091   2372501   2375880   2379252   2382647  
  5920.000000   2386082   2389557   2393051   2396528   2399941  
  5910.000000   2403249   2406419   2409434   2412295   2415021  
  5900.000000   2417648   2420231   2422824   2425484   2428239  
  5890.000000   2431101   2434035   2436994   2439912   2442738  
  5880.000000   2445439   2448014   2450475   2452847   2455148  
  5870.000000   2457384   2459553   2461657   2463707   2465730  
  5860.000000   2467765   2469844   2471987   2474194   2476448  
  5850.000000   2478733   2481039   2483378   2485774   2488253  
  5840.000000   2490829   2493496   2496222   2498964   2501679  
  5830.000000   2504339   2506931   2509460   2511929   2514343  
  5820.000000   2516694   2518977   2521180   2523305   2525350  
  5810.000000   2527328   2529229   2531054   2532775   2534395  
  5800.000000   2535898   2537317   2538663   2539981   2541266  
  5790.000000   2542524   2543697   2544742   2545572   2546132  
  5780.000000   2546351   2546195   2545625   2544642   2543252  
  5770.000000   2541508   2539479   2537273   2534992   2532740  
  5760.000000   2530578   2528548   2526646   2524865   2523190  
  5750.000000   2521630   2520198   2518919   2517806   2516854  
  5740.000000   2516047   2515349   2514735   2514176   2513668  
  5730.000000   2513191   2512743   2512296   2511836   2511340  
  5720.000000   2510816   2510279   2509770   2509322   2508969  
  5710.000000   2508711   2508539   2508427   2508359   2508327  
  5700.000000   2508340   2508413   2508554   2508758   2508999  
  5690.000000   2509245   2509464   2509641   2509769   2509863  
  5680.000000   2509926   2509966   2509962   2509895   2509727  
  5670.000000   2509431   2508973   2508331   2507480   2506412  
  5660.000000   2505121   2503634   2501994   2500274   2498546  
  5650.000000   2496881   2495310   2493840   2492438   2491070  
  5640.000000   2489698   2488314   2486930   2485572   2484266  
  5630.000000   2483024   2481844   2480712   2479617   2478553  
  5620.000000   2477529   2476552   2475627   2474739   2473863  
  5610.000000   2472965   2472024   2471037   2470026   2469030  
  5600.000000   2468086   2467221   2466437   2465718   2465033  
  5590.000000   2464349   2463637   2462881   2462062   2461172  
  5580.000000   2460199   2459140   2458002   2456804   2455577  
  5570.000000   2454355   2453161   2452006   2450880   2449759  
  5560.000000   2448616   2447429   2446184   2444885   2443542  
  5550.000000   2442179   2440817   2439485   2438207   2437005  
  5540.000000   2435886   2434845   2433856   2432882   2431886  
  5530.000000   2430844   2429749   2428619   2427483   2426370  
  5520.000000   2425295   2424251   2423219   2422171   2421086  
  5510.000000   2419961   2418799   2417618   2416424   2415221  
  5500.000000   2414000   2412759   2411496   2410226   2408963  
  5490.000000   2407720   2406490   2405253   2403970   2402612  
  5480.000000   2401159   2399622   2398024   2396408   2394800  
  5470.000000   2393212   2391627   2390022   2388363   2386628  
  5460.000000   2384808   2382904   2380922   2378870   2376754  
  5450.000000   2374588   2372393   2370204   2368055   2365974  
  5440.000000   2363971   2362037   2360156   2358307   2356486  
  5430.000000   2354697   2352956   2351264   2349620   2347995  
  5420.000000   2346376   2344750   2343148   2341614   2340225  
  5410.000000   2339026   2338046   2337254   2336608   2336040  
  5400.000000   2335525   2335048   2334646   2334348   2334200  
  5390.000000   2334202   2334356   2334629   2335021   2335525  
  5380.000000   2336184   2337014   2338055   2339287   2340702  
  5370.000000   2342242   2343893   2345615   2347439   2349363  
  5360.000000   2351442   2353673   2356110   2358740   2361627  
  5350.000000   2364774   2368266   2372107   2376366   2381011  
  5340.000000   2386076   2391504   2397343   2403560   2410233  
  5330.000000   2417336   2424937   2432974   2441489   2450406  
  5320.000000   2459793   2469623   2480025   2491004   2502702  
  5310.000000   2515093   2528266   2542142   2556777   2572091  
  5300.000000   2588167   2604969   2622625   2641130   2660613  
  5290.000000   2681041   2702477   2724805   2747987   2771844  
  5280.000000   2796317   2821279   2846766   2872772   2899414  
  5270.000000   2926711   2954689   2983227   3012165   3041276  
  5260.000000   3070377   3099361   3128208   3156984   3185730  
  5250.000000   3214473   3243092   3271443   3299257   3326382  
  5240.000000   3352641   3378075   3402687   3426654   3450002  
  5230.000000   3472852   3495104   3516743   3537570   3557548  
  5220.000000   3576532   3594605   3611749   3628150   3643837  
  5210.000000   3658971   3673494   3687444   3700648   3713085  
  5200.000000   3724594   3735242   3744984   3753985   3762250  
  5190.000000   3769922   3776948   3783389   3789144   3794259  
  5180.000000   3798663   3802449   3805582   3808158   3810124  
  5170.000000   3811540   3812337   3812581   3812240   3811417  
  5160.000000   3810110   3808415   3806304   3803832   3800947  
  5150.000000   3797700   3794067   3790123   3785867   3781364  
  5140.000000   3776588   3771568   3766264   3760709   3754896  
  5130.000000   3748887   3742701   3736397   3729974   3723452  
  5120.000000   3716811   3710066   3703217   3696302   3689342  
  5110.000000   3682373   3675400   3668433   3661461   3654492  
  5100.000000   3647529   3640600   3633725   3626924   3620193  
  5090.000000   3613522   3606882   3600257   3593633   3587017  
  5080.000000   3580420   3573858   3567331   3560832   3554334  
  5070.000000   3547819   3541261   3534656   3528003   3521314  
  5060.000000   3514591   3507842   3501061   3494246   3487387  
  5050.000000   3480484   3473534   3466538   3459494   3452402  
  5040.000000   3445259   3438074   3430860   3423639   3416439  
  5030.000000   3409284   3402197   3395183   3388248   3381382  
  5020.000000   3374588   3367859   3361210   3354644   3348185  
  5010.000000   3341836   3335622   3329539   3323609   3317823  
  5000.000000   3312206   3306745   3301466   3296355   3291443  
  4990.000000   3286721   3282228   3277965   3273981   3270272  
  4980.000000   3266879   3263780   3261001   3258502   3256306  
  4970.000000   3254376   3252749   3251399   3250374   3249651  
  4960.000000   3249279   3249231   3249554   3250223   3251285  
  4950.000000   3252712   3254546   3256746   3259337   3262263  
  4940.000000   3265548   3269139   3273074   3277322   3281932  
  4930.000000   3286879   3292211   3297896   3303966   3310384  
  4920.000000   3317173   3324293   3331761   3339531   3347613  
  4910.000000   3355958   3364569   3373406   3382471   3391730  
  4900.000000   3401182   3410794   3420549   3430412   3440356  
  4890.000000   3450346   3460347   3470327   3480243   3490060  
  4880.000000   3499727   3509217   3518479   3527498   3536229  
  4870.000000   3544666   3552765   3560526   3567911   3574938  
  4860.000000   3581587   3587900   3593873   3599553   3604935  
  4850.000000   3610057   3614903   3619508   3623861   3628005  
  4840.000000   3631942   3635719   3639342   3642855   3646265  
  4830.000000   3649611   3652901   3656170   3659418   3662657  
  4820.000000   3665861   3669018   3672088   3675058   3677907  
  4810.000000   3680647   3683286   3685852   3688356   3690814  
  4800.000000   3693224   3695592   3697911   3700192   3702436  
  4790.000000   3704659   3706858   3709038   3711188   3713309  
  4780.000000   3715390   3717443   3719467   3721475   3723457  
  4770.000000   3725407   3727291   3729087   3730759   3732298  
  4760.000000   3733692   3734960   3736108   3737161   3738117  
  4750.000000   3738984   3739744   3740394   3740914   3741307  
  4740.000000   3741561   3741692   3741693   3741579   3741343  
  4730.000000   3740995   3740527   3739947   3739246   3738436  
  4720.000000   3737514   3736496   3735392   3734223   3733013  
  4710.000000   3731791   3730587   3729433   3728351   3727362  
  4700.000000   3726470   3725676   3724971   3724345   3723790  
  4690.000000   3723305   3722900   3722585   3722375   3722268  
  4680.000000   3722254   3722290   3722333   3722318   3722203  
  4670.000000   3721951   3721568   3721076   3720534   3719996  
  4660.000000   3719533   3719185   3718994   3718973   3719137  
  4650.000000   3719482   3720013   3720722   3721604   3722642  
  4640.000000   3723818   3725107   3726486   3727934   3729434  
  4630.000000   3730972   3732533   3734097   3735639   3737127  
  4620.000000   3738526   3739805   3740932   3741887   3742653  
  4610.000000   3743228   3743612   3743827   3743892   3743850  
  4600.000000   3743729   3743573   3743401   3743235   3743066  
  4590.000000   3742894   3742689   3742443   3742125   3741727  
  4580.000000   3741225   3740616   3739883   3739029   3738053  
  4570.000000   3736974   3735808   3734582   3733308   3732000  
  4560.000000   3730651   3729256   3727804   3726292   3724727  
  4550.000000   3723128   3721515   3719909   3718321   3716746  
  4540.000000   3715180   3713607   3712031   3710457   3708920  
  4530.000000   3707444   3706080   3704846   3703785   3702887  
  4520.000000   3702181   3701644   3701308   3701151   3701226  
  4510.000000   3701523   3702121   3703027   3704340   3706075  
  4500.000000   3708336   3711118   3714511   3718485   3723109  
  4490.000000   3728347   3734270   3740849   3748162   3756175  
  4480.000000   3764946   3774413   3784601   3795420   3806876  
  4470.000000   3818879   3831430   3844444   3857914   3871749  
  4460.000000   3885926   3900353   3914999   3929786   3944689  
  4450.000000   3959648   3974641   3989626   4004580   4019479  
  4440.000000   4034307   4049066   4063743   4078361   4092894  
  4430.000000   4107358   4121695   4135900   4149878   4163605  
  4420.000000   4176964   4189929   4202378   4214288   4225538  
  4410.000000   4236107   4245880   4254848   4262923   4270139  
  4400.000000   4276466   4281998   4286768   4290914   4294499  
  4390.000000   4297662   4300459   4303008   4305349   4307576  
  4380.000000   4309720   4311857   4314017   4316266   4318642  
  4370.000000   4321205   4324000   4327075   4330461   4334173  
  4360.000000   4338203   4342529   4347108   4351905   4356863  
  4350.000000   4361958   4367130   4372370   4377619   4382879  
  4340.000000   4388092   4393246   4398246   4402992   4407269  
  4330.000000   4410825   4413323   4414466   4414002   4411868  
  4320.000000   4408169   4403247   4397560   4391666   4386042  
  4310.000000   4381082   4376963   4373741   4371304   4369514  
  4300.000000   4368190   4367206   4366458   4365884   4365442  
  4290.000000   4365086   4364801   4364560   4364384   4364288  
  4280.000000   4364315   4364492   4364830   4365324   4365936  
  4270.000000   4366639   4367376   4368109   4368752   4369205  
  4260.000000   4369308   4368882   4367735   4365732   4362806  
  4250.000000   4359019   4354527   4349585   4344465   4339445  
  4240.000000   4334723   4330439   4326625   4323267   4320284  
  4230.000000   4317588   4315075   4312653   4310245   4307789  
  4220.000000   4305261   4302647   4299988   4297317   4294717  
  4210.000000   4292241   4289965   4287917   4286137   4284614  
  4200.000000   4283348   4282299   4281447   4280736   4280149  
  4190.000000   4279634   4279195   4278804   4278500   4278279  
  4180.000000   4278202   4278266   4278532   4278992   4279709  
  4170.000000   4280692   4282032   4283763   4285998   4288764  
  4160.000000   4292144   4296115   4300702   4305829   4311494  
  4150.000000   4317610   4324188   4331162   4338569   4346359  
  4140.000000   4354586   4363210   4372287   4381777   4391730  
  4130.000000   4402093   4412896   4424077   4435657   4447583  
  4120.000000   4459892   4472563   4485654   4499163   4513148  
  4110.000000   4527595   4542530   4557905   4573704   4589851  
  4100.000000   4606300   4622968   4639809   4656763   4673812  
  4090.000000   4690933   4708124   4725379   4742690   4760051  
  4080.000000   4777442   4794865   4812300   4829760   4847209  
  4070.000000   4864638   4881958   4899124   4916010   4932574  
  4060.000000   4948711   4964427   4979654   4994431   5008697  
  4050.000000   5022495   5035753   5048525   5060737   5072448  
  4040.000000   5083569   5094142   5104048   5113316   5121832  
  4030.000000   5129649   5136677   5142980   5148467   5153168  
  4020.000000   5156952   5159857   5161838   5162988   5163276  
  4010.000000   5162872   5161869   5160318   5158019   5155056  
  4000.000000   5151755  
##END= 
