##TITLE= Sample 020 By ssteindl date Montag, November 19 2018
##JCAMP-DX= 4.24
##DATA TYPE= INFRARED SPECTRUM
##ORIGIN= Exported PE Spectrum Data File
##OWNER= Sandra Steindl
##DATE= 18/11/19
##TIME= 17:46:56.00
##SPECTROMETER/DATA SYSTEM= PERKIN-ELMER Frontier FT-IR/NIR IR
##INSTRUMENT PARAMETERS=
  APODIZATION=stark
  DETECTOR=INGAAS
##RESOLUTION= 16.000000
##DELTAX= -2.000000
##XUNITS= 1/CM
##YUNITS= A
##XFACTOR= 1.00
##YFACTOR= 0.00000011920928955078
##FIRSTX= 10000.00
##LASTX= 4000.00
##NPOINTS= 3001
##FIRSTY= 0.199578
##MAXY= 0.602628
##MINY= 0.173676
##XYDATA= (X++(Y..Y))
 10000.000000   1674181   1672290   1670628   1669190   1667376  
  9990.000000   1664353   1659696   1653639   1646881   1640409  
  9980.000000   1635283   1632303   1631744   1633249   1636041  
  9970.000000   1639066   1641316   1641975   1640651   1637369  
  9960.000000   1632620   1627244   1622303   1618832   1617626  
  9950.000000   1618998   1622765   1628268   1634600   1640791  
  9940.000000   1645960   1649448   1650837   1650043   1647360  
  9930.000000   1643436   1639241   1635821   1634100   1634561  
  9920.000000   1637039   1640714   1644258   1646326   1645997  
  9910.000000   1643207   1638780   1634144   1630784   1629616  
  9900.000000   1630680   1633093   1635512   1636650   1635831  
  9890.000000   1633208   1629664   1626463   1624763   1625264  
  9880.000000   1628041   1632622   1638240   1644047   1649301  
  9870.000000   1653432   1656031   1656937   1656205   1654259  
  9860.000000   1651809   1649778   1649053   1650143   1652993  
  9850.000000   1656829   1660386   1662232   1661231   1656932  
  9840.000000   1649705   1640708   1631515   1623809   1618887  
  9830.000000   1617520   1619698   1624821   1631731   1639089  
  9820.000000   1645550   1650096   1652163   1651692   1649070  
  9810.000000   1644848   1639636   1633768   1627455   1620691  
  9800.000000   1613600   1606427   1599660   1593895   1589661  
  9790.000000   1587300   1586856   1588147   1590853   1594656  
  9780.000000   1599281   1604500   1610031   1615512   1620513  
  9770.000000   1624689   1627943   1630536   1633020   1635980  
  9760.000000   1639721   1643969   1647888   1650269   1650006  
  9750.000000   1646478   1639812   1630854   1620854   1611127  
  9740.000000   1602643   1595968   1591237   1588449   1587526  
  9730.000000   1588453   1591042   1594887   1599196   1602997  
  9720.000000   1605389   1605873   1604601   1602226   1599730  
  9710.000000   1597837   1596860   1596424   1595854   1594416  
  9700.000000   1591805   1588245   1584400   1581074   1578815  
  9690.000000   1577827   1577922   1578869   1580521   1583030  
  9680.000000   1586632   1591473   1597275   1603301   1608480  
  9670.000000   1611759   1612507   1610673   1606828   1601786  
  9660.000000   1596337   1590897   1585494   1579928   1574023  
  9650.000000   1567942   1562171   1557497   1554617   1553952  
  9640.000000   1555406   1558445   1562253   1565949   1568820  
  9630.000000   1570332   1570249   1568516   1565378   1561292  
  9620.000000   1556984   1553303   1551063   1550816   1552665  
  9610.000000   1556223   1560693   1565138   1568710   1570897  
  9600.000000   1571564   1570885   1569218   1566906   1564269  
  9590.000000   1561527   1558916   1556644   1554913   1553837  
  9580.000000   1553395   1553475   1553885   1554538   1555419  
  9570.000000   1556688   1558465   1560798   1563488   1566143  
  9560.000000   1568294   1569552   1569811   1569184   1567992  
  9550.000000   1566443   1564606   1562257   1559122   1555020  
  9540.000000   1550095   1544879   1540145   1536763   1535345  
  9530.000000   1536218   1539251   1544108   1550227   1557056  
  9520.000000   1563981   1570365   1575540   1578833   1579777  
  9510.000000   1578161   1574229   1568517   1561786   1554704  
  9500.000000   1547735   1541077   1534806   1529112   1524353  
  9490.000000   1521126   1519882   1520809   1523468   1527009  
  9480.000000   1530335   1532585   1533436   1533169   1532534  
  9470.000000   1532244   1532676   1533499   1533938   1532981  
  9460.000000   1530026   1525060   1518815   1512393   1506904  
  9450.000000   1503063   1501057   1500664   1501502   1503321  
  9440.000000   1506090   1509934   1514883   1520701   1526819  
  9430.000000   1532531   1537256   1540776   1543309   1545335  
  9420.000000   1547354   1549567   1551784   1553492   1554129  
  9410.000000   1553361   1551231   1548141   1544623   1541130  
  9400.000000   1537842   1534713   1531565   1528343   1525189  
  9390.000000   1522486   1520639   1519930   1520307   1521483  
  9380.000000   1522982   1524444   1525666   1526727   1527831  
  9370.000000   1529157   1530717   1532239   1533313   1533428  
  9360.000000   1532244   1529540   1525370   1519891   1513446  
  9350.000000   1506453   1499471   1493175   1488268   1485423  
  9340.000000   1485026   1487168   1491472   1497317   1503883  
  9330.000000   1510479   1516586   1521932   1526393   1529845  
  9320.000000   1532135   1532960   1532065   1529229   1524541  
  9310.000000   1518310   1511143   1503723   1496705   1490597  
  9300.000000   1485644   1481955   1479455   1478123   1477919  
  9290.000000   1478900   1481079   1484423   1488767   1493767  
  9280.000000   1498939   1503612   1507152   1508999   1508959  
  9270.000000   1507148   1504083   1500482   1497152   1494744  
  9260.000000   1493609   1493754   1494901   1496662   1498618  
  9250.000000   1500468   1501964   1502982   1503443   1503367  
  9240.000000   1502865   1502163   1501597   1501502   1502093  
  9230.000000   1503285   1504679   1505664   1505675   1504431  
  9220.000000   1502077   1499186   1496538   1494846   1494426  
  9210.000000   1495131   1496430   1497689   1498451   1498617  
  9200.000000   1498430   1498279   1498429   1498852   1499212  
  9190.000000   1499021   1497916   1495859   1493237   1490671  
  9180.000000   1488772   1487866   1487882   1488419   1488931  
  9170.000000   1489013   1488553   1487750   1486960   1486509  
  9160.000000   1486553   1487019   1487687   1488305   1488722  
  9150.000000   1488898   1488880   1488702   1488367   1487842  
  9140.000000   1487127   1486312   1485574   1485141   1485165  
  9130.000000   1485653   1486431   1487235   1487839   1488169  
  9120.000000   1488330   1488517   1488881   1489394   1489810  
  9110.000000   1489740   1488831   1486988   1484471   1481846  
  9100.000000   1479762   1478746   1479007   1480363   1482323  
  9090.000000   1484270   1485708   1486324   1486025   1484857  
  9080.000000   1482975   1480577   1477916   1475330   1473268  
  9070.000000   1472221   1472598   1474544   1477851   1481967  
  9060.000000   1486141   1489630   1491901   1492787   1492498  
  9050.000000   1491497   1490326   1489436   1489126   1489499  
  9040.000000   1490507   1492012   1493815   1495703   1497388  
  9030.000000   1498623   1499180   1498992   1498130   1496835  
  9020.000000   1495427   1494190   1493269   1492591   1491919  
  9010.000000   1490935   1489378   1487147   1484333   1481239  
  9000.000000   1478253   1475789   1474137   1473472   1473814  
  8990.000000   1475033   1476863   1478929   1480829   1482154  
  8980.000000   1482596   1481978   1480370   1478016   1475334  
  8970.000000   1472765   1470736   1469518   1469211   1469743  
  8960.000000   1470939   1472586   1474460   1476384   1478217  
  8950.000000   1479882   1481331   1482565   1483605   1484501  
  8940.000000   1485296   1486019   1486676   1487253   1487715  
  8930.000000   1488030   1488142   1488007   1487543   1486680  
  8920.000000   1485335   1483482   1481170   1478558   1475873  
  8910.000000   1473373   1471242   1469563   1468267   1467194  
  8900.000000   1466154   1465013   1463768   1462516   1461433  
  8890.000000   1460645   1460197   1459973   1459793   1459442  
  8880.000000   1458846   1458051   1457305   1456896   1457126  
  8870.000000   1458126   1459860   1462098   1464540   1466897  
  8860.000000   1469018   1470929   1472813   1474939   1477513  
  8850.000000   1480630   1484199   1487979   1491637   1494834  
  8840.000000   1497345   1499052   1499968   1500150   1499663  
  8830.000000   1498534   1496758   1494372   1491519   1488538  
  8820.000000   1485916   1484241   1484000   1485471   1488549  
  8810.000000   1492781   1497421   1501650   1504801   1506522  
  8800.000000   1506878   1506237   1505165   1504179   1503656  
  8790.000000   1503718   1504298   1505200   1506232   1507277  
  8780.000000   1508309   1509382   1510542   1511816   1513163  
  8770.000000   1514524   1515847   1517111   1518350   1519598  
  8760.000000   1520885   1522189   1523450   1524599   1525590  
  8750.000000   1526451   1527275   1528207   1529374   1530838  
  8740.000000   1532559   1534384   1536106   1537506   1538437  
  8730.000000   1538843   1538778   1538380   1537827   1537318  
  8720.000000   1537015   1537066   1537563   1538579   1540128  
  8710.000000   1542172   1544581   1547136   1549550   1551493  
  8700.000000   1552693   1552964   1552305   1550872   1548997  
  8690.000000   1547067   1545459   1544453   1544183   1544663  
  8680.000000   1545804   1547506   1549679   1552262   1555183  
  8670.000000   1558308   1561415   1564195   1566334   1567579  
  8660.000000   1567880   1567396   1566523   1565746   1565528  
  8650.000000   1566154   1567654   1569819   1572279   1574649  
  8640.000000   1576651   1578194   1579372   1580383   1581430  
  8630.000000   1582621   1583946   1585306   1586592   1587752  
  8620.000000   1588841   1590010   1591446   1593303   1595612  
  8610.000000   1598281   1601107   1603840   1606258   1608206  
  8600.000000   1609638   1610573   1611090   1611278   1611249  
  8590.000000   1611122   1611025   1611105   1611493   1612296  
  8580.000000   1613528   1615147   1617032   1619063   1621128  
  8570.000000   1623169   1625163   1627095   1628904   1630471  
  8560.000000   1631636   1632252   1632266   1631770   1631020  
  8550.000000   1630368   1630147   1630556   1631574   1632970  
  8540.000000   1634376   1635429   1635903   1635797   1635328  
  8530.000000   1634838   1634663   1635005   1635882   1637135  
  8520.000000   1638530   1639841   1640964   1641909   1642793  
  8510.000000   1643745   1644850   1646108   1647452   1648799  
  8500.000000   1650108   1651400   1652760   1654286   1656040  
  8490.000000   1658009   1660101   1662180   1664117   1665830  
  8480.000000   1667311   1668593   1669740   1670771   1671672  
  8470.000000   1672380   1672849   1673080   1673158   1673249  
  8460.000000   1673550   1674258   1675477   1677224   1679401  
  8450.000000   1681853   1684409   1686927   1689310   1691500  
  8440.000000   1693453   1695118   1696409   1697258   1697638  
  8430.000000   1697618   1697370   1697164   1697296   1697994  
  8420.000000   1699299   1701057   1702913   1704434   1705214  
  8410.000000   1705026   1703899   1702125   1700162   1698495  
  8400.000000   1697486   1697286   1697808   1698793   1699905  
  8390.000000   1700866   1701529   1701904   1702116   1702335  
  8380.000000   1702683   1703200   1703817   1704402   1704814  
  8370.000000   1704958   1704828   1704497   1704094   1703756  
  8360.000000   1703563   1703526   1703532   1703424   1703018  
  8350.000000   1702200   1700959   1699424   1697839   1696478  
  8340.000000   1695547   1695092   1694971   1694883   1694471  
  8330.000000   1693449   1691731   1689472   1687050   1684925  
  8320.000000   1683496   1682968   1683295   1684213   1685343  
  8310.000000   1686328   1686954   1687187   1687141   1686990  
  8300.000000   1686881   1686875   1686950   1687028   1687049  
  8290.000000   1686992   1686902   1686840   1686837   1686872  
  8280.000000   1686846   1686665   1686255   1685650   1684949  
  8270.000000   1684326   1683930   1683855   1684057   1684389  
  8260.000000   1684619   1684518   1683917   1682744   1681037  
  8250.000000   1678908   1676515   1674018   1671551   1669234  
  8240.000000   1667148   1665378   1663975   1662984   1662399  
  8230.000000   1662188   1662256   1662474   1662675   1662680  
  8220.000000   1662331   1661504   1660151   1658285   1656010  
  8210.000000   1653487   1650929   1648555   1646556   1645062  
  8200.000000   1644118   1643682   1643627   1643778   1643923  
  8190.000000   1643876   1643490   1642701   1641530   1640076  
  8180.000000   1638492   1636941   1635554   1634387   1633416  
  8170.000000   1632540   1631616   1630505   1629119   1627445  
  8160.000000   1625540   1623515   1621493   1619575   1617822  
  8150.000000   1616247   1614833   1613546   1612365   1611272  
  8140.000000   1610266   1609332   1608444   1607561   1606638  
  8130.000000   1605652   1604614   1603579   1602636   1601879  
  8120.000000   1601380   1601149   1601125   1601170   1601107  
  8110.000000   1600752   1599971   1598706   1597006   1595006  
  8100.000000   1592903   1590907   1589191   1587857   1586913  
  8090.000000   1586289   1585859   1585495   1585092   1584608  
  8080.000000   1584049   1583469   1582930   1582475   1582115  
  8070.000000   1581804   1581477   1581041   1580430   1579596  
  8060.000000   1578539   1577302   1575960   1574617   1573379  
  8050.000000   1572355   1571620   1571220   1571140   1571311  
  8040.000000   1571609   1571880   1571964   1571733   1571118  
  8030.000000   1570118   1568802   1567277   1565667   1564075  
  8020.000000   1562583   1561230   1560044   1559033   1558204  
  8010.000000   1557552   1557056   1556681   1556374   1556091  
  8000.000000   1555811   1555552   1555371   1555342   1555521  
  7990.000000   1555914   1556460   1557042   1557522   1557783  
  7980.000000   1557777   1557520   1557089   1556555   1555958  
  7970.000000   1555263   1554385   1553224   1551735   1549970  
  7960.000000   1548089   1546335   1544956   1544143   1543960  
  7950.000000   1544338   1545087   1545967   1546746   1547258  
  7940.000000   1547431   1547276   1546873   1546327   1545752  
  7930.000000   1545233   1544831   1544561   1544410   1544333  
  7920.000000   1544271   1544175   1544015   1543797   1543554  
  7910.000000   1543322   1543123   1542938   1542727   1542429  
  7900.000000   1542023   1541528   1541033   1540651   1540497  
  7890.000000   1540622   1541004   1541543   1542111   1542602  
  7880.000000   1542979   1543292   1543650   1544180   1544959  
  7870.000000   1545991   1547190   1548423   1549546   1550453  
  7860.000000   1551090   1551454   1551566   1551453   1551132  
  7850.000000   1550624   1549960   1549200   1548421   1547708  
  7840.000000   1547116   1546662   1546309   1545998   1545660  
  7830.000000   1545267   1544820   1544371   1543980   1543713  
  7820.000000   1543604   1543665   1543879   1544211   1544611  
  7810.000000   1545010   1545321   1545445   1545289   1544800  
  7800.000000   1543981   1542913   1541734   1540613   1539700  
  7790.000000   1539082   1538769   1538682   1538693   1538650  
  7780.000000   1538423   1537924   1537126   1536071   1534865  
  7770.000000   1533674   1532704   1532167   1532227   1532951  
  7760.000000   1534263   1535939   1537645   1539019   1539769  
  7750.000000   1539755   1539033   1537824   1536445   1535196  
  7740.000000   1534275   1533729   1533467   1533322   1533126  
  7730.000000   1532784   1532290   1531721   1531177   1530742  
  7720.000000   1530435   1530212   1529994   1529694   1529264  
  7710.000000   1528697   1528034   1527339   1526684   1526128  
  7700.000000   1525717   1525476   1525415   1525518   1525744  
  7690.000000   1526017   1526241   1526313   1526162   1525765  
  7680.000000   1525169   1524469   1523787   1523222   1522829  
  7670.000000   1522597   1522474   1522393   1522312   1522239  
  7660.000000   1522222   1522334   1522624   1523091   1523672  
  7650.000000   1524251   1524704   1524931   1524899   1524629  
  7640.000000   1524202   1523702   1523202   1522738   1522313  
  7630.000000   1521925   1521581   1521316   1521187   1521250  
  7620.000000   1521528   1522000   1522587   1523186   1523692  
  7610.000000   1524031   1524185   1524175   1524057   1523876  
  7600.000000   1523666   1523427   1523153   1522840   1522507  
  7590.000000   1522206   1522005   1521984   1522192   1522648  
  7580.000000   1523324   1524156   1525056   1525928   1526689  
  7570.000000   1527265   1527622   1527741   1527654   1527409  
  7560.000000   1527086   1526759   1526500   1526356   1526353  
  7550.000000   1526503   1526812   1527294   1527970   1528856  
  7540.000000   1529949   1531208   1532559   1533893   1535107  
  7530.000000   1536119   1536914   1537519   1538023   1538515  
  7520.000000   1539084   1539776   1540601   1541534   1542536  
  7510.000000   1543569   1544605   1545625   1546616   1547568  
  7500.000000   1548475   1549346   1550209   1551109   1552103  
  7490.000000   1553234   1554523   1555944   1557436   1558905  
  7480.000000   1560262   1561440   1562422   1563233   1563948  
  7470.000000   1564657   1565454   1566402   1567532   1568827  
  7460.000000   1570242   1571711   1573174   1574594   1575978  
  7450.000000   1577367   1578829   1580431   1582217   1584181  
  7440.000000   1586268   1588380   1590416   1592295   1593983  
  7430.000000   1595497   1596903   1598281   1599708   1601229  
  7420.000000   1602853   1604554   1606291   1608021   1609712  
  7410.000000   1611352   1612948   1614522   1616112   1617752  
  7400.000000   1619474   1621289   1623184   1625115   1627024  
  7390.000000   1628851   1630566   1632179   1633750   1635367  
  7380.000000   1637116   1639052   1641161   1643370   1645569  
  7370.000000   1647655   1649562   1651286   1652884   1654436  
  7360.000000   1656018   1657657   1659333   1660984   1662543  
  7350.000000   1663970   1665273   1666519   1667802   1669220  
  7340.000000   1670832   1672649   1674629   1676701   1678778  
  7330.000000   1680787   1682678   1684424   1686027   1687505  
  7320.000000   1688892   1690225   1691544   1692877   1694243  
  7310.000000   1695635   1697034   1698405   1699715   1700948  
  7300.000000   1702108   1703234   1704381   1705620   1707004  
  7290.000000   1708564   1710289   1712131   1714006   1715814  
  7280.000000   1717465   1718889   1720057   1720981   1721718  
  7270.000000   1722344   1722947   1723602   1724368   1725276  
  7260.000000   1726344   1727572   1728960   1730496   1732167  
  7250.000000   1733948   1735810   1737713   1739633   1741548  
  7240.000000   1743464   1745391   1747357   1749370   1751445  
  7230.000000   1753565   1755729   1757918   1760137   1762384  
  7220.000000   1764669   1766989   1769343   1771723   1774139  
  7210.000000   1776611   1779188   1781919   1784850   1787990  
  7200.000000   1791316   1794757   1798238   1801684   1805061  
  7190.000000   1808359   1811610   1814840   1818073   1821294  
  7180.000000   1824480   1827592   1830624   1833590   1836551  
  7170.000000   1839571   1842715   1846009   1849451   1852999  
  7160.000000   1856612   1860254   1863929   1867653   1871472  
  7150.000000   1875412   1879498   1883714   1888041   1892434  
  7140.000000   1896872   1901325   1905797   1910280   1914794  
  7130.000000   1919344   1923964   1928680   1933544   1938594  
  7120.000000   1943874   1949386   1955113   1960986   1966926  
  7110.000000   1972830   1978627   1984262   1989740   1995094  
  7100.000000   2000406   2005758   2011241   2016906   2022775  
  7090.000000   2028822   2034997   2041233   2047468   2053657  
  7080.000000   2059777   2065811   2071754   2077590   2083312  
  7070.000000   2088909   2094398   2099811   2105213   2110672  
  7060.000000   2116247   2121972   2127848   2133850   2139937  
  7050.000000   2146073   2152226   2158377   2164493   2170534  
  7040.000000   2176442   2182164   2187670   2192975   2198142  
  7030.000000   2203268   2208442   2213721   2219091   2224492  
  7020.000000   2229826   2235022   2240046   2244939   2249774  
  7010.000000   2254644   2259594   2264620   2269649   2274592  
  7000.000000   2279356   2283899   2288221   2292373   2296409  
  6990.000000   2300388   2304330   2308251   2312137   2315994  
  6980.000000   2319815   2323613   2327374   2331084   2334700  
  6970.000000   2338193   2341530   2344717   2347769   2350735  
  6960.000000   2353646   2356541   2359427   2362314   2365185  
  6950.000000   2368032   2370825   2373533   2376104   2378491  
  6940.000000   2380647   2382567   2384279   2385859   2387393  
  6930.000000   2388972   2390645   2392426   2394278   2396155  
  6920.000000   2398002   2399797   2401530   2403220   2404878  
  6910.000000   2406515   2408121   2409685   2411191   2412632  
  6900.000000   2413995   2415270   2416432   2417462   2418341  
  6890.000000   2419084   2419733   2420367   2421066   2421899  
  6880.000000   2422886   2424004   2425184   2426352   2427439  
  6870.000000   2428419   2429293   2430092   2430849   2431588  
  6860.000000   2432321   2433056   2433801   2434571   2435377  
  6850.000000   2436217   2437065   2437875   2438593   2439182  
  6840.000000   2439642   2440015   2440371   2440784   2441302  
  6830.000000   2441939   2442664   2443439   2444222   2445002  
  6820.000000   2445780   2446567   2447350   2448094   2448734  
  6810.000000   2449204   2449454   2449482   2449321   2449043  
  6800.000000   2448716   2448403   2448131   2447919   2447765  
  6790.000000   2447676   2447655   2447707   2447813   2447939  
  6780.000000   2448030   2448030   2447906   2447653   2447299  
  6770.000000   2446890   2446474   2446082   2445731   2445425  
  6760.000000   2445174   2445001   2444937   2445013   2445237  
  6750.000000   2445587   2446012   2446449   2446840   2447151  
  6740.000000   2447380   2447542   2447658   2447739   2447786  
  6730.000000   2447792   2447762   2447721   2447711   2447780  
  6720.000000   2447956   2448235   2448570   2448896   2449139  
  6710.000000   2449255   2449235   2449117   2448955   2448811  
  6700.000000   2448725   2448711   2448747   2448799   2448817  
  6690.000000   2448762   2448601   2448329   2447953   2447513  
  6680.000000   2447052   2446628   2446280   2446027   2445850  
  6670.000000   2445703   2445516   2445231   2444799   2444211  
  6660.000000   2443475   2442620   2441669   2440644   2439558  
  6650.000000   2438434   2437303   2436215   2435215   2434338  
  6640.000000   2433576   2432889   2432199   2431428   2430517  
  6630.000000   2429449   2428247   2426967   2425663   2424373  
  6620.000000   2423102   2421834   2420541   2419208   2417836  
  6610.000000   2416448   2415068   2413718   2412394   2411079  
  6600.000000   2409743   2408365   2406932   2405455   2403951  
  6590.000000   2402446   2400958   2399501   2398078   2396687  
  6580.000000   2395321   2393972   2392627   2391271   2389891  
  6570.000000   2388478   2387029   2385553   2384061   2382567  
  6560.000000   2381081   2379607   2378152   2376722   2375333  
  6550.000000   2374002   2372742   2371554   2370417   2369299  
  6540.000000   2368157   2366963   2365706   2364406   2363097  
  6530.000000   2361818   2360594   2359428   2358303   2357185  
  6520.000000   2356046   2354864   2353631   2352347   2351011  
  6510.000000   2349621   2348173   2346668   2345118   2343553  
  6500.000000   2342013   2340539   2339160   2337889   2336711  
  6490.000000   2335604   2334534   2333475   2332400   2331290  
  6480.000000   2330129   2328897   2327586   2326193   2324735  
  6470.000000   2323243   2321755   2320310   2318933   2317629  
  6460.000000   2316388   2315188   2314009   2312831   2311644  
  6450.000000   2310441   2309216   2307963   2306684   2305385  
  6440.000000   2304091   2302832   2301641   2300539   2299533  
  6430.000000   2298609   2297748   2296932   2296156   2295428  
  6420.000000   2294765   2294170   2293638   2293134   2292619  
  6410.000000   2292054   2291426   2290746   2290057   2289408  
  6400.000000   2288846   2288396   2288057   2287811   2287635  
  6390.000000   2287509   2287422   2287372   2287352   2287350  
  6380.000000   2287339   2287286   2287158   2286930   2286592  
  6370.000000   2286151   2285628   2285054   2284466   2283904  
  6360.000000   2283402   2282983   2282650   2282382   2282133  
  6350.000000   2281847   2281466   2280957   2280315   2279573  
  6340.000000   2278780   2277998   2277269   2276616   2276032  
  6330.000000   2275497   2274981   2274463   2273924   2273353  
  6320.000000   2272731   2272041   2271257   2270367   2269367  
  6310.000000   2268281   2267142   2265999   2264884   2263818  
  6300.000000   2262793   2261788   2260767   2259703   2258573  
  6290.000000   2257376   2256113   2254798   2253445   2252070  
  6280.000000   2250689   2249321   2247979   2246674   2245407  
  6270.000000   2244172   2242952   2241730   2240484   2239201  
  6260.000000   2237869   2236487   2235058   2233599   2232124  
  6250.000000   2230659   2229220   2227819   2226451   2225096  
  6240.000000   2223723   2222299   2220803   2219233   2217603  
  6230.000000   2215942   2214276   2212623   2210988   2209367  
  6220.000000   2207756   2206164   2204612   2203127   2201733  
  6210.000000   2200433   2199210   2198023   2196833   2195607  
  6200.000000   2194342   2193055   2191782   2190553   2189385  
  6190.000000   2188273   2187198   2186138   2185080   2184027  
  6180.000000   2182993   2181992   2181032   2180108   2179201  
  6170.000000   2178293   2177372   2176433   2175483   2174529  
  6160.000000   2173571   2172606   2171623   2170616   2169583  
  6150.000000   2168534   2167483   2166437   2165394   2164342  
  6140.000000   2163261   2162140   2160981   2159803   2158639  
  6130.000000   2157518   2156460   2155464   2154514   2153584  
  6120.000000   2152654   2151710   2150754   2149795   2148846  
  6110.000000   2147916   2147013   2146141   2145310   2144530  
  6100.000000   2143819   2143180   2142617   2142112   2141646  
  6090.000000   2141187   2140719   2140230   2139730   2139234  
  6080.000000   2138775   2138378   2138078   2137887   2137823  
  6070.000000   2137872   2138019   2138221   2138444   2138643  
  6060.000000   2138806   2138930   2139052   2139210   2139465  
  6050.000000   2139847   2140387   2141077   2141920   2142899  
  6040.000000   2144022   2145288   2146716   2148297   2150029  
  6030.000000   2151873   2153806   2155785   2157806   2159858  
  6020.000000   2161964   2164131   2166378   2168692   2171074  
  6010.000000   2173497   2175964   2178464   2181015   2183615  
  6000.000000   2186282   2189006   2191797   2194646   2197575  
  5990.000000   2200592   2203730   2206998   2210418   2213976  
  5980.000000   2217672   2221487   2225428   2229491   2233695  
  5970.000000   2238035   2242515   2247099   2251764   2256464  
  5960.000000   2261187   2265913   2270661   2275435   2280255  
  5950.000000   2285112   2290005   2294914   2299838   2304782  
  5940.000000   2309772   2314839   2320015   2325324   2330765  
  5930.000000   2336327   2341973   2347660   2353331   2358922  
  5920.000000   2364363   2369589   2374542   2379192   2383536  
  5910.000000   2387611   2391464   2395166   2398765   2402313  
  5900.000000   2405822   2409318   2412798   2416291   2419799  
  5890.000000   2423345   2426911   2430482   2434005   2437442  
  5880.000000   2440741   2443883   2446855   2449668   2452329  
  5870.000000   2454846   2457219   2459452   2461551   2463541  
  5860.000000   2465455   2467338   2469222   2471136   2473089  
  5850.000000   2475088   2477134   2479237   2481409   2483659  
  5840.000000   2485983   2488361   2490755   2493126   2495441  
  5830.000000   2497686   2499871   2502020   2504166   2506331  
  5820.000000   2508526   2510746   2512980   2515214   2517436  
  5810.000000   2519642   2521823   2523980   2526104   2528211  
  5800.000000   2530304   2532429   2534599   2536859   2539195  
  5790.000000   2541597   2543983   2546277   2548347   2550084  
  5780.000000   2551351   2552052   2552089   2551422   2550042  
  5770.000000   2548021   2545470   2542573   2539514   2536488  
  5760.000000   2533622   2531014   2528668   2526574   2524671  
  5750.000000   2522926   2521295   2519768   2518326   2516959  
  5740.000000   2515645   2514361   2513089   2511812   2510529  
  5730.000000   2509237   2507945   2506647   2505348   2504044  
  5720.000000   2502746   2501464   2500214   2499003   2497831  
  5710.000000   2496681   2495540   2494395   2493252   2492131  
  5700.000000   2491061   2490066   2489147   2488290   2487455  
  5690.000000   2486613   2485733   2484822   2483890   2482966  
  5680.000000   2482053   2481144   2480191   2479143   2477931  
  5670.000000   2476509   2474839   2472908   2470709   2468253  
  5660.000000   2465550   2462637   2459555   2456377   2453175  
  5650.000000   2450027   2446984   2444080   2441311   2438665  
  5640.000000   2436116   2433647   2431249   2428918   2426660  
  5630.000000   2424473   2422363   2420327   2418379   2416521  
  5620.000000   2414769   2413114   2411547   2410037   2408562  
  5610.000000   2407100   2405658   2404256   2402931   2401709  
  5600.000000   2400607   2399607   2398677   2397770   2396851  
  5590.000000   2395899   2394916   2393915   2392913   2391918  
  5580.000000   2390929   2389942   2388951   2387953   2386951  
  5570.000000   2385941   2384914   2383852   2382734   2381550  
  5560.000000   2380309   2379040   2377784   2376582   2375455  
  5550.000000   2374398   2373377   2372347   2371268   2370117  
  5540.000000   2368896   2367626   2366333   2365041   2363765  
  5530.000000   2362511   2361283   2360087   2358930   2357820  
  5520.000000   2356752   2355716   2354689   2353651   2352585  
  5510.000000   2351486   2350355   2349200   2348018   2346802  
  5500.000000   2345536   2344212   2342832   2341414   2339982  
  5490.000000   2338561   2337155   2335753   2334320   2332828  
  5480.000000   2331252   2329597   2327879   2326134   2324385  
  5470.000000   2322645   2320908   2319161   2317388   2315588  
  5460.000000   2313766   2311932   2310091   2308239   2306365  
  5450.000000   2304458   2302518   2300564   2298628   2296749  
  5440.000000   2294955   2293257   2291654   2290128   2288668  
  5430.000000   2287262   2285910   2284601   2283326   2282058  
  5420.000000   2280780   2279473   2278158   2276861   2275645  
  5410.000000   2274550   2273612   2272817   2272146   2271554  
  5400.000000   2271025   2270546   2270149   2269854   2269704  
  5390.000000   2269701   2269857   2270149   2270588   2271168  
  5380.000000   2271930   2272883   2274057   2275427   2276985  
  5370.000000   2278671   2280475   2282356   2284344   2286430  
  5360.000000   2288674   2291072   2293683   2296502   2299596  
  5350.000000   2302969   2306703   2310798   2315323   2320243  
  5340.000000   2325599   2331336   2337502   2344058   2351075  
  5330.000000   2358516   2366449   2374819   2383682   2392982  
  5320.000000   2402804   2413128   2424081   2435658   2447983  
  5310.000000   2461018   2474846   2489387   2504703   2520718  
  5300.000000   2537515   2555050   2573437   2592653   2612804  
  5290.000000   2633839   2655790   2678521   2701965   2725929  
  5280.000000   2750345   2775097   2800245   2825820   2851979  
  5270.000000   2878780   2906273   2934352   2962852   2991539  
  5260.000000   3020218   3048772   3077181   3105510   3133811  
  5250.000000   3162117   3190322   3218292   3245777   3272635  
  5240.000000   3298702   3324022   3348607   3372628   3396126  
  5230.000000   3419221   3441833   3463951   3485391   3506105  
  5220.000000   3525942   3544957   3563120   3580600   3597435  
  5210.000000   3613795   3629649   3645045   3659818   3673926  
  5200.000000   3687187   3699630   3711195   3722030   3732155  
  5190.000000   3741719   3750686   3759114   3766891   3774036  
  5180.000000   3780452   3786208   3791261   3795709   3799514  
  5170.000000   3802755   3805381   3807471   3809003   3810084  
  5160.000000   3810707   3810964   3810810   3810284   3809310  
  5150.000000   3807922   3806078   3803852   3801238   3798308  
  5140.000000   3795036   3791448   3787496   3783205   3778562  
  5130.000000   3773640   3768472   3763145   3757683   3752131  
  5120.000000   3746475   3740734   3734894   3728988   3723022  
  5110.000000   3717028   3711005   3704959   3698868   3692730  
  5100.000000   3686541   3680327   3674115   3667943   3661836  
  5090.000000   3655810   3649860   3643979   3638154   3632378  
  5080.000000   3626644   3620946   3615271   3609604   3603920  
  5070.000000   3598209   3592456   3586670   3580853   3575019  
  5060.000000   3569161   3563274   3557328   3551303   3545169  
  5050.000000   3538919   3532547   3526068   3519493   3512844  
  5040.000000   3506132   3499376   3492587   3485781   3478967  
  5030.000000   3472159   3465365   3458594   3451858   3445171  
  5020.000000   3438554   3432022   3425595   3419273   3413058  
  5010.000000   3406927   3400871   3394867   3388924   3383043  
  5000.000000   3377262   3371600   3366100   3360768   3355631  
  4990.000000   3350671   3345907   3341322   3336946   3332774  
  4980.000000   3328851   3325173   3321782   3318663   3315845  
  4970.000000   3313298   3311044   3309044   3307321   3305836  
  4960.000000   3304624   3303660   3302999   3302632   3302629  
  4950.000000   3302979   3303739   3304876   3306422   3308326  
  4940.000000   3310622   3313268   3316318   3319751   3323630  
  4930.000000   3327929   3332692   3337868   3343481   3349470  
  4920.000000   3355859   3362602   3369737   3377237   3385141  
  4910.000000   3393426   3402117   3411180   3420614   3430369  
  4900.000000   3440415   3450690   3461147   3471729   3482384  
  4890.000000   3493070   3503727   3514313   3524741   3534953  
  4880.000000   3544841   3554352   3563382   3571912   3579856  
  4870.000000   3587218   3593920   3599970   3605285   3609883  
  4860.000000   3613702   3616790   3619123   3620781   3621767  
  4850.000000   3622178   3622029   3621425   3620398   3619062  
  4840.000000   3617459   3615696   3613810   3611874   3609905  
  4830.000000   3607948   3606009   3604122   3602299   3600567  
  4820.000000   3598943   3597438   3596064   3594821   3593719  
  4810.000000   3592755   3591942   3591272   3590754   3590368  
  4800.000000   3590115   3589974   3589954   3590048   3590280  
  4790.000000   3590648   3591168   3591819   3592591   3593446  
  4780.000000   3594365   3595322   3596317   3597344   3598413  
  4770.000000   3599519   3600655   3601803   3602948   3604073  
  4760.000000   3605180   3606274   3607369   3608475   3609594  
  4750.000000   3610713   3611812   3612871   3613873   3614816  
  4740.000000   3615709   3616575   3617439   3618323   3619244  
  4730.000000   3620205   3621203   3622222   3623247   3624251  
  4720.000000   3625223   3626142   3627015   3627843   3628660  
  4710.000000   3629486   3630373   3631345   3632454   3633722  
  4700.000000   3635195   3636898   3638879   3641166   3643800  
  4690.000000   3646792   3650150   3653847   3657853   3662102  
  4680.000000   3666543   3671091   3675692   3680264   3684763  
  4670.000000   3689123   3693330   3697358   3701239   3705000  
  4660.000000   3708717   3712452   3716291   3720292   3724513  
  4650.000000   3728978   3733698   3738659   3743829   3749167  
  4640.000000   3754620   3760144   3765691   3771234   3776742  
  4630.000000   3782203   3787589   3792885   3798042   3803024  
  4620.000000   3807760   3812207   3816296   3820009   3823307  
  4610.000000   3826211   3828718   3830883   3832724   3834307  
  4600.000000   3835644   3836798   3837762   3838580   3839229  
  4590.000000   3839734   3840057   3840206   3840133   3839833  
  4580.000000   3839255   3838395   3837220   3835748   3833985  
  4570.000000   3831984   3829783   3827455   3825041   3822593  
  4560.000000   3820125   3817656   3815173   3812678   3810157  
  4550.000000   3807622   3805075   3802538   3800021   3797540  
  4540.000000   3795104   3792718   3790392   3788125   3785926  
  4530.000000   3783784   3781698   3779638   3777593   3775531  
  4520.000000   3773457   3771362   3769292   3767266   3765363  
  4510.000000   3763605   3762071   3760765   3759759   3759046  
  4500.000000   3758701   3758723   3759204   3760146   3761651  
  4490.000000   3763716   3766442   3769817   3773934   3778766  
  4480.000000   3784393   3790765   3797941   3805852   3814541  
  4470.000000   3823928   3834046   3844810   3856243   3868254  
  4460.000000   3880852   3893943   3907522   3921496   3935850  
  4450.000000   3950496   3965415   3980536   3995848   4011309  
  4440.000000   4026918   4042655   4058505   4074437   4090395  
  4430.000000   4106321   4122118   4137725   4153043   4168047  
  4420.000000   4182666   4196911   4210724   4224115   4237002  
  4410.000000   4249361   4261079   4272118   4282380   4291878  
  4400.000000   4300588   4308610   4316007   4322940   4329509  
  4390.000000   4335878   4342125   4348372   4354651   4361031  
  4380.000000   4367500   4374083   4380740   4387470   4394227  
  4370.000000   4401005   4407764   4414494   4421158   4427745  
  4360.000000   4434217   4440580   4446806   4452932   4458923  
  4350.000000   4464829   4470572   4476186   4481562   4486744  
  4340.000000   4491652   4496348   4500736   4504761   4508127  
  4330.000000   4510486   4511289   4510034   4506263   4499821  
  4320.000000   4490844   4479861   4467633   4455072   4442996  
  4310.000000   4432053   4422575   4414647   4408126   4402784  
  4300.000000   4398382   4394738   4391765   4389411   4387689  
  4290.000000   4386561   4386035   4386041   4386585   4387612  
  4280.000000   4389139   4391127   4393554   4396352   4399430  
  4270.000000   4402690   4406006   4409258   4412276   4414862  
  4260.000000   4416745   4417635   4417225   4415298   4411747  
  4250.000000   4406668   4400307   4393086   4385456   4377900  
  4240.000000   4370758   4364289   4358546   4353508   4349024  
  4230.000000   4344949   4341113   4337395   4333712   4330011  
  4220.000000   4326295   4322563   4318877   4315275   4311861  
  4210.000000   4308691   4305870   4303431   4301430   4299842  
  4200.000000   4298659   4297808   4297249   4296902   4296745  
  4190.000000   4296717   4296826   4297033   4297365   4297789  
  4180.000000   4298338   4298986   4299782   4300717   4301864  
  4170.000000   4303241   4304942   4306993   4309480   4312409  
  4160.000000   4315834   4319723   4324097   4328900   4334146  
  4150.000000   4339780   4345831   4352256   4359095   4366307  
  4140.000000   4373928   4381905   4390264   4398942   4407960  
  4130.000000   4417255   4426859   4436730   4446918   4457410  
  4120.000000   4468278   4479531   4491253   4503462   4516234  
  4110.000000   4529575   4543524   4558040   4573096   4588587  
  4100.000000   4604425   4620478   4636656   4652869   4669085  
  4090.000000   4685288   4701490   4717709   4733945   4750207  
  4080.000000   4766459   4782703   4798884   4815002   4830974  
  4070.000000   4846770   4862255   4877365   4891941   4905940  
  4060.000000   4919249   4931891   4943804   4955052   4965584  
  4050.000000   4975473   4984673   4993273   5001243   5008679  
  4040.000000   5015532   5021863   5027587   5032744   5037262  
  4030.000000   5041219   5044595   5047497   5049914   5051910  
  4020.000000   5053417   5054471   5055048   5055211   5054944  
  4010.000000   5054366   5053548   5052491   5051009   5049097  
  4000.000000   5046956  
##END= 
