##TITLE= Sample 011 By ssteindl date Montag, November 19 2018
##JCAMP-DX= 4.24
##DATA TYPE= INFRARED SPECTRUM
##ORIGIN= Exported PE Spectrum Data File
##OWNER= Sandra Steindl
##DATE= 18/11/19
##TIME= 17:33:10.00
##SPECTROMETER/DATA SYSTEM= PERKIN-ELMER Frontier FT-IR/NIR IR
##INSTRUMENT PARAMETERS=
  APODIZATION=stark
  DETECTOR=INGAAS
##RESOLUTION= 16.000000
##DELTAX= -2.000000
##XUNITS= 1/CM
##YUNITS= A
##XFACTOR= 1.00
##YFACTOR= 0.00000011920928955078
##FIRSTX= 10000.00
##LASTX= 4000.00
##NPOINTS= 3001
##FIRSTY= 0.188318
##MAXY= 0.625678
##MINY= 0.160427
##XYDATA= (X++(Y..Y))
 10000.000000   1579723   1587747   1594093   1596569   1594827  
  9990.000000   1590278   1584444   1578587   1573824   1570952  
  9980.000000   1569854   1569687   1569372   1568000   1564976  
  9970.000000   1560226   1554162   1547548   1541195   1535877  
  9960.000000   1532149   1530399   1530814   1533402   1537926  
  9950.000000   1543872   1550434   1556636   1561522   1564382  
  9940.000000   1564939   1563355   1560203   1556173   1551942  
  9930.000000   1547914   1544239   1540851   1537599   1534420  
  9920.000000   1531327   1528481   1526042   1524170   1522951  
  9910.000000   1522400   1522485   1523058   1523882   1524554  
  9900.000000   1524615   1523643   1521478   1518373   1515045  
  9890.000000   1512553   1511985   1514087   1518946   1525878  
  9880.000000   1533583   1540504   1545276   1547075   1545789  
  9870.000000   1541960   1536570   1530723   1525408   1521298  
  9860.000000   1518732   1517703   1517926   1518898   1519956  
  9850.000000   1520466   1519908   1518149   1515428   1512414  
  9840.000000   1509940   1508760   1509271   1511343   1514409  
  9830.000000   1517604   1520092   1521265   1520891   1519106  
  9820.000000   1516300   1512991   1509676   1506784   1504616  
  9810.000000   1503346   1502984   1503354   1504102   1504748  
  9800.000000   1504821   1503998   1502216   1499679   1496782  
  9790.000000   1493923   1491396   1489293   1487602   1486298  
  9780.000000   1485464   1485303   1486011   1487669   1490086  
  9770.000000   1492855   1495455   1497478   1498771   1499475  
  9760.000000   1499901   1500305   1500716   1500845   1500247  
  9750.000000   1498518   1495598   1491810   1487815   1484297  
  9740.000000   1481696   1480017   1478846   1477627   1475933  
  9730.000000   1473789   1471643   1470272   1470369   1472316  
  9720.000000   1475944   1480643   1485547   1489798   1492789  
  9710.000000   1494159   1493853   1491904   1488496   1483832  
  9700.000000   1478279   1472295   1466471   1461386   1457500  
  9690.000000   1455074   1454103   1454473   1455952   1458432  
  9680.000000   1461781   1465933   1470668   1475632   1480344  
  9670.000000   1484284   1487087   1488514   1488575   1487288  
  9660.000000   1484760   1480972   1475994   1469955   1463245  
  9650.000000   1456493   1450458   1445920   1443353   1442969  
  9640.000000   1444553   1447790   1452257   1457698   1463864  
  9630.000000   1470484   1477083   1482924   1487199   1489133  
  9620.000000   1488381   1485005   1479578   1472877   1465700  
  9610.000000   1458644   1452062   1446201   1441328   1437886  
  9600.000000   1436366   1437151   1440137   1444634   1449365  
  9590.000000   1452880   1454052   1452525   1448940   1444663  
  9580.000000   1441369   1440330   1442054   1446059   1451169  
  9570.000000   1455944   1459222   1460465   1459826   1457993  
  9560.000000   1455818   1454047   1453101   1453073   1453809  
  9550.000000   1455023   1456406   1457640   1458429   1458524  
  9540.000000   1457766   1456185   1454010   1451682   1449696  
  9530.000000   1448480   1448192   1448714   1449651   1450568  
  9520.000000   1451114   1451220   1451051   1450936   1451132  
  9510.000000   1451681   1452321   1452549   1451798   1449621  
  9500.000000   1445897   1440866   1435114   1429389   1424399  
  9490.000000   1420621   1418181   1416881   1416317   1416035  
  9480.000000   1415713   1415196   1414535   1413866   1413343  
  9470.000000   1413008   1412817   1412631   1412396   1412166  
  9460.000000   1412209   1412858   1414418   1416966   1420296  
  9450.000000   1423934   1427283   1429821   1431257   1431635  
  9440.000000   1431274   1430668   1430273   1430399   1431101  
  9430.000000   1432246   1433555   1434730   1435482   1435590  
  9420.000000   1434879   1433260   1430717   1427376   1423495  
  9410.000000   1419467   1415730   1412647   1410423   1409032  
  9400.000000   1408294   1407932   1407702   1407442   1407079  
  9390.000000   1406626   1406119   1405646   1405319   1405320  
  9380.000000   1405882   1407250   1409596   1412854   1416691  
  9370.000000   1420442   1423341   1424661   1424023   1421434  
  9360.000000   1417337   1412431   1407497   1403223   1400076  
  9350.000000   1398339   1398101   1399379   1402072   1405973  
  9340.000000   1410676   1415604   1420054   1423335   1424962  
  9330.000000   1424755   1422939   1420024   1416684   1413561  
  9320.000000   1411128   1409664   1409218   1409746   1411075  
  9310.000000   1413007   1415235   1417392   1419038   1419735  
  9300.000000   1419129   1417017   1413440   1408661   1403164  
  9290.000000   1397540   1392405   1388304   1385623   1384571  
  9280.000000   1385095   1386921   1389538   1392346   1394754  
  9270.000000   1396336   1396896   1396492   1395395   1393959  
  9260.000000   1392535   1391318   1390398   1389723   1389237  
  9250.000000   1388852   1388492   1388034   1387304   1386123  
  9240.000000   1384351   1382005   1379287   1376639   1374624  
  9230.000000   1373787   1374417   1376440   1379403   1382625  
  9220.000000   1385393   1387144   1387599   1386769   1384923  
  9210.000000   1382411   1379578   1376656   1373813   1371169  
  9200.000000   1368851   1366999   1365729   1365108   1365101  
  9190.000000   1365608   1366452   1367460   1368477   1369380  
  9180.000000   1370089   1370517   1370621   1370353   1369765  
  9170.000000   1368953   1368110   1367436   1367102   1367190  
  9160.000000   1367663   1368425   1369337   1370326   1371365  
  9150.000000   1372509   1373817   1375305   1376883   1378348  
  9140.000000   1379421   1379814   1379329   1377911   1375707  
  9130.000000   1373021   1370259   1367822   1365999   1364924  
  9120.000000   1364521   1364561   1364720   1364720   1364423  
  9110.000000   1363881   1363287   1362891   1362887   1363318  
  9100.000000   1364058   1364850   1365448   1365703   1365669  
  9090.000000   1365536   1365572   1365951   1366678   1367541  
  9080.000000   1368214   1368383   1367910   1366901   1365679  
  9070.000000   1364689   1364336   1364863   1366258   1368317  
  9060.000000   1370696   1373057   1375093   1376614   1377503  
  9050.000000   1377756   1377430   1376663   1375653   1374618  
  9040.000000   1373760   1373132   1372639   1371991   1370834  
  9030.000000   1368855   1365920   1362201   1358143   1354414  
  9020.000000   1351684   1350504   1351147   1353558   1357373  
  9010.000000   1361984   1366678   1370733   1373532   1374674  
  9000.000000   1374052   1371901   1368767   1365426   1362721  
  8990.000000   1361325   1361556   1363277   1365933   1368683  
  8980.000000   1370607   1370994   1369513   1366294   1361840  
  8970.000000   1356894   1352267   1348638   1346435   1345759  
  8960.000000   1346438   1348078   1350179   1352247   1353917  
  8950.000000   1355023   1355610   1355886   1356129   1356588  
  8940.000000   1357402   1358557   1359919   1361319   1362641  
  8930.000000   1363866   1365046   1366247   1367478   1368608  
  8920.000000   1369393   1369506   1368703   1366859   1364070  
  8910.000000   1360626   1356999   1353721   1351277   1350054  
  8900.000000   1350258   1351944   1354922   1358871   1363321  
  8890.000000   1367795   1371851   1375191   1377722   1379492  
  8880.000000   1380670   1381349   1381547   1381095   1379785  
  8870.000000   1377443   1374119   1370159   1366169   1362898  
  8860.000000   1360965   1360745   1362187   1364905   1368235  
  8850.000000   1371495   1374143   1375901   1376762   1376901  
  8840.000000   1376602   1376110   1375639   1375285   1375110  
  8830.000000   1375089   1375175   1375277   1375298   1375182  
  8820.000000   1374946   1374726   1374739   1375240   1376406  
  8810.000000   1378251   1380577   1382995   1385059   1386401  
  8800.000000   1386884   1386633   1386000   1385428   1385301  
  8790.000000   1385822   1386962   1388496   1390127   1391581  
  8780.000000   1392727   1393550   1394136   1394566   1394863  
  8770.000000   1394986   1394866   1394492   1393979   1393583  
  8760.000000   1393660   1394546   1396437   1399285   1402779  
  8750.000000   1406410   1409614   1411917   1413082   1413148  
  8740.000000   1412430   1411392   1410535   1410237   1410693  
  8730.000000   1411886   1413639   1415691   1417774   1419678  
  8720.000000   1421276   1422548   1423547   1424395   1425241  
  8710.000000   1426232   1427487   1429046   1430870   1432816  
  8700.000000   1434690   1436295   1437507   1438329   1438897  
  8690.000000   1439446   1440221   1441401   1443026   1444982  
  8680.000000   1447048   1448966   1450547   1451714   1452528  
  8670.000000   1453139   1453728   1454437   1455348   1456470  
  8660.000000   1457779   1459238   1460829   1462555   1464426  
  8650.000000   1466447   1468597   1470844   1473145   1475460  
  8640.000000   1477749   1479967   1482051   1483922   1485498  
  8630.000000   1486733   1487648   1488330   1488924   1489568  
  8620.000000   1490359   1491291   1492265   1493111   1493678  
  8610.000000   1493896   1493823   1493651   1493652   1494110  
  8600.000000   1495217   1497052   1499547   1502533   1505773  
  8590.000000   1509034   1512113   1514869   1517197   1519049  
  8580.000000   1520418   1521346   1521916   1522241   1522456  
  8570.000000   1522666   1522929   1523219   1523444   1523477  
  8560.000000   1523199   1522573   1521667   1520676   1519860  
  8550.000000   1519508   1519832   1520926   1522719   1525004  
  8540.000000   1527501   1529916   1532028   1533708   1534951  
  8530.000000   1535819   1536412   1536810   1537086   1537293  
  8520.000000   1537511   1537847   1538448   1539448   1540907  
  8510.000000   1542772   1544856   1546885   1548578   1549743  
  8500.000000   1550363   1550588   1550698   1550992   1551691  
  8490.000000   1552865   1554418   1556163   1557915   1559579  
  8480.000000   1561187   1562864   1564743   1566881   1569189  
  8470.000000   1571451   1573388   1574773   1575529   1575762  
  8460.000000   1575737   1575784   1576182   1577078   1578435  
  8450.000000   1580074   1581743   1583207   1584311   1585012  
  8440.000000   1585363   1585475   1585469   1585454   1585514  
  8430.000000   1585722   1586117   1586737   1587587   1588659  
  8420.000000   1589904   1591261   1592655   1594020   1595289  
  8410.000000   1596385   1597213   1597658   1597620   1597042  
  8400.000000   1595959   1594526   1593010   1591737   1590996  
  8390.000000   1590972   1591680   1592978   1594595   1596234  
  8380.000000   1597645   1598690   1599342   1599660   1599749  
  8370.000000   1599709   1599628   1599570   1599594   1599759  
  8360.000000   1600117   1600693   1601445   1602279   1603058  
  8350.000000   1603669   1604057   1604258   1604379   1604543  
  8340.000000   1604816   1605160   1605430   1605427   1604989  
  8330.000000   1604072   1602795   1601423   1600269   1599597  
  8320.000000   1599520   1599976   1600749   1601556   1602142  
  8310.000000   1602364   1602219   1601815   1601313   1600870  
  8300.000000   1600599   1600557   1600752   1601151   1601694  
  8290.000000   1602291   1602834   1603198   1603277   1603017  
  8280.000000   1602445   1601675   1600867   1600183   1599721  
  8270.000000   1599501   1599454   1599487   1599515   1599528  
  8260.000000   1599575   1599737   1600060   1600509   1600953  
  8250.000000   1601196   1601040   1600362   1599167   1597590  
  8240.000000   1595856   1594206   1592832   1591836   1591218  
  8230.000000   1590910   1590790   1590736   1590623   1590360  
  8220.000000   1589872   1589131   1588146   1586994   1585797  
  8210.000000   1584704   1583837   1583241   1582860   1582550  
  8200.000000   1582116   1581389   1580271   1578787   1577062  
  8190.000000   1575296   1573678   1572329   1571265   1570394  
  8180.000000   1569555   1568577   1567334   1565779   1563969  
  8170.000000   1562032   1560146   1558475   1557132   1556137  
  8160.000000   1555422   1554857   1554295   1553632   1552838  
  8150.000000   1551981   1551192   1550630   1550399   1550514  
  8140.000000   1550873   1551290   1551546   1551460   1550931  
  8130.000000   1549953   1548595   1546959   1545137   1543189  
  8120.000000   1541151   1539049   1536931   1534875   1532970  
  8110.000000   1531298   1529887   1528717   1527713   1526790  
  8100.000000   1525883   1524976   1524102   1523321   1522682  
  8090.000000   1522192   1521804   1521440   1521024   1520515  
  8080.000000   1519928   1519309   1518710   1518135   1517529  
  8070.000000   1516773   1515738   1514324   1512524   1510430  
  8060.000000   1508234   1506162   1504419   1503129   1502294  
  8050.000000   1501820   1501537   1501278   1500923   1500430  
  8040.000000   1499836   1499222   1498674   1498232   1497885  
  8030.000000   1497558   1497157   1496593   1495832   1494897  
  8020.000000   1493869   1492860   1491971   1491271   1490769  
  8010.000000   1490420   1490144   1489847   1489451   1488902  
  8000.000000   1488187   1487327   1486371   1485387   1484455  
  7990.000000   1483655   1483049   1482674   1482517   1482525  
  7980.000000   1482597   1482622   1482497   1482161   1481612  
  7970.000000   1480897   1480099   1479290   1478517   1477766  
  7960.000000   1476994   1476133   1475140   1474005   1472776  
  7950.000000   1471536   1470387   1469420   1468700   1468261  
  7940.000000   1468116   1468267   1468709   1469421   1470353  
  7930.000000   1471403   1472431   1473259   1473737   1473758  
  7920.000000   1473327   1472538   1471572   1470633   1469889  
  7910.000000   1469443   1469299   1469406   1469681   1470065  
  7900.000000   1470534   1471097   1471752   1472453   1473083  
  7890.000000   1473470   1473440   1472879   1471807   1470384  
  7880.000000   1468895   1467663   1466959   1466919   1467494  
  7870.000000   1468484   1469591   1470528   1471090   1471221  
  7860.000000   1470989   1470566   1470135   1469845   1469760  
  7850.000000   1469860   1470066   1470268   1470375   1470315  
  7840.000000   1470053   1469571   1468859   1467924   1466784  
  7830.000000   1465494   1464146   1462866   1461789   1461030  
  7820.000000   1460642   1460607   1460821   1461137   1461394  
  7810.000000   1461474   1461324   1460980   1460533   1460099  
  7800.000000   1459770   1459577   1459484   1459399   1459217  
  7790.000000   1458852   1458267   1457479   1456539   1455511  
  7780.000000   1454444   1453373   1452320   1451316   1450412  
  7770.000000   1449673   1449159   1448893   1448835   1448884  
  7760.000000   1448899   1448750   1448357   1447731   1446961  
  7750.000000   1446187   1445547   1445120   1444908   1444834  
  7740.000000   1444780   1444627   1444295   1443755   1443027  
  7730.000000   1442159   1441204   1440217   1439250   1438359  
  7720.000000   1437607   1437049   1436717   1436597   1436626  
  7710.000000   1436698   1436698   1436541   1436192   1435685  
  7700.000000   1435102   1434553   1434137   1433918   1433915  
  7690.000000   1434092   1434381   1434676   1434863   1434823  
  7680.000000   1434465   1433739   1432671   1431365   1429995  
  7670.000000   1428770   1427879   1427447   1427493   1427937  
  7660.000000   1428620   1429362   1430005   1430458   1430693  
  7650.000000   1430732   1430618   1430380   1430041   1429599  
  7640.000000   1429070   1428475   1427869   1427309   1426850  
  7630.000000   1426524   1426340   1426290   1426363   1426562  
  7620.000000   1426897   1427384   1428027   1428804   1429666  
  7610.000000   1430543   1431364   1432068   1432629   1433035  
  7600.000000   1433311   1433479   1433573   1433621   1433655  
  7590.000000   1433704   1433802   1433979   1434261   1434662  
  7580.000000   1435186   1435827   1436571   1437398   1438277  
  7570.000000   1439164   1440006   1440742   1441328   1441744  
  7560.000000   1442023   1442230   1442468   1442834   1443406  
  7550.000000   1444205   1445199   1446306   1447428   1448477  
  7540.000000   1449406   1450212   1450939   1451648   1452409  
  7530.000000   1453260   1454218   1455251   1456317   1457361  
  7520.000000   1458350   1459279   1460186   1461139   1462222  
  7510.000000   1463503   1465020   1466758   1468664   1470641  
  7500.000000   1472593   1474423   1476076   1477525   1478784  
  7490.000000   1479887   1480896   1481890   1482970   1484248  
  7480.000000   1485832   1487794   1490152   1492842   1495730  
  7470.000000   1498627   1501340   1503718   1505705   1507332  
  7460.000000   1508726   1510045   1511462   1513096   1515016  
  7450.000000   1517216   1519659   1522274   1524989   1527733  
  7440.000000   1530443   1533073   1535594   1538007   1540340  
  7430.000000   1542649   1545005   1547463   1550052   1552752  
  7420.000000   1555510   1558242   1560873   1563348   1565652  
  7410.000000   1567806   1569854   1571847   1573829   1575835  
  7400.000000   1577886   1579998   1582184   1584454   1586813  
  7390.000000   1589251   1591746   1594265   1596769   1599225  
  7380.000000   1601609   1603918   1606163   1608372   1610582  
  7370.000000   1612828   1615138   1617519   1619952   1622389  
  7360.000000   1624768   1627014   1629075   1630932   1632608  
  7350.000000   1634171   1635711   1637323   1639078   1641017  
  7340.000000   1643146   1645455   1647924   1650542   1653285  
  7330.000000   1656127   1659012   1661865   1664596   1667130  
  7320.000000   1669427   1671493   1673375   1675142   1676852  
  7310.000000   1678537   1680187   1681767   1683232   1684565  
  7300.000000   1685778   1686927   1688074   1689284   1690576  
  7290.000000   1691940   1693320   1694660   1695902   1697024  
  7280.000000   1698031   1698954   1699829   1700686   1701539  
  7270.000000   1702384   1703212   1704012   1704788   1705554  
  7260.000000   1706337   1707158   1708040   1708988   1710008  
  7250.000000   1711095   1712260   1713514   1714894   1716424  
  7240.000000   1718139   1720039   1722114   1724310   1726573  
  7230.000000   1728826   1731032   1733160   1735239   1737306  
  7220.000000   1739442   1741707   1744167   1746841   1749738  
  7210.000000   1752822   1756059   1759396   1762806   1766267  
  7200.000000   1769795   1773408   1777152   1781045   1785111  
  7190.000000   1789317   1793627   1797952   1802219   1806348  
  7180.000000   1810318   1814133   1817871   1821624   1825515  
  7170.000000   1829629   1834032   1838716   1843649   1848744  
  7160.000000   1853930   1859132   1864326   1869508   1874720  
  7150.000000   1880010   1885447   1891069   1896917   1902977  
  7140.000000   1909231   1915613   1922071   1928527   1934949  
  7130.000000   1941296   1947578   1953792   1959981   1966169  
  7120.000000   1972418   1978772   1985300   1992047   1999059  
  7110.000000   2006338   2013866   2021583   2029426   2037324  
  7100.000000   2045240   2053150   2061070   2069005   2076965  
  7090.000000   2084921   2092844   2100684   2108430   2116087  
  7080.000000   2123705   2131337   2139033   2146802   2154625  
  7070.000000   2162452   2170246   2177996   2185732   2193515  
  7060.000000   2201405   2209430   2217576   2225786   2233986  
  7050.000000   2242118   2250158   2258120   2266033   2273921  
  7040.000000   2281775   2289562   2297231   2304755   2312142  
  7030.000000   2319450   2326744   2334092   2341500   2348936  
  7020.000000   2356308   2363526   2370511   2377242   2383730  
  7010.000000   2390029   2396184   2402239   2408206   2414102  
  7000.000000   2419926   2425704   2431442   2437160   2442841  
  6990.000000   2448470   2454008   2459444   2464765   2470002  
  6980.000000   2475167   2480277   2485302   2490208   2494931  
  6970.000000   2499449   2503748   2507873   2511862   2515762  
  6960.000000   2519566   2523261   2526793   2530148   2533319  
  6950.000000   2536363   2539327   2542264   2545164   2547993  
  6940.000000   2550675   2553163   2555441   2557559   2559588  
  6930.000000   2561608   2563644   2565683   2567654   2569501  
  6920.000000   2571190   2572761   2574291   2575884   2577600  
  6910.000000   2579447   2581358   2583236   2584982   2586539  
  6900.000000   2587903   2589112   2590220   2591274   2592297  
  6890.000000   2593300   2594291   2595299   2596361   2597515  
  6880.000000   2598776   2600127   2601514   2602877   2604167  
  6870.000000   2605372   2606514   2607637   2608773   2609930  
  6860.000000   2611084   2612196   2613239   2614211   2615143  
  6850.000000   2616079   2617049   2618054   2619052   2619987  
  6840.000000   2620812   2621522   2622161   2622813   2623563  
  6830.000000   2624468   2625524   2626674   2627821   2628870  
  6820.000000   2629746   2630427   2630933   2631326   2631671  
  6810.000000   2632032   2632444   2632917   2633427   2633928  
  6800.000000   2634350   2634631   2634715   2634591   2634280  
  6790.000000   2633855   2633403   2633022   2632776   2632698  
  6780.000000   2632770   2632949   2633170   2633372   2633496  
  6770.000000   2633498   2633342   2633005   2632484   2631805  
  6760.000000   2631021   2630216   2629476   2628877   2628451  
  6750.000000   2628187   2628028   2627899   2627722   2627443  
  6740.000000   2627031   2626484   2625809   2625021   2624138  
  6730.000000   2623186   2622198   2621221   2620301   2619472  
  6720.000000   2618739   2618085   2617462   2616826   2616137  
  6710.000000   2615382   2614559   2613681   2612753   2611768  
  6700.000000   2610714   2609585   2608388   2607151   2605914  
  6690.000000   2604716   2603572   2602484   2601423   2600368  
  6680.000000   2599301   2598233   2597181   2596167   2595190  
  6670.000000   2594224   2593214   2592105   2590849   2589435  
  6660.000000   2587880   2586231   2584538   2582849   2581187  
  6650.000000   2579570   2577996   2576466   2574972   2573504  
  6640.000000   2572041   2570559   2569031   2567447   2565810  
  6630.000000   2564144   2562479   2560840   2559230   2557637  
  6620.000000   2556028   2554381   2552681   2550941   2549180  
  6610.000000   2547420   2545662   2543888   2542063   2540156  
  6600.000000   2538151   2536065   2533931   2531791   2529671  
  6590.000000   2527578   2525498   2523407   2521295   2519168  
  6580.000000   2517053   2514985   2512994   2511096   2509292  
  6570.000000   2507575   2505940   2504388   2502926   2501552  
  6560.000000   2500250   2498982   2497703   2496366   2494952  
  6550.000000   2493465   2491941   2490422   2488948   2487536  
  6540.000000   2486186   2484881   2483603   2482342   2481094  
  6530.000000   2479853   2478610   2477346   2476039   2474680  
  6520.000000   2473281   2471883   2470543   2469317   2468241  
  6510.000000   2467313   2466500   2465744   2464991   2464203  
  6500.000000   2463369   2462502   2461627   2460768   2459938  
  6490.000000   2459138   2458361   2457597   2456837   2456069  
  6480.000000   2455277   2454442   2453546   2452573   2451523  
  6470.000000   2450408   2449250   2448073   2446894   2445721  
  6460.000000   2444557   2443405   2442275   2441184   2440152  
  6450.000000   2439185   2438277   2437399   2436514   2435589  
  6440.000000   2434610   2433587   2432556   2431559   2430636  
  6430.000000   2429806   2429069   2428399   2427769   2427141  
  6420.000000   2426490   2425792   2425034   2424212   2423335  
  6410.000000   2422423   2421513   2420646   2419858   2419164  
  6400.000000   2418558   2418013   2417495   2416977   2416452  
  6390.000000   2415932   2415442   2415000   2414611   2414258  
  6380.000000   2413913   2413547   2413146   2412711   2412260  
  6370.000000   2411808   2411362   2410913   2410442   2409933  
  6360.000000   2409384   2408814   2408251   2407720   2407228  
  6350.000000   2406760   2406282   2405761   2405172   2404519  
  6340.000000   2403819   2403101   2402384   2401674   2400960  
  6330.000000   2400228   2399467   2398683   2397888   2397097  
  6320.000000   2396308   2395508   2394659   2393731   2392699  
  6310.000000   2391569   2390361   2389117   2387864   2386622  
  6300.000000   2385380   2384124   2382828   2381483   2380080  
  6290.000000   2378626   2377116   2375548   2373902   2372172  
  6280.000000   2370348   2368448   2366493   2364517   2362539  
  6270.000000   2360569   2358595   2356604   2354575   2352508  
  6260.000000   2350407   2348290   2346166   2344045   2341915  
  6250.000000   2339765   2337577   2335345   2333066   2330748  
  6240.000000   2328395   2326015   2323607   2321175   2318726  
  6230.000000   2316274   2313835   2311422   2309041   2306686  
  6220.000000   2304348   2302021   2299709   2297433   2295219  
  6210.000000   2293092   2291062   2289115   2287213   2285304  
  6200.000000   2283338   2281277   2279107   2276838   2274497  
  6190.000000   2272124   2269762   2267447   2265209   2263069  
  6180.000000   2261033   2259095   2257234   2255423   2253628  
  6170.000000   2251820   2249979   2248097   2246177   2244232  
  6160.000000   2242277   2240331   2238412   2236535   2234709  
  6150.000000   2232935   2231199   2229477   2227737   2225946  
  6140.000000   2224088   2222165   2220205   2218249   2216339  
  6130.000000   2214508   2212766   2211103   2209499   2207930  
  6120.000000   2206387   2204864   2203372   2201917   2200503  
  6110.000000   2199119   2197759   2196410   2195080   2193779  
  6100.000000   2192535   2191365   2190288   2189301   2188398  
  6090.000000   2187554   2186757   2185990   2185252   2184535  
  6080.000000   2183848   2183189   2182574   2182012   2181529  
  6070.000000   2181144   2180885   2180758   2180767   2180886  
  6060.000000   2181093   2181346   2181619   2181880   2182125  
  6050.000000   2182344   2182559   2182785   2183070   2183449  
  6040.000000   2183973   2184666   2185548   2186603   2187808  
  6030.000000   2189120   2190513   2191963   2193475   2195052  
  6020.000000   2196704   2198417   2200173   2201929   2203655  
  6010.000000   2205321   2206933   2208503   2210068   2211649  
  6000.000000   2213268   2214919   2216599   2218296   2220017  
  5990.000000   2221771   2223584   2225472   2227450   2229514  
  5980.000000   2231660   2233878   2236170   2238540   2241003  
  5970.000000   2243561   2246217   2248952   2251750   2254590  
  5960.000000   2257465   2260368   2263305   2266267   2269244  
  5950.000000   2272206   2275131   2277992   2280790   2283538  
  5940.000000   2286270   2289021   2291825   2294702   2297662  
  5930.000000   2300706   2303834   2307046   2310338   2313697  
  5920.000000   2317100   2320508   2323876   2327161   2330336  
  5910.000000   2333387   2336320   2339147   2341885   2344549  
  5900.000000   2347158   2349732   2352303   2354910   2357588  
  5890.000000   2360367   2363250   2366226   2369255   2372300  
  5880.000000   2375319   2378288   2381193   2384025   2386782  
  5870.000000   2389455   2392034   2394510   2396888   2399180  
  5860.000000   2401412   2403612   2405809   2408028   2410288  
  5850.000000   2412611   2415020   2417536   2420178   2422951  
  5840.000000   2425842   2428826   2431865   2434925   2437981  
  5830.000000   2441024   2444048   2447049   2450013   2452918  
  5820.000000   2455733   2458435   2461008   2463458   2465791  
  5810.000000   2468021   2470140   2472147   2474011   2475737  
  5800.000000   2477315   2478785   2480163   2481497   2482774  
  5790.000000   2483994   2485094   2486032   2486732   2487161  
  5780.000000   2487268   2487043   2486457   2485514   2484214  
  5770.000000   2482600   2480728   2478697   2476602   2474545  
  5760.000000   2472588   2470771   2469091   2467546   2466128  
  5750.000000   2464848   2463731   2462803   2462081   2461550  
  5740.000000   2461181   2460918   2460722   2460548   2460391  
  5730.000000   2460239   2460112   2460009   2459947   2459926  
  5720.000000   2459964   2460071   2460272   2460573   2460974  
  5710.000000   2461453   2461982   2462525   2463064   2463592  
  5700.000000   2464119   2464659   2465219   2465797   2466377  
  5690.000000   2466948   2467501   2468048   2468602   2469183  
  5680.000000   2469784   2470384   2470928   2471360   2471615  
  5670.000000   2471660   2471475   2471074   2470473   2469707  
  5660.000000   2468799   2467782   2466681   2465538   2464381  
  5650.000000   2463246   2462146   2461090   2460068   2459073  
  5640.000000   2458098   2457148   2456230   2455352   2454512  
  5630.000000   2453699   2452896   2452087   2451272   2450463  
  5620.000000   2449683   2448951   2448277   2447653   2447060  
  5610.000000   2446479   2445899   2445327   2444776   2444263  
  5600.000000   2443785   2443323   2442839   2442293   2441656  
  5590.000000   2440924   2440109   2439245   2438355   2437458  
  5580.000000   2436547   2435615   2434644   2433634   2432587  
  5570.000000   2431519   2430433   2429329   2428188   2426996  
  5560.000000   2425737   2424414   2423044   2421656   2420279  
  5550.000000   2418937   2417641   2416396   2415201   2414059  
  5540.000000   2412971   2411937   2410951   2409998   2409058  
  5530.000000   2408114   2407160   2406200   2405249   2404320  
  5520.000000   2403421   2402547   2401682   2400808   2399909  
  5510.000000   2398983   2398026   2397040   2396018   2394948  
  5500.000000   2393814   2392611   2391342   2390033   2388710  
  5490.000000   2387403   2386111   2384823   2383501   2382116  
  5480.000000   2380639   2379069   2377415   2375704   2373948  
  5470.000000   2372157   2370320   2368436   2366499   2364525  
  5460.000000   2362530   2360533   2358537   2356531   2354494  
  5450.000000   2352409   2350272   2348099   2345927   2343797  
  5440.000000   2341741   2339773   2337893   2336090   2334356  
  5430.000000   2332680   2331061   2329478   2327915   2326337  
  5420.000000   2324735   2323107   2321503   2319984   2318636  
  5410.000000   2317504   2316609   2315899   2315315   2314775  
  5400.000000   2314251   2313732   2313271   2312915   2312728  
  5390.000000   2312722   2312908   2313250   2313748   2314387  
  5380.000000   2315203   2316206   2317428   2318841   2320434  
  5370.000000   2322143   2323963   2325856   2327866   2329994  
  5360.000000   2332306   2334796   2337519   2340459   2343685  
  5350.000000   2347206   2351124   2355456   2360293   2365605  
  5340.000000   2371436   2377715   2384482   2391682   2399387  
  5330.000000   2407556   2416263   2425450   2435173   2445364  
  5320.000000   2456108   2467374   2479292   2491849   2505179  
  5310.000000   2519236   2534105   2549698   2566084   2583187  
  5300.000000   2601104   2619804   2639423   2659952   2681525  
  5290.000000   2704100   2727737   2752307   2777760   2803901  
  5280.000000   2830656   2857894   2885652   2913944   2942908  
  5270.000000   2972587   3003015   3034065   3065543   3097183  
  5260.000000   3128744   3160082   3191142   3221981   3252632  
  5250.000000   3283134   3313361   3343185   3372330   3400664  
  5240.000000   3428004   3454415   3479892   3504628   3528634  
  5230.000000   3552036   3574715   3596669   3617692   3637771  
  5220.000000   3656762   3674768   3691758   3707923   3723266  
  5210.000000   3737949   3751903   3765190   3777653   3789315  
  5200.000000   3800042   3809930   3818937   3827227   3834780  
  5190.000000   3841719   3847962   3853555   3858382   3862493  
  5180.000000   3865820   3868465   3870403   3871738   3872426  
  5170.000000   3872537   3872011   3870929   3869271   3867152  
  5160.000000   3864577   3861643   3858316   3854640   3850553  
  5150.000000   3846096   3841241   3836071   3830595   3824895  
  5140.000000   3818963   3812841   3806495   3799951   3793195  
  5130.000000   3786275   3779200   3772019   3764725   3757339  
  5120.000000   3749835   3742226   3734506   3726710   3718859  
  5110.000000   3710999   3703146   3695326   3687537   3679789  
  5100.000000   3672076   3664408   3656780   3649194   3641634  
  5090.000000   3634091   3626547   3619001   3611455   3603927  
  5080.000000   3596428   3588971   3581549   3574150   3566750  
  5070.000000   3559331   3551880   3544404   3536912   3529424  
  5060.000000   3521949   3514493   3507045   3499594   3492122  
  5050.000000   3484615   3477062   3469458   3461800   3454090  
  5040.000000   3446332   3438534   3430709   3422878   3415066  
  5030.000000   3407297   3399601   3391997   3384507   3377135  
  5020.000000   3369891   3362767   3355764   3348866   3342078  
  5010.000000   3335388   3328818   3322370   3316081   3309959  
  5000.000000   3304044   3298328   3292837   3287543   3282459  
  4990.000000   3277556   3272858   3268351   3264082   3260052  
  4980.000000   3256316   3252870   3249761   3246971   3244538  
  4970.000000   3242433   3240693   3239284   3238239   3237520  
  4960.000000   3237157   3237111   3237419   3238047   3239044  
  4950.000000   3240383   3242114   3244200   3246680   3249509  
  4940.000000   3252719   3256269   3260198   3264476   3269144  
  4930.000000   3274165   3279566   3285296   3291365   3297715  
  4920.000000   3304354   3311230   3318357   3325692   3333253  
  4910.000000   3341008   3348979   3357147   3365539   3374142  
  4900.000000   3382977   3392024   3401280   3410712   3420292  
  4890.000000   3429979   3439737   3449526   3459305   3469044  
  4880.000000   3478706   3488270   3497703   3506994   3516106  
  4870.000000   3525022   3533692   3542091   3550167   3557913  
  4860.000000   3565302   3572366   3579111   3585594   3591828  
  4850.000000   3597863   3603696   3609361   3614847   3620188  
  4840.000000   3625375   3630444   3635387   3640229   3644948  
  4830.000000   3649556   3654023   3658356   3662530   3666555  
  4820.000000   3670413   3674119   3677665   3681072   3684340  
  4810.000000   3687495   3690540   3693494   3696352   3699123  
  4800.000000   3701798   3704391   3706905   3709371   3711805  
  4790.000000   3714237   3716668   3719104   3721518   3723892  
  4780.000000   3726188   3728395   3730492   3732489   3734382  
  4770.000000   3736188   3737898   3739521   3741038   3742448  
  4760.000000   3743724   3744869   3745853   3746681   3747324  
  4750.000000   3747790   3748057   3748142   3748039   3747776  
  4740.000000   3747356   3746809   3746131   3745339   3744412  
  4730.000000   3743353   3742132   3740751   3739193   3737472  
  4720.000000   3735594   3733590   3731481   3729305   3727081  
  4710.000000   3724841   3722599   3720380   3718196   3716067  
  4700.000000   3714003   3712017   3710112   3708291   3706547  
  4690.000000   3704874   3703262   3701703   3700191   3698716  
  4680.000000   3697270   3695832   3694386   3692907   3691381  
  4670.000000   3689792   3688149   3686459   3684754   3683057  
  4660.000000   3681406   3679821   3678330   3676945   3675689  
  4650.000000   3674570   3673610   3672816   3672201   3671759  
  4640.000000   3671485   3671355   3671351   3671446   3671625  
  4630.000000   3671864   3672155   3672478   3672822   3673166  
  4620.000000   3673498   3673797   3674055   3674259   3674404  
  4610.000000   3674484   3674493   3674430   3674296   3674105  
  4600.000000   3673877   3673644   3673432   3673267   3673153  
  4590.000000   3673084   3673027   3672950   3672810   3672583  
  4580.000000   3672247   3671807   3671270   3670660   3669993  
  4570.000000   3669289   3668555   3667798   3667011   3666192  
  4560.000000   3665328   3664413   3663438   3662403   3661313  
  4550.000000   3660180   3659018   3657845   3656673   3655505  
  4540.000000   3654344   3653179   3652011   3650835   3649673  
  4530.000000   3648534   3647463   3646477   3645625   3644915  
  4520.000000   3644389   3644037   3643901   3643963   3644277  
  4510.000000   3644834   3645711   3646911   3648529   3650573  
  4500.000000   3653138   3656215   3659889   3664131   3669016  
  4490.000000   3674508   3680687   3687523   3695096   3703374  
  4480.000000   3712420   3722182   3732699   3743894   3755780  
  4470.000000   3768268   3781346   3794911   3808933   3823305  
  4460.000000   3837985   3852879   3867947   3883110   3898331  
  4450.000000   3913540   3928692   3943727   3958602   3973285  
  4440.000000   3987749   4001999   4016023   4029852   4043473  
  4430.000000   4056930   4070198   4083322   4096256   4109030  
  4420.000000   4121563   4133855   4145782   4157313   4168299  
  4410.000000   4178700   4188372   4197291   4205344   4212542  
  4400.000000   4218818   4224228   4228760   4232509   4235508  
  4390.000000   4237874   4239663   4240999   4241949   4242637  
  4380.000000   4243141   4243584   4244056   4244677   4245539  
  4370.000000   4246742   4248365   4250470   4253100   4256270  
  4360.000000   4259984   4264215   4268926   4274057   4279535  
  4350.000000   4285277   4291191   4297205   4303249   4309295  
  4340.000000   4315317   4321315   4327246   4333041   4338536  
  4330.000000   4343512   4347683   4350787   4352609   4353094  
  4320.000000   4352330   4350603   4348283   4345823   4343585  
  4310.000000   4341870   4340784   4340344   4340424   4340894  
  4300.000000   4341589   4342409   4343263   4344113   4344923  
  4290.000000   4345665   4346316   4346858   4347297   4347659  
  4280.000000   4347985   4348336   4348752   4349278   4349909  
  4270.000000   4350650   4351446   4352249   4352946   4353427  
  4260.000000   4353526   4353093   4351977   4350098   4347433  
  4250.000000   4344072   4340167   4335947   4331634   4327454  
  4240.000000   4323549   4320019   4316864   4314059   4311514  
  4230.000000   4309151   4306871   4304599   4302263   4299809  
  4220.000000   4297204   4294428   4291506   4288466   4285386  
  4210.000000   4282333   4279399   4276641   4274117   4271839  
  4200.000000   4269819   4268024   4266445   4265035   4263790  
  4190.000000   4262668   4261682   4260799   4260053   4259424  
  4180.000000   4258970   4258690   4258667   4258917   4259538  
  4170.000000   4260556   4262071   4264099   4266722   4269924  
  4160.000000   4273750   4278140   4283103   4288551   4294489  
  4150.000000   4300834   4307620   4314792   4322416   4330465  
  4140.000000   4339022   4348064   4357669   4367797   4378500  
  4130.000000   4389715   4401462   4413667   4426344   4439434  
  4120.000000   4452970   4466918   4481331   4496188   4511536  
  4110.000000   4527348   4543649   4560389   4577562   4595092  
  4100.000000   4612943   4631025   4649297   4667695   4686206  
  4090.000000   4704815   4723540   4742395   4761392   4780538  
  4080.000000   4799813   4819210   4838684   4858219   4877748  
  4070.000000   4897237   4916589   4935758   4954634   4973201  
  4060.000000   4991377   5009186   5026566   5043552   5060058  
  4050.000000   5076110   5091612   5106611   5121024   5134924  
  4040.000000   5148215   5160946   5172974   5184318   5194823  
  4030.000000   5204531   5213320   5221258   5228239   5234298  
  4020.000000   5239282   5243223   5246051   5247849   5248566  
  4010.000000   5248390   5247436   5245787   5243239   5239918  
  4000.000000   5236207  
##END= 
