##TITLE= Sample 028 By ssteindl date Montag, November 19 2018
##JCAMP-DX= 4.24
##DATA TYPE= INFRARED SPECTRUM
##ORIGIN= Exported PE Spectrum Data File
##OWNER= Sandra Steindl
##DATE= 18/11/19
##TIME= 17:56:46.00
##SPECTROMETER/DATA SYSTEM= PERKIN-ELMER Frontier FT-IR/NIR IR
##INSTRUMENT PARAMETERS=
  APODIZATION=stark
  DETECTOR=INGAAS
##RESOLUTION= 16.000000
##DELTAX= -2.000000
##XUNITS= 1/CM
##YUNITS= A
##XFACTOR= 1.00
##YFACTOR= 0.00000011920928955078
##FIRSTX= 10000.00
##LASTX= 4000.00
##NPOINTS= 3001
##FIRSTY= 0.204119
##MAXY= 0.563583
##MINY= 0.176535
##XYDATA= (X++(Y..Y))
 10000.000000   1712274   1714313   1715283   1713736   1709374  
  9990.000000   1702888   1695119   1687050   1680112   1675733  
  9980.000000   1674495   1675873   1678513   1680764   1681132  
  9970.000000   1678919   1674382   1668669   1663247   1659463  
  9960.000000   1658074   1659118   1662038   1665881   1669617  
  9950.000000   1672235   1672921   1671042   1666332   1658949  
  9940.000000   1649641   1639652   1630500   1623564   1619632  
  9930.000000   1618690   1619933   1622173   1624293   1625684  
  9920.000000   1626408   1626971   1628009   1629724   1631799  
  9910.000000   1633307   1633246   1630891   1626308   1620382  
  9900.000000   1614638   1610771   1610098   1613260   1619990  
  9890.000000   1629315   1639732   1649605   1657467   1662252  
  9880.000000   1663506   1661365   1656567   1650220   1643601  
  9870.000000   1637817   1633596   1631150   1630243   1630413  
  9860.000000   1631156   1632205   1633431   1634907   1636582  
  9850.000000   1638324   1639791   1640646   1640680   1639960  
  9840.000000   1638827   1637714   1636960   1636580   1636286  
  9830.000000   1635575   1633999   1631332   1627673   1623364  
  9820.000000   1618815   1614373   1610208   1606428   1603146  
  9810.000000   1600630   1599246   1599347   1601057   1604102  
  9800.000000   1607829   1611310   1613674   1614316   1613128  
  9790.000000   1610427   1606874   1603196   1600054   1597910  
  9780.000000   1597037   1597552   1599400   1602386   1606077  
  9770.000000   1609896   1613159   1615314   1616073   1615519  
  9760.000000   1614057   1612197   1610386   1608765   1607206  
  9750.000000   1605378   1602958   1599854   1596245   1592628  
  9740.000000   1589569   1587600   1586966   1587654   1589382  
  9730.000000   1591714   1594160   1596154   1597203   1596816  
  9720.000000   1594765   1591053   1586109   1580637   1575546  
  9710.000000   1571659   1569556   1569426   1571133   1574346  
  9700.000000   1578695   1583889   1589649   1595670   1601491  
  9690.000000   1606558   1610365   1612665   1613658   1613934  
  9680.000000   1614278   1615318   1617209   1619569   1621589  
  9670.000000   1622437   1621594   1619133   1615642   1611987  
  9660.000000   1608869   1606564   1604783   1602913   1600320  
  9650.000000   1596748   1592453   1588155   1584732   1582889  
  9640.000000   1582881   1584485   1587097   1589992   1592534  
  9630.000000   1594287   1595080   1594902   1593928   1592403  
  9620.000000   1590701   1589193   1588216   1587888   1588083  
  9610.000000   1588403   1588374   1587655   1586235   1584528  
  9600.000000   1583180   1582863   1583892   1586126   1588982  
  9590.000000   1591720   1593778   1594986   1595602   1596067  
  9580.000000   1596723   1597541   1598126   1597904   1596458  
  9570.000000   1593798   1590414   1587135   1584754   1583767  
  9560.000000   1584136   1585451   1587091   1588595   1589737  
  9550.000000   1590565   1591148   1591424   1591091   1589747  
  9540.000000   1587126   1583312   1578815   1574392   1570758  
  9530.000000   1568244   1566665   1565392   1563672   1560987  
  9520.000000   1557316   1553132   1549185   1546136   1544300  
  9510.000000   1543553   1543488   1543676   1543901   1544235  
  9500.000000   1544953   1546296   1548319   1550761   1553192  
  9490.000000   1555136   1556308   1556643   1556280   1555403  
  9480.000000   1554147   1552576   1550759   1548907   1547409  
  9470.000000   1546782   1547440   1549454   1552387   1555352  
  9460.000000   1557292   1557367   1555300   1551497   1546905  
  9450.000000   1542665   1539704   1538457   1538796   1540204  
  9440.000000   1542054   1543879   1545467   1546817   1547946  
  9430.000000   1548775   1549079   1548606   1547236   1545087  
  9420.000000   1542569   1540220   1538548   1537796   1537849  
  9410.000000   1538307   1538638   1538449   1537599   1536266  
  9400.000000   1534825   1533677   1533062   1532952   1533076  
  9390.000000   1533016   1532429   1531141   1529266   1527100  
  9380.000000   1525049   1523466   1522544   1522288   1522521  
  9370.000000   1523009   1523565   1524146   1524858   1525893  
  9360.000000   1527413   1529444   1531790   1534052   1535737  
  9350.000000   1536419   1535927   1534387   1532207   1529908  
  9340.000000   1527958   1526620   1525888   1525531   1525214  
  9330.000000   1524667   1523789   1522675   1521536   1520598  
  9320.000000   1519992   1519731   1519706   1519768   1519804  
  9310.000000   1519773   1519735   1519786   1520032   1520521  
  9300.000000   1521225   1522047   1522818   1523375   1523585  
  9290.000000   1523408   1522910   1522264   1521715   1521508  
  9280.000000   1521775   1522445   1523221   1523650   1523296  
  9270.000000   1521891   1519472   1516392   1513223   1510583  
  9260.000000   1508887   1508265   1508494   1509188   1509931  
  9250.000000   1510493   1510874   1511237   1511764   1512456  
  9240.000000   1513101   1513263   1512507   1510496   1507220  
  9230.000000   1502980   1498391   1494154   1490900   1489042  
  9220.000000   1488747   1489971   1492490   1495957   1499928  
  9210.000000   1503935   1507528   1510349   1512184   1513048  
  9200.000000   1513196   1513055   1513084   1513613   1514760  
  9190.000000   1516388   1518170   1519668   1520468   1520279  
  9180.000000   1518993   1516666   1513475   1509673   1505580  
  9170.000000   1501570   1498016   1495263   1493533   1492935  
  9160.000000   1493392   1494734   1496677   1498966   1501378  
  9150.000000   1503768   1506035   1508030   1509594   1510475  
  9140.000000   1510473   1509405   1507254   1504143   1500395  
  9130.000000   1496479   1492928   1490271   1488890   1489033  
  9120.000000   1490666   1493527   1497070   1500644   1503628  
  9110.000000   1505566   1506259   1505758   1504341   1502339  
  9100.000000   1500038   1497566   1494983   1492316   1489726  
  9090.000000   1487489   1485980   1485525   1486209   1487817  
  9080.000000   1489793   1491507   1492452   1492508   1491992  
  9070.000000   1491552   1491915   1493529   1496354   1499811  
  9060.000000   1503003   1505018   1505273   1503709   1500806  
  9050.000000   1497399   1494361   1492336   1491548   1491832  
  9040.000000   1492750   1493785   1494509   1494666   1494196  
  9030.000000   1493178   1491772   1490176   1488617   1487331  
  9020.000000   1486553   1486444   1487071   1488346   1490068  
  9010.000000   1491967   1493794   1495398   1496747   1497907  
  9000.000000   1498975   1499998   1500934   1501665   1502053  
  8990.000000   1502023   1501600   1500939   1500256   1499786  
  8980.000000   1499674   1499954   1500488   1501043   1501317  
  8970.000000   1501045   1500053   1498300   1495914   1493128  
  8960.000000   1490266   1487630   1485455   1483834   1482722  
  8950.000000   1481978   1481451   1481067   1480882   1481086  
  8940.000000   1481919   1483565   1486025   1489074   1492313  
  8930.000000   1495245   1497460   1498706   1499002   1498546  
  8920.000000   1497653   1496608   1495600   1494684   1493824  
  8910.000000   1492975   1492158   1491484   1491110   1491167  
  8900.000000   1491667   1492488   1493381   1494071   1494364  
  8890.000000   1494232   1493850   1493519   1493573   1494238  
  8880.000000   1495557   1497375   1499387   1501263   1502744  
  8870.000000   1503743   1504352   1504790   1505305   1506064  
  8860.000000   1507085   1508212   1509167   1509647   1509433  
  8850.000000   1508476   1506905   1505026   1503217   1501861  
  8840.000000   1501207   1501342   1502164   1503420   1504775  
  8830.000000   1505887   1506496   1506459   1505795   1504645  
  8820.000000   1503267   1501952   1500991   1500593   1500870  
  8810.000000   1501791   1503224   1504966   1506807   1508593  
  8800.000000   1510245   1511778   1513251   1514738   1516277  
  8790.000000   1517847   1519383   1520789   1521994   1522948  
  8780.000000   1523663   1524164   1524472   1524568   1524410  
  8770.000000   1523949   1523190   1522220   1521226   1520455  
  8760.000000   1520152   1520489   1521494   1523076   1525034  
  8750.000000   1527160   1529285   1531351   1533396   1535508  
  8740.000000   1537753   1540093   1542381   1544372   1545812  
  8730.000000   1546508   1546416   1545661   1544529   1543391  
  8720.000000   1542606   1542426   1542934   1544030   1545456  
  8710.000000   1546883   1547991   1548574   1548586   1548167  
  8700.000000   1547590   1547195   1547279   1548014   1549406  
  8690.000000   1551296   1553426   1555511   1557324   1558742  
  8680.000000   1559750   1560402   1560777   1560937   1560931  
  8670.000000   1560787   1560557   1560301   1560112   1560066  
  8660.000000   1560196   1560479   1560849   1561244   1561662  
  8650.000000   1562178   1562946   1564112   1565756   1567803  
  8640.000000   1570032   1572123   1573784   1574853   1575395  
  8630.000000   1575685   1576146   1577181   1579045   1581723  
  8620.000000   1584941   1588221   1591049   1593014   1593939  
  8610.000000   1593919   1593300   1592579   1592264   1592750  
  8600.000000   1594212   1596579   1599551   1602699   1605576  
  8590.000000   1607858   1609420   1610369   1610968   1611545  
  8580.000000   1612348   1613474   1614834   1616211   1617366  
  8570.000000   1618146   1618558   1618764   1618986   1619407  
  8560.000000   1620064   1620840   1621505   1621829   1621700  
  8550.000000   1621176   1620494   1619964   1619877   1620387  
  8540.000000   1621474   1622978   1624664   1626333   1627868  
  8530.000000   1629264   1630593   1631962   1633454   1635103  
  8520.000000   1636888   1638735   1640540   1642159   1643447  
  8510.000000   1644258   1644516   1644230   1643535   1642669  
  8500.000000   1641929   1641575   1641749   1642427   1643447  
  8490.000000   1644581   1645637   1646547   1647392   1648365  
  8480.000000   1649675   1651443   1653639   1656081   1658515  
  8470.000000   1660697   1662502   1663935   1665122   1666216  
  8460.000000   1667329   1668480   1669594   1670563   1671294  
  8450.000000   1671779   1672096   1672390   1672793   1673388  
  8440.000000   1674161   1675029   1675859   1676536   1676988  
  8430.000000   1677218   1677276   1677251   1677222   1677273  
  8420.000000   1677453   1677816   1678389   1679193   1680218  
  8410.000000   1681404   1682625   1683704   1684451   1684692  
  8400.000000   1684332   1683372   1681943   1680277   1678658  
  8390.000000   1677361   1676577   1676404   1676813   1677700  
  8380.000000   1678898   1680242   1681597   1682858   1683940  
  8370.000000   1684738   1685147   1685053   1684394   1683188  
  8360.000000   1681568   1679789   1678180   1677081   1676719  
  8350.000000   1677184   1678367   1680020   1681788   1683309  
  8340.000000   1684278   1684509   1683961   1682714   1680955  
  8330.000000   1678920   1676866   1675025   1673558   1672557  
  8320.000000   1672011   1671872   1672036   1672425   1672963  
  8310.000000   1673597   1674256   1674830   1675159   1675033  
  8300.000000   1674274   1672765   1670553   1667845   1664992  
  8290.000000   1662399   1660414   1659253   1658944   1659354  
  8280.000000   1660224   1661266   1662219   1662903   1663216  
  8270.000000   1663124   1662644   1661827   1660777   1659617  
  8260.000000   1658494   1657526   1656789   1656275   1655904  
  8250.000000   1655556   1655113   1654530   1653836   1653141  
  8240.000000   1652556   1652158   1651937   1651798   1651595  
  8230.000000   1651193   1650517   1649582   1648471   1647303  
  8220.000000   1646173   1645129   1644162   1643241   1642337  
  8210.000000   1641457   1640626   1639879   1639210   1638576  
  8200.000000   1637880   1637028   1635949   1634647   1633191  
  8190.000000   1631702   1630304   1629067   1627991   1626990  
  8180.000000   1625934   1624684   1623148   1621298   1619186  
  8170.000000   1616926   1614670   1612581   1610804   1609444  
  8160.000000   1608548   1608100   1608019   1608174   1608404  
  8150.000000   1608546   1608466   1608082   1607370   1606365  
  8140.000000   1605139   1603787   1602407   1601080   1599868  
  8130.000000   1598799   1597864   1597013   1596157   1595184  
  8120.000000   1593974   1592438   1590548   1588358   1586004  
  8110.000000   1583677   1581574   1579843   1578550   1577655  
  8100.000000   1577043   1576556   1576061   1575484   1574838  
  8090.000000   1574196   1573653   1573264   1573019   1572824  
  8080.000000   1572558   1572096   1571394   1570478   1569462  
  8070.000000   1568478   1567629   1566948   1566385   1565849  
  8060.000000   1565252   1564579   1563900   1563360   1563105  
  8050.000000   1563217   1563650   1564230   1564698   1564800  
  8040.000000   1564376   1563407   1562028   1560456   1558925  
  8030.000000   1557594   1556514   1555638   1554863   1554104  
  8020.000000   1553327   1552568   1551896   1551380   1551037  
  8010.000000   1550826   1550661   1550440   1550095   1549598  
  8000.000000   1548981   1548297   1547618   1546993   1546458  
  7990.000000   1546019   1545675   1545412   1545213   1545048  
  7980.000000   1544883   1544688   1544446   1544175   1543922  
  7970.000000   1543758   1543752   1543938   1544296   1544751  
  7960.000000   1545190   1545501   1545607   1545488   1545189  
  7950.000000   1544790   1544381   1544025   1543736   1543486  
  7940.000000   1543214   1542857   1542377   1541771   1541077  
  7930.000000   1540359   1539690   1539127   1538699   1538398  
  7920.000000   1538186   1538006   1537801   1537533   1537196  
  7910.000000   1536817   1536452   1536169   1536029   1536060  
  7900.000000   1536263   1536590   1536974   1537323   1537560  
  7890.000000   1537619   1537476   1537143   1536678   1536170  
  7880.000000   1535725   1535447   1535415   1535669   1536199  
  7870.000000   1536959   1537870   1538843   1539794   1540648  
  7860.000000   1541343   1541833   1542086   1542093   1541886  
  7850.000000   1541535   1541152   1540854   1540742   1540858  
  7840.000000   1541168   1541573   1541937   1542146   1542134  
  7830.000000   1541921   1541586   1541247   1540995   1540891  
  7820.000000   1540927   1541069   1541271   1541504   1541762  
  7810.000000   1542045   1542331   1542560   1542631   1542437  
  7800.000000   1541908   1541041   1539923   1538702   1537542  
  7790.000000   1536571   1535842   1535337   1534986   1534720  
  7780.000000   1534496   1534319   1534211   1534192   1534234  
  7770.000000   1534270   1534207   1533971   1533551   1533004  
  7760.000000   1532448   1532001   1531737   1531638   1531598  
  7750.000000   1531459   1531079   1530385   1529416   1528310  
  7740.000000   1527259   1526445   1525974   1525849   1525967  
  7730.000000   1526167   1526287   1526215   1525926   1525481  
  7720.000000   1524993   1524588   1524355   1524312   1524403  
  7710.000000   1524515   1524520   1524309   1523836   1523117  
  7700.000000   1522238   1521317   1520472   1519795   1519324  
  7690.000000   1519054   1518944   1518944   1519011   1519123  
  7680.000000   1519268   1519450   1519656   1519867   1520051  
  7670.000000   1520175   1520217   1520159   1520003   1519740  
  7660.000000   1519364   1518854   1518194   1517382   1516450  
  7650.000000   1515463   1514516   1513715   1513144   1512858  
  7640.000000   1512859   1513113   1513560   1514130   1514761  
  7630.000000   1515392   1515972   1516433   1516715   1516755  
  7620.000000   1516529   1516056   1515422   1514758   1514224  
  7610.000000   1513955   1514025   1514421   1515043   1515739  
  7600.000000   1516351   1516763   1516936   1516903   1516763  
  7590.000000   1516629   1516599   1516718   1516980   1517327  
  7580.000000   1517692   1518016   1518271   1518470   1518648  
  7570.000000   1518858   1519140   1519519   1519992   1520534  
  7560.000000   1521109   1521664   1522158   1522546   1522805  
  7550.000000   1522928   1522939   1522887   1522846   1522895  
  7540.000000   1523105   1523518   1524143   1524946   1525863  
  7530.000000   1526814   1527726   1528548   1529262   1529883  
  7520.000000   1530453   1531020   1531632   1532309   1533050  
  7510.000000   1533819   1534568   1535248   1535834   1536328  
  7500.000000   1536778   1537250   1537816   1538520   1539364  
  7490.000000   1540300   1541251   1542136   1542911   1543583  
  7480.000000   1544220   1544915   1545761   1546800   1548016  
  7470.000000   1549329   1550634   1551833   1552886   1553806  
  7460.000000   1554667   1555545   1556506   1557558   1558665  
  7450.000000   1559754   1560771   1561697   1562574   1563489  
  7440.000000   1564551   1565843   1567403   1569203   1571171  
  7430.000000   1573212   1575237   1577183   1579030   1580785  
  7420.000000   1582476   1584129   1585764   1587388   1588998  
  7410.000000   1590586   1592141   1593658   1595133   1596569  
  7400.000000   1597977   1599373   1600777   1602207   1603670  
  7390.000000   1605159   1606651   1608119   1609536   1610900  
  7380.000000   1612232   1613579   1614991   1616509   1618139  
  7370.000000   1619848   1621568   1623212   1624707   1626007  
  7360.000000   1627108   1628046   1628879   1629670   1630466  
  7350.000000   1631299   1632183   1633134   1634166   1635307  
  7340.000000   1636581   1638005   1639568   1641234   1642944  
  7330.000000   1644625   1646220   1647686   1649016   1650223  
  7320.000000   1651342   1652405   1653451   1654514   1655632  
  7310.000000   1656852   1658221   1659782   1661545   1663487  
  7300.000000   1665541   1667606   1669573   1671344   1672867  
  7290.000000   1674132   1675175   1676054   1676831   1677561  
  7280.000000   1678281   1679027   1679838   1680766   1681857  
  7270.000000   1683151   1684643   1686286   1687983   1689615  
  7260.000000   1691074   1692289   1693260   1694037   1694727  
  7250.000000   1695432   1696248   1697213   1698332   1699567  
  7240.000000   1700883   1702252   1703692   1705249   1706997  
  7230.000000   1709000   1711302   1713891   1716714   1719665  
  7220.000000   1722628   1725476   1728133   1730560   1732794  
  7210.000000   1734913   1737034   1739264   1741686   1744316  
  7200.000000   1747122   1750019   1752921   1755755   1758495  
  7190.000000   1761162   1763817   1766535   1769379   1772375  
  7180.000000   1775514   1778744   1782002   1785212   1788325  
  7170.000000   1791297   1794130   1796833   1799454   1802035  
  7160.000000   1804646   1807331   1810139   1813086   1816185  
  7150.000000   1819430   1822823   1826368   1830094   1834026  
  7140.000000   1838201   1842617   1847259   1852053   1856920  
  7130.000000   1861747   1866462   1871001   1875376   1879625  
  7120.000000   1883844   1888128   1892579   1897256   1902185  
  7110.000000   1907339   1912665   1918077   1923498   1928848  
  7100.000000   1934078   1939159   1944098   1948914   1953657  
  7090.000000   1958371   1963110   1967913   1972813   1977828  
  7080.000000   1982961   1988203   1993532   1998921   2004340  
  7070.000000   2009756   2015145   2020481   2025743   2030909  
  7060.000000   2035961   2040881   2045672   2050347   2054947  
  7050.000000   2059527   2064152   2068873   2073713   2078665  
  7040.000000   2083684   2088709   2093675   2098539   2103285  
  7030.000000   2107932   2112525   2117128   2121801   2126594  
  7020.000000   2131522   2136570   2141680   2146770   2151736  
  7010.000000   2156489   2160964   2165147   2169070   2172805  
  7000.000000   2176427   2180009   2183572   2187121   2190626  
  6990.000000   2194081   2197489   2200906   2204377   2207951  
  6980.000000   2211607   2215282   2218844   2222172   2225163  
  6970.000000   2227803   2230144   2232304   2234405   2236538  
  6960.000000   2238729   2240947   2243117   2245177   2247087  
  6950.000000   2248871   2250575   2252283   2254054   2255942  
  6940.000000   2257964   2260130   2262420   2264809   2267240  
  6930.000000   2269641   2271911   2273953   2275691   2277098  
  6920.000000   2278199   2279069   2279804   2280489   2281175  
  6910.000000   2281872   2282558   2283215   2283826   2284417  
  6900.000000   2285022   2285699   2286490   2287426   2288509  
  6890.000000   2289728   2291048   2292427   2293806   2295116  
  6880.000000   2296295   2297292   2298089   2298707   2299202  
  6870.000000   2299646   2300102   2300606   2301161   2301747  
  6860.000000   2302343   2302950   2303587   2304290   2305078  
  6850.000000   2305941   2306829   2307669   2308396   2308986  
  6840.000000   2309467   2309919   2310433   2311078   2311865  
  6830.000000   2312747   2313633   2314430   2315069   2315533  
  6820.000000   2315842   2316043   2316182   2316294   2316395  
  6810.000000   2316502   2316629   2316801   2317029   2317309  
  6800.000000   2317600   2317840   2317962   2317922   2317720  
  6790.000000   2317404   2317052   2316746   2316540   2316450  
  6780.000000   2316453   2316516   2316608   2316718   2316849  
  6770.000000   2317005   2317174   2317324   2317412   2317396  
  6760.000000   2317263   2317032   2316749   2316469   2316238  
  6750.000000   2316076   2315986   2315956   2315980   2316065  
  6740.000000   2316223   2316466   2316786   2317157   2317536  
  6730.000000   2317885   2318184   2318441   2318690   2318971  
  6720.000000   2319314   2319726   2320183   2320643   2321058  
  6710.000000   2321388   2321607   2321704   2321679   2321548  
  6700.000000   2321332   2321076   2320824   2320632   2320529  
  6690.000000   2320524   2320584   2320654   2320659   2320551  
  6680.000000   2320301   2319926   2319457   2318939   2318393  
  6670.000000   2317825   2317214   2316547   2315815   2315040  
  6660.000000   2314251   2313485   2312758   2312068   2311387  
  6650.000000   2310685   2309935   2309131   2308280   2307398  
  6640.000000   2306497   2305579   2304636   2303662   2302652  
  6630.000000   2301617   2300568   2299518   2298465   2297402  
  6620.000000   2296310   2295182   2294020   2292842   2291669  
  6610.000000   2290520   2289393   2288272   2287125   2285927  
  6600.000000   2284663   2283340   2281974   2280592   2279212  
  6590.000000   2277848   2276502   2275178   2273871   2272584  
  6580.000000   2271301   2270006   2268667   2267259   2265772  
  6570.000000   2264221   2262646   2261093   2259596   2258153  
  6560.000000   2256726   2255248   2253657   2251928   2250092  
  6550.000000   2248234   2246466   2244892   2243570   2242495  
  6540.000000   2241609   2240821   2240042   2239206   2238279  
  6530.000000   2237251   2236126   2234906   2233594   2232197  
  6520.000000   2230735   2229245   2227775   2226369   2225052  
  6510.000000   2223828   2222674   2221558   2220447   2219320  
  6500.000000   2218164   2216975   2215749   2214482   2213173  
  6490.000000   2211835   2210494   2209191   2207968   2206853  
  6480.000000   2205846   2204920   2204025   2203109   2202127  
  6470.000000   2201052   2199875   2198595   2197211   2195719  
  6460.000000   2194122   2192432   2190681   2188917   2187194  
  6450.000000   2185560   2184045   2182661   2181399   2180249  
  6440.000000   2179198   2178234   2177343   2176492   2175644  
  6430.000000   2174748   2173778   2172725   2171631   2170556  
  6420.000000   2169576   2168739   2168060   2167500   2166998  
  6410.000000   2166483   2165912   2165273   2164597   2163926  
  6400.000000   2163309   2162774   2162336   2161993   2161744  
  6390.000000   2161581   2161498   2161473   2161476   2161462  
  6380.000000   2161388   2161231   2160997   2160722   2160459  
  6370.000000   2160253   2160120   2160045   2159982   2159879  
  6360.000000   2159694   2159415   2159050   2158622   2158145  
  6350.000000   2157627   2157057   2156430   2155749   2155041  
  6340.000000   2154340   2153685   2153092   2152558   2152053  
  6330.000000   2151547   2151009   2150433   2149823   2149193  
  6320.000000   2148547   2147876   2147156   2146365   2145494  
  6310.000000   2144557   2143585   2142616   2141676   2140771  
  6300.000000   2139883   2138990   2138068   2137115   2136139  
  6290.000000   2135157   2134168   2133162   2132102   2130954  
  6280.000000   2129692   2128318   2126864   2125383   2123925  
  6270.000000   2122531   2121209   2119948   2118714   2117479  
  6260.000000   2116218   2114925   2113603   2112257   2110891  
  6250.000000   2109503   2108085   2106631   2105134   2103601  
  6240.000000   2102042   2100479   2098939   2097455   2096052  
  6230.000000   2094745   2093526   2092365   2091214   2090016  
  6220.000000   2088726   2087323   2085820   2084261   2082707  
  6210.000000   2081214   2079821   2078538   2077356   2076247  
  6200.000000   2075186   2074150   2073129   2072112   2071092  
  6190.000000   2070057   2069002   2067928   2066854   2065807  
  6180.000000   2064823   2063927   2063129   2062417   2061763  
  6170.000000   2061134   2060499   2059838   2059139   2058396  
  6160.000000   2057599   2056740   2055813   2054819   2053769  
  6150.000000   2052685   2051590   2050501   2049420   2048337  
  6140.000000   2047238   2046117   2044980   2043851   2042757  
  6130.000000   2041723   2040755   2039844   2038969   2038108  
  6120.000000   2037255   2036410   2035588   2034798   2034041  
  6110.000000   2033302   2032563   2031812   2031057   2030323  
  6100.000000   2029652   2029078   2028624   2028280   2028021  
  6090.000000   2027801   2027589   2027361   2027121   2026876  
  6080.000000   2026649   2026448   2026283   2026151   2026063  
  6070.000000   2026021   2026044   2026133   2026294   2026509  
  6060.000000   2026769   2027051   2027363   2027716   2028147  
  6050.000000   2028683   2029358   2030172   2031129   2032206  
  6040.000000   2033401   2034699   2036116   2037649   2039310  
  6030.000000   2041079   2042947   2044881   2046876   2048918  
  6020.000000   2051022   2053186   2055417   2057686   2059971  
  6010.000000   2062221   2064422   2066564   2068688   2070841  
  6000.000000   2073104   2075528   2078166   2081024   2084100  
  5990.000000   2087357   2090769   2094291   2097905   2101581  
  5980.000000   2105318   2109104   2112955   2116870   2120875  
  5970.000000   2124967   2129161   2133436   2137786   2142181  
  5960.000000   2146612   2151062   2155540   2160042   2164585  
  5950.000000   2169166   2173794   2178465   2183187   2187968  
  5940.000000   2192824   2197770   2202812   2207952   2213171  
  5930.000000   2218447   2223744   2229033   2234276   2239440  
  5920.000000   2244483   2249365   2254039   2258472   2262639  
  5910.000000   2266545   2270207   2273670   2276977   2280183  
  5900.000000   2283325   2286451   2289582   2292753   2295969  
  5890.000000   2299248   2302567   2305913   2309241   2312519  
  5880.000000   2315701   2318763   2321674   2324419   2326978  
  5870.000000   2329339   2331490   2333440   2335212   2336853  
  5860.000000   2338421   2339978   2341570   2343231   2344967  
  5850.000000   2346777   2348646   2350570   2352543   2354567  
  5840.000000   2356638   2358750   2360889   2363041   2365196  
  5830.000000   2367349   2369507   2371672   2373848   2376027  
  5820.000000   2378199   2380350   2382472   2384563   2386630  
  5810.000000   2388679   2390713   2392734   2394731   2396714  
  5800.000000   2398680   2400666   2402683   2404774   2406923  
  5790.000000   2409127   2411311   2413409   2415298   2416879  
  5780.000000   2418024   2418644   2418652   2418026   2416770  
  5770.000000   2414967   2412731   2410231   2407614   2405027  
  5760.000000   2402543   2400207   2397992   2395880   2393836  
  5750.000000   2391869   2389990   2388242   2386647   2385216  
  5740.000000   2383932   2382758   2381654   2380577   2379505  
  5730.000000   2378419   2377316   2376182   2375018   2373816  
  5720.000000   2372582   2371327   2370071   2368829   2367613  
  5710.000000   2366425   2365260   2364115   2362988   2361888  
  5700.000000   2360823   2359802   2358818   2357862   2356910  
  5690.000000   2355954   2354984   2354016   2353055   2352118  
  5680.000000   2351188   2350246   2349241   2348134   2346873  
  5670.000000   2345432   2343780   2341902   2339775   2337393  
  5660.000000   2334753   2331887   2328850   2325732   2322622  
  5650.000000   2319605   2316727   2314000   2311396   2308878  
  5640.000000   2306409   2303975   2301583   2299256   2297021  
  5630.000000   2294891   2292876   2290966   2289161   2287446  
  5620.000000   2285823   2284278   2282805   2281382   2280000  
  5610.000000   2278645   2277329   2276063   2274872   2273761  
  5600.000000   2272728   2271745   2270785   2269823   2268857  
  5590.000000   2267902   2266990   2266141   2265358   2264616  
  5580.000000   2263871   2263074   2262193   2261223   2260186  
  5570.000000   2259119   2258056   2257013   2255990   2254971  
  5560.000000   2253941   2252893   2251830   2250763   2249698  
  5550.000000   2248636   2247566   2246478   2245369   2244250  
  5540.000000   2243146   2242083   2241082   2240146   2239264  
  5530.000000   2238414   2237573   2236729   2235874   2235010  
  5520.000000   2234133   2233238   2232312   2231349   2230345  
  5510.000000   2229310   2228253   2227183   2226096   2224975  
  5500.000000   2223796   2222544   2221220   2219855   2218487  
  5490.000000   2217164   2215905   2214707   2213533   2212340  
  5480.000000   2211081   2209733   2208289   2206769   2205189  
  5470.000000   2203572   2201925   2200256   2198571   2196881  
  5460.000000   2195197   2193527   2191866   2190197   2188495  
  5450.000000   2186739   2184921   2183054   2181168   2179298  
  5440.000000   2177477   2175717   2174028   2172410   2170872  
  5430.000000   2169424   2168082   2166841   2165684   2164568  
  5420.000000   2163455   2162307   2161133   2159962   2158864  
  5410.000000   2157896   2157106   2156485   2156008   2155615  
  5400.000000   2155272   2154953   2154679   2154470   2154375  
  5390.000000   2154404   2154578   2154877   2155307   2155856  
  5380.000000   2156552   2157394   2158410   2159578   2160897  
  5370.000000   2162326   2163869   2165502   2167265   2169157  
  5360.000000   2171230   2173472   2175924   2178563   2181443  
  5350.000000   2184559   2187991   2191749   2195905   2200435  
  5340.000000   2205381   2210691   2216409   2222496   2229023  
  5330.000000   2235958   2243369   2251206   2259517   2268243  
  5320.000000   2277453   2287120   2297356   2308150   2319621  
  5310.000000   2331733   2344567   2358051   2372248   2387092  
  5300.000000   2402665   2418932   2435999   2453844   2472562  
  5290.000000   2492100   2512489   2533601   2555380   2577650  
  5280.000000   2600350   2623365   2646739   2670486   2694737  
  5270.000000   2719539   2744943   2770862   2797163   2823645  
  5260.000000   2850134   2876521   2902777   2928950   2955082  
  5250.000000   2981201   3007218   3033019   3058382   3083179  
  5240.000000   3107256   3130645   3153344   3175504   3197157  
  5230.000000   3218409   3239194   3259505   3279186   3298202  
  5220.000000   3316432   3333935   3350696   3366871   3382491  
  5210.000000   3397699   3412454   3426786   3440541   3453681  
  5200.000000   3466050   3477684   3488533   3498728   3508275  
  5190.000000   3517298   3525749   3533677   3540982   3547696  
  5180.000000   3553750   3559225   3564097   3568464   3572287  
  5170.000000   3575628   3578422   3580716   3582465   3583744  
  5160.000000   3584533   3584912   3584845   3584379   3583462  
  5150.000000   3582134   3580364   3578220   3575698   3572871  
  5140.000000   3569727   3566315   3562613   3558665   3554463  
  5130.000000   3550065   3545477   3540751   3535882   3530897  
  5120.000000   3525783   3520565   3515241   3509848   3504398  
  5110.000000   3498920   3493415   3487898   3482369   3476845  
  5100.000000   3471340   3465883   3460484   3455150   3449866  
  5090.000000   3444611   3439357   3434094   3428821   3423555  
  5080.000000   3418312   3413107   3407932   3402773   3397597  
  5070.000000   3392381   3387103   3381763   3376362   3370915  
  5060.000000   3365422   3359886   3354292   3348639   3342914  
  5050.000000   3337124   3331271   3325365   3319406   3313395  
  5040.000000   3307323   3301185   3294977   3288705   3282379  
  5030.000000   3276018   3269642   3263270   3256924   3250623  
  5020.000000   3244386   3238228   3232163   3226193   3220321  
  5010.000000   3214534   3208832   3203202   3197654   3192186  
  5000.000000   3186823   3181570   3176455   3171475   3166658  
  4990.000000   3161998   3157523   3153229   3149144   3145260  
  4980.000000   3141601   3138149   3134923   3131903   3129117  
  4970.000000   3126547   3124229   3122142   3120316   3118719  
  4960.000000   3117376   3116254   3115392   3114778   3114476  
  4950.000000   3114485   3114871   3115617   3116764   3118264  
  4940.000000   3120140   3122337   3124884   3127744   3130966  
  4930.000000   3134528   3138485   3142813   3147557   3152679  
  4920.000000   3158213   3164112   3170402   3177041   3184051  
  4910.000000   3191400   3199112   3207159   3215554   3224259  
  4900.000000   3233256   3242488   3251909   3261456   3271070  
  4890.000000   3280704   3290299   3299819   3309196   3318390  
  4880.000000   3327314   3335927   3344131   3351892   3359112  
  4870.000000   3365767   3371757   3377076   3381639   3385471  
  4860.000000   3388530   3390884   3392528   3393558   3393977  
  4850.000000   3393875   3393253   3392192   3390698   3388861  
  4840.000000   3386705   3384326   3381759   3379090   3376352  
  4830.000000   3373612   3370896   3368255   3365711   3363296  
  4820.000000   3361026   3358911   3356960   3355170   3353550  
  4810.000000   3352090   3350798   3349659   3348672   3347809  
  4800.000000   3347068   3346423   3345884   3345448   3345141  
  4790.000000   3344967   3344950   3345073   3345329   3345680  
  4780.000000   3346103   3346562   3347051   3347559   3348105  
  4770.000000   3348698   3349358   3350087   3350890   3351752  
  4760.000000   3352663   3353601   3354553   3355504   3356448  
  4750.000000   3357384   3358322   3359271   3360248   3361261  
  4740.000000   3362311   3363390   3364484   3365570   3366635  
  4730.000000   3367665   3368666   3369638   3370600   3371552  
  4720.000000   3372509   3373465   3374437   3375427   3376473  
  4710.000000   3377600   3378862   3380285   3381914   3383755  
  4700.000000   3385830   3388127   3390665   3393442   3396487  
  4690.000000   3399809   3403433   3407346   3411540   3415963  
  4680.000000   3420567   3425269   3430010   3434713   3439341  
  4670.000000   3443849   3448240   3452509   3456695   3460823  
  4660.000000   3464948   3469109   3473360   3477740   3482289  
  4650.000000   3487033   3491988   3497159   3502533   3508087  
  4640.000000   3513784   3519589   3525457   3531355   3537240  
  4630.000000   3543085   3548845   3554488   3559960   3565229  
  4620.000000   3570237   3574957   3579344   3583390   3587064  
  4610.000000   3590379   3593314   3595902   3598134   3600063  
  4600.000000   3601696   3603101   3604293   3605338   3606241  
  4590.000000   3607041   3607710   3608249   3608598   3608734  
  4580.000000   3608594   3608165   3607420   3606388   3605089  
  4570.000000   3603591   3601938   3600199   3598408   3596606  
  4560.000000   3594795   3592987   3591168   3589338   3587481  
  4550.000000   3585598   3583676   3581718   3579715   3577670  
  4540.000000   3575584   3573468   3571341   3569222   3567136  
  4530.000000   3565096   3563114   3561177   3559281   3557392  
  4520.000000   3555506   3553597   3551687   3549776   3547920  
  4510.000000   3546139   3544514   3543071   3541899   3541020  
  4500.000000   3540523   3540418   3540789   3541627   3543012  
  4490.000000   3544922   3547437   3550536   3554307   3558731  
  4480.000000   3563894   3569764   3576410   3583773   3591895  
  4470.000000   3600693   3610186   3620280   3630987   3642216  
  4460.000000   3653978   3666192   3678869   3691933   3705384  
  4450.000000   3719150   3733218   3747523   3762049   3776749  
  4440.000000   3791602   3806567   3821604   3836662   3851671  
  4430.000000   3866575   3881290   3895778   3909965   3923841  
  4420.000000   3937344   3950479   3963179   3975439   3987176  
  4410.000000   3998374   4008949   4018894   4028153   4036766  
  4400.000000   4044730   4052136   4059031   4065539   4071724  
  4390.000000   4077712   4083561   4089384   4095223   4101168  
  4380.000000   4107235   4113471   4119856   4126393   4133031  
  4370.000000   4139750   4146490   4153225   4159899   4166484  
  4360.000000   4172923   4179198   4185257   4191118   4196734  
  4350.000000   4202157   4207328   4212311   4217033   4221563  
  4340.000000   4225833   4229899   4233647   4237001   4239663  
  4330.000000   4241298   4241399   4239518   4235255   4228496  
  4320.000000   4219393   4208457   4196407   4184100   4172301  
  4310.000000   4161618   4152367   4144634   4138289   4133120  
  4300.000000   4128898   4125442   4122653   4120457   4118850  
  4290.000000   4117776   4117240   4117176   4117608   4118501  
  4280.000000   4119893   4121763   4124097   4126825   4129852  
  4270.000000   4133066   4136328   4139506   4142421   4144875  
  4260.000000   4146603   4147332   4146783   4144772   4141226  
  4250.000000   4136266   4130147   4123278   4116077   4108973  
  4240.000000   4102252   4096123   4090608   4085675   4081186  
  4230.000000   4077021   4073044   4069164   4065316   4061461  
  4220.000000   4057605   4053747   4049950   4046249   4042746  
  4210.000000   4039494   4036594   4034074   4031992   4030329  
  4200.000000   4029086   4028201   4027646   4027344   4027269  
  4190.000000   4027355   4027601   4027963   4028466   4029083  
  4180.000000   4029851   4030744   4031799   4032990   4034362  
  4170.000000   4035903   4037674   4039684   4042003   4044640  
  4160.000000   4047656   4051044   4054848   4059050   4063685  
  4150.000000   4068724   4074196   4080054   4086313   4092910  
  4140.000000   4099855   4107086   4114630   4122440   4130555  
  4130.000000   4138932   4147611   4156547   4165784   4175304  
  4120.000000   4185177   4195426   4206151   4217393   4229238  
  4110.000000   4241693   4254786   4268458   4282663   4297290  
  4100.000000   4312250   4327417   4342706   4358026   4373333  
  4090.000000   4388590   4403793   4418948   4434062   4449157  
  4080.000000   4464227   4479293   4494320   4509308   4524171  
  4070.000000   4538870   4553265   4567296   4580820   4593810  
  4060.000000   4606164   4617905   4628962   4639374   4649069  
  4050.000000   4658095   4666399   4674071   4681098   4687592  
  4040.000000   4693534   4698998   4703917   4708330   4712170  
  4030.000000   4715507   4718322   4720724   4722718   4724385  
  4020.000000   4725679   4726652   4727291   4727645   4727672  
  4010.000000   4727454   4727028   4726354   4725212   4723585  
  4000.000000   4721708  
##END= 
