##TITLE= Sample 022 By ssteindl date Dienstag, November 20 2018
##JCAMP-DX= 4.24
##DATA TYPE= INFRARED SPECTRUM
##ORIGIN= Exported PE Spectrum Data File
##OWNER= Sandra Steindl
##DATE= 18/11/20
##TIME= 14:45:20.00
##SPECTROMETER/DATA SYSTEM= PERKIN-ELMER Frontier FT-IR/NIR IR
##INSTRUMENT PARAMETERS=
  APODIZATION=stark
  DETECTOR=INGAAS
##RESOLUTION= 16.000000
##DELTAX= -2.000000
##XUNITS= 1/CM
##YUNITS= A
##XFACTOR= 1.00
##YFACTOR= 0.00000011920928955078
##FIRSTX= 10000.00
##LASTX= 4000.00
##NPOINTS= 3001
##FIRSTY= 0.199412
##MAXY= 0.611508
##MINY= 0.176610
##XYDATA= (X++(Y..Y))
 10000.000000   1672789   1664770   1658075   1654882   1656199  
  9990.000000   1661608   1669915   1679735   1689598   1698259  
  9980.000000   1704983   1709386   1711365   1710817   1707888  
  9970.000000   1702711   1695666   1687136   1677675   1667772  
  9960.000000   1657966   1648798   1640824   1634695   1630959  
  9950.000000   1630102   1632238   1637168   1644262   1652661  
  9940.000000   1661403   1669629   1676717   1682273   1686190  
  9930.000000   1688473   1689331   1689003   1687862   1686262  
  9920.000000   1684531   1682836   1681131   1679220   1676820  
  9910.000000   1673833   1670351   1666817   1663737   1661597  
  9900.000000   1660535   1660343   1660531   1660532   1660006  
  9890.000000   1658886   1657438   1655977   1654692   1653476  
  9880.000000   1651981   1649890   1647157   1644248   1642050  
  9870.000000   1641608   1643724   1648549   1655481   1663179  
  9860.000000   1670018   1674422   1675410   1672718   1666916  
  9850.000000   1659149   1650895   1643682   1638804   1637234  
  9840.000000   1639358   1645024   1653384   1663163   1672797  
  9830.000000   1680889   1686414   1688951   1688621   1685903  
  9820.000000   1681440   1675767   1669352   1662518   1655659  
  9810.000000   1649217   1643680   1639474   1636723   1635259  
  9800.000000   1634540   1633976   1633090   1631792   1630398  
  9790.000000   1629444   1629463   1630614   1632667   1634969  
  9780.000000   1636820   1637671   1637417   1636383   1635191  
  9770.000000   1634541   1634912   1636501   1639140   1642478  
  9760.000000   1646080   1649569   1652649   1655042   1656431  
  9750.000000   1656440   1654705   1651031   1645547   1638766  
  9740.000000   1631554   1624924   1619794   1616742   1615829  
  9730.000000   1616631   1618328   1620027   1620986   1620894  
  9720.000000   1619896   1618532   1617485   1617310   1618251  
  9710.000000   1620110   1622420   1624532   1625968   1626449  
  9700.000000   1626036   1624954   1623462   1621720   1619734  
  9690.000000   1617503   1615144   1613052   1611832   1612130  
  9680.000000   1614315   1618280   1623345   1628447   1632443  
  9670.000000   1634473   1634237   1632010   1628544   1624721  
  9660.000000   1621312   1618749   1617144   1616388   1616299  
  9650.000000   1616751   1617627   1618829   1620156   1621399  
  9640.000000   1622348   1622946   1623275   1623535   1623918  
  9630.000000   1624454   1624971   1625097   1624460   1622858  
  9620.000000   1620402   1617510   1614729   1612526   1611071  
  9610.000000   1610228   1609638   1608957   1607999   1606822  
  9600.000000   1605638   1604653   1603945   1603382   1602751  
  9590.000000   1601860   1600694   1599412   1598251   1597396  
  9580.000000   1596850   1596487   1596150   1595848   1595826  
  9570.000000   1596515   1598298   1601228   1604838   1608156  
  9560.000000   1610017   1609471   1606219   1600763   1594291  
  9550.000000   1588263   1583885   1581749   1581667   1582917  
  9540.000000   1584547   1585805   1586327   1586161   1585609  
  9530.000000   1584986   1584443   1583892   1583078   1581710  
  9520.000000   1579641   1576925   1573892   1571017   1568855  
  9510.000000   1567870   1568312   1570146   1572966   1576080  
  9500.000000   1578622   1579805   1579195   1576898   1573600  
  9490.000000   1570347   1568184   1567740   1569000   1571287  
  9480.000000   1573589   1574901   1574664   1572888   1570143  
  9470.000000   1567253   1564932   1563525   1562916   1562744  
  9460.000000   1562684   1562708   1563122   1564412   1566930  
  9450.000000   1570692   1575228   1579753   1583352   1585314  
  9440.000000   1585346   1583622   1580749   1577452   1574399  
  9430.000000   1571957   1570167   1568820   1567533   1565947  
  9420.000000   1563794   1561083   1558109   1555474   1553882  
  9410.000000   1553913   1555757   1559059   1562974   1566345  
  9400.000000   1568106   1567601   1564881   1560698   1556268  
  9390.000000   1552854   1551301   1551822   1553980   1556973  
  9380.000000   1559942   1562265   1563658   1564123   1563793  
  9370.000000   1562748   1560958   1558333   1554870   1550763  
  9360.000000   1546418   1542355   1539056   1536833   1535763  
  9350.000000   1535744   1536556   1537972   1539737   1541557  
  9340.000000   1543034   1543692   1543114   1541123   1537987  
  9330.000000   1534398   1531338   1529683   1529907   1531860  
  9320.000000   1534832   1537784   1539702   1539983   1538603  
  9310.000000   1536121   1533361   1531121   1529888   1529766  
  9300.000000   1530572   1531945   1533527   1534960   1535931  
  9290.000000   1536131   1535269   1533170   1529870   1525768  
  9280.000000   1521604   1518337   1516831   1517547   1520331  
  9270.000000   1524473   1528895   1532497   1534448   1534420  
  9260.000000   1532651   1529758   1526510   1523526   1521171  
  9250.000000   1519474   1518251   1517193   1516063   1514767  
  9240.000000   1513414   1512272   1511633   1511742   1512620  
  9230.000000   1514112   1515859   1517486   1518705   1519446  
  9220.000000   1519887   1520381   1521309   1522821   1524728  
  9210.000000   1526467   1527344   1526688   1524167   1519867  
  9200.000000   1514355   1508493   1503187   1499173   1496855  
  9190.000000   1496343   1497469   1499967   1503466   1507596  
  9180.000000   1511903   1515914   1519146   1521228   1522049  
  9170.000000   1521742   1520710   1519360   1518031   1516742  
  9160.000000   1515284   1513295   1510511   1506985   1503119  
  9150.000000   1499648   1497320   1496741   1498078   1501075  
  9140.000000   1505109   1509417   1513324   1516324   1518154  
  9130.000000   1518700   1518014   1516205   1513505   1510266  
  9120.000000   1507026   1504430   1503062   1503285   1505055  
  9110.000000   1507993   1511413   1514608   1516982   1518270  
  9100.000000   1518549   1518121   1517353   1516442   1515410  
  9090.000000   1514062   1512179   1509601   1506388   1502848  
  9080.000000   1499464   1496809   1495303   1495223   1496541  
  9070.000000   1499046   1502303   1505830   1509160   1511915  
  9060.000000   1513829   1514729   1514564   1513350   1511188  
  9050.000000   1508216   1504644   1500739   1496834   1493276  
  9040.000000   1490374   1488336   1487222   1486910   1487120  
  9030.000000   1487474   1487627   1487319   1486466   1485151  
  9020.000000   1483651   1482314   1481511   1481541   1482621  
  9010.000000   1484816   1488036   1492046   1496516   1501046  
  9000.000000   1505202   1508602   1510986   1512261   1512515  
  8990.000000   1511977   1510991   1509893   1508936   1508231  
  8980.000000   1507729   1507275   1506643   1505668   1504285  
  8970.000000   1502610   1500873   1499389   1498426   1498135  
  8960.000000   1498469   1499211   1500048   1500683   1500964  
  8950.000000   1500929   1500801   1500883   1501422   1502507  
  8940.000000   1504015   1505658   1507089   1508044   1508448  
  8930.000000   1508424   1508216   1508069   1508106   1508264  
  8920.000000   1508326   1508009   1507127   1505637   1503710  
  8910.000000   1501625   1499701   1498151   1497038   1496289  
  8900.000000   1495777   1495423   1495258   1495450   1496238  
  8890.000000   1497840   1500337   1503632   1507454   1511406  
  8880.000000   1515076   1518098   1520278   1521553   1522018  
  8870.000000   1521841   1521251   1520472   1519705   1519113  
  8860.000000   1518820   1518918   1519443   1520400   1521696  
  8850.000000   1523222   1524791   1526254   1527478   1528442  
  8840.000000   1529217   1529954   1530815   1531881   1533107  
  8830.000000   1534279   1535085   1535194   1534406   1532714  
  8820.000000   1530359   1527763   1525423   1523766   1523029  
  8810.000000   1523219   1524141   1525501   1527006   1528464  
  8800.000000   1529798   1531039   1532264   1533537   1534887  
  8790.000000   1536272   1537651   1538939   1540095   1541051  
  8780.000000   1541777   1542234   1542415   1542363   1542175  
  8770.000000   1542039   1542164   1542784   1544059   1546052  
  8760.000000   1548691   1551773   1554999   1558000   1560419  
  8750.000000   1561949   1562418   1561820   1560351   1558387  
  8740.000000   1556434   1555026   1554604   1555400   1557358  
  8730.000000   1560172   1563350   1566380   1568839   1570510  
  8720.000000   1571398   1571700   1571714   1571721   1571928  
  8710.000000   1572401   1573124   1573998   1574939   1575868  
  8700.000000   1576753   1577590   1578385   1579161   1579933  
  8690.000000   1580746   1581647   1582718   1584044   1585707  
  8680.000000   1587751   1590159   1592836   1595602   1598223  
  8670.000000   1600439   1602037   1602885   1602998   1602507  
  8660.000000   1601660   1600748   1600062   1599819   1600130  
  8650.000000   1601000   1602348   1604067   1606036   1608168  
  8640.000000   1610390   1612649   1614893   1617063   1619104  
  8630.000000   1620957   1622595   1624001   1625195   1626205  
  8620.000000   1627089   1627914   1628760   1629700   1630775  
  8610.000000   1631986   1633270   1634521   1635620   1636479  
  8600.000000   1637102   1637573   1638052   1638693   1639588  
  8590.000000   1640719   1641960   1643154   1644188   1645085  
  8580.000000   1646017   1647269   1649127   1651753   1655085  
  8570.000000   1658826   1662518   1665678   1667945   1669187  
  8560.000000   1669538   1669332   1668987   1668884   1669264  
  8550.000000   1670195   1671566   1673175   1674773   1676173  
  8540.000000   1677254   1678017   1678534   1678941   1679372  
  8530.000000   1679924   1680635   1681436   1682200   1682747  
  8520.000000   1682953   1682759   1682225   1681513   1680862  
  8510.000000   1680524   1680694   1681491   1682935   1684976  
  8500.000000   1687485   1690306   1693264   1696173   1698854  
  8490.000000   1701139   1702933   1704190   1704954   1705287  
  8480.000000   1705291   1705029   1704562   1703930   1703217  
  8470.000000   1702583   1702254   1702507   1703537   1705441  
  8460.000000   1708113   1711303   1714635   1717763   1720450  
  8450.000000   1722630   1724380   1725824   1727064   1728086  
  8440.000000   1728789   1729012   1728663   1727781   1726569  
  8430.000000   1725344   1724424   1724050   1724295   1725087  
  8420.000000   1726227   1727509   1728776   1729968   1731084  
  8410.000000   1732152   1733173   1734114   1734917   1735545  
  8400.000000   1736029   1736470   1737019   1737796   1738841  
  8390.000000   1740064   1741263   1742172   1742542   1742239  
  8380.000000   1741288   1739892   1738354   1737032   1736225  
  8370.000000   1736122   1736732   1737907   1739378   1740836  
  8360.000000   1742005   1742701   1742871   1742583   1741998  
  8350.000000   1741293   1740609   1740015   1739520   1739100  
  8340.000000   1738756   1738536   1738538   1738887   1739654  
  8330.000000   1740833   1742275   1743750   1744988   1745782  
  8320.000000   1746040   1745812   1745270   1744620   1744034  
  8310.000000   1743575   1743192   1742760   1742148   1741293  
  8300.000000   1740228   1739087   1738051   1737291   1736895  
  8290.000000   1736861   1737095   1737455   1737792   1737992  
  8280.000000   1737991   1737790   1737435   1737008   1736602  
  8270.000000   1736313   1736216   1736340   1736648   1737021  
  8260.000000   1737287   1737259   1736796   1735858   1734523  
  8250.000000   1732993   1731530   1730393   1729744   1729611  
  8240.000000   1729878   1730334   1730734   1730879   1730644  
  8230.000000   1730010   1729029   1727820   1726511   1725238  
  8220.000000   1724110   1723209   1722578   1722198   1721980  
  8210.000000   1721758   1721319   1720455   1719036   1717053  
  8200.000000   1714636   1712030   1709518   1707359   1705696  
  8190.000000   1704558   1703853   1703458   1703256   1703185  
  8180.000000   1703223   1703350   1703501   1703530   1703227  
  8170.000000   1702357   1700759   1698408   1695481   1692319  
  8160.000000   1689350   1686969   1685414   1684722   1684701  
  8150.000000   1685019   1685283   1685170   1684500   1683265  
  8140.000000   1681610   1679748   1677902   1676223   1674782  
  8130.000000   1673556   1672484   1671498   1670554   1669664  
  8120.000000   1668867   1668234   1667813   1667627   1667648  
  8110.000000   1667792   1667936   1667915   1667567   1666739  
  8100.000000   1665339   1663349   1660862   1658074   1655268  
  8090.000000   1652760   1650824   1649621   1649149   1649238  
  8080.000000   1649591   1649868   1649780   1649167   1648033  
  8070.000000   1646525   1644878   1643329   1642060   1641154  
  8060.000000   1640601   1640325   1640231   1640232   1640265  
  8050.000000   1640283   1640236   1640066   1639704   1639091  
  8040.000000   1638199   1637045   1635698   1634267   1632870  
  8030.000000   1631621   1630598   1629841   1629342   1629051  
  8020.000000   1628875   1628686   1628336   1627687   1626647  
  8010.000000   1625197   1623429   1621509   1619670   1618124  
  8000.000000   1617018   1616378   1616112   1616052   1616002  
  7990.000000   1615830   1615495   1615076   1614720   1614591  
  7980.000000   1614795   1615321   1616040   1616718   1617103  
  7970.000000   1616977   1616252   1614974   1613330   1611589  
  7960.000000   1610027   1608858   1608175   1607942   1608021  
  7950.000000   1608225   1608389   1608410   1608270   1608016  
  7940.000000   1607724   1607447   1607199   1606943   1606627  
  7930.000000   1606208   1605700   1605171   1604729   1604492  
  7920.000000   1604535   1604879   1605465   1606189   1606914  
  7910.000000   1607508   1607869   1607928   1607667   1607104  
  7900.000000   1606303   1605359   1604394   1603526   1602846  
  7890.000000   1602399   1602169   1602097   1602107   1602149  
  7880.000000   1602219   1602359   1602635   1603080   1603665  
  7870.000000   1604279   1604755   1604928   1604708   1604122  
  7860.000000   1603329   1602572   1602097   1602071   1602518  
  7850.000000   1603319   1604245   1605043   1605507   1605543  
  7840.000000   1605167   1604489   1603651   1602789   1601988  
  7830.000000   1601293   1600711   1600240   1599874   1599611  
  7820.000000   1599437   1599318   1599195   1598995   1598647  
  7810.000000   1598109   1597378   1596494   1595533   1594586  
  7800.000000   1593739   1593062   1592586   1592318   1592224  
  7790.000000   1592252   1592322   1592354   1592266   1592000  
  7780.000000   1591535   1590879   1590078   1589182   1588242  
  7770.000000   1587272   1586260   1585172   1583976   1582680  
  7760.000000   1581340   1580075   1579031   1578357   1578141  
  7750.000000   1578390   1579004   1579805   1580570   1581090  
  7740.000000   1581217   1580886   1580129   1579038   1577749  
  7730.000000   1576389   1575074   1573879   1572856   1572031  
  7720.000000   1571410   1570987   1570729   1570592   1570509  
  7710.000000   1570420   1570270   1570026   1569687   1569265  
  7700.000000   1568792   1568296   1567809   1567349   1566944  
  7690.000000   1566619   1566401   1566308   1566333   1566445  
  7680.000000   1566583   1566679   1566674   1566544   1566307  
  7670.000000   1566018   1565747   1565547   1565434   1565371  
  7660.000000   1565285   1565086   1564706   1564133   1563418  
  7650.000000   1562672   1562034   1561635   1561555   1561797  
  7640.000000   1562284   1562866   1563366   1563610   1563484  
  7630.000000   1562959   1562113   1561102   1560137   1559417  
  7620.000000   1559092   1559222   1559773   1560624   1561610  
  7610.000000   1562557   1563323   1563826   1564051   1564040  
  7600.000000   1563880   1563667   1563497   1563439   1563536  
  7590.000000   1563791   1564182   1564657   1565163   1565648  
  7580.000000   1566078   1566442   1566747   1567011   1567255  
  7570.000000   1567494   1567746   1568021   1568336   1568710  
  7560.000000   1569165   1569715   1570367   1571113   1571942  
  7550.000000   1572834   1573777   1574750   1575732   1576679  
  7540.000000   1577546   1578272   1578827   1579207   1579474  
  7530.000000   1579726   1580094   1580689   1581577   1582754  
  7520.000000   1584163   1585713   1587323   1588947   1590585  
  7510.000000   1592259   1593990   1595756   1597505   1599148  
  7500.000000   1600619   1601887   1603003   1604065   1605200  
  7490.000000   1606510   1608039   1609761   1611591   1613421  
  7480.000000   1615165   1616783   1618294   1619750   1621227  
  7470.000000   1622776   1624426   1626161   1627947   1629728  
  7460.000000   1631462   1633113   1634682   1636188   1637690  
  7450.000000   1639256   1640963   1642861   1644974   1647274  
  7440.000000   1649698   1652161   1654593   1656955   1659257  
  7430.000000   1661547   1663893   1666352   1668945   1671651  
  7420.000000   1674416   1677164   1679825   1682344   1684695  
  7410.000000   1686871   1688882   1690748   1692497   1694166  
  7400.000000   1695800   1697448   1699155   1700963   1702898  
  7390.000000   1704979   1707211   1709593   1712108   1714729  
  7380.000000   1717404   1720068   1722656   1725114   1727426  
  7370.000000   1729600   1731672   1733673   1735623   1737506  
  7360.000000   1739289   1740943   1742471   1743924   1745394  
  7350.000000   1746999   1748828   1750918   1753227   1755663  
  7340.000000   1758110   1760481   1762738   1764895   1766990  
  7330.000000   1769060   1771114   1773129   1775073   1776925  
  7320.000000   1778693   1780421   1782160   1783960   1785829  
  7310.000000   1787751   1789679   1791574   1793403   1795158  
  7300.000000   1796832   1798410   1799854   1801114   1802153  
  7290.000000   1802971   1803614   1804178   1804762   1805456  
  7280.000000   1806289   1807250   1808283   1809335   1810370  
  7270.000000   1811384   1812393   1813408   1814419   1815386  
  7260.000000   1816262   1817010   1817641   1818199   1818774  
  7250.000000   1819441   1820261   1821236   1822346   1823548  
  7240.000000   1824829   1826199   1827705   1829386   1831266  
  7230.000000   1833312   1835474   1837664   1839838   1841963  
  7220.000000   1844064   1846165   1848314   1850519   1852798  
  7210.000000   1855151   1857614   1860227   1863056   1866139  
  7200.000000   1869484   1873034   1876707   1880394   1884030  
  7190.000000   1887575   1891063   1894535   1898056   1901644  
  7180.000000   1905304   1909006   1912741   1916507   1920349  
  7170.000000   1924308   1928429   1932697   1937072   1941465  
  7160.000000   1945805   1950039   1954183   1958284   1962438  
  7150.000000   1966721   1971214   1975943   1980922   1986113  
  7140.000000   1991483   1996961   2002499   2008030   2013534  
  7130.000000   2018999   2024471   2030011   2035717   2041657  
  7120.000000   2047891   2054408   2061171   2068094   2075103  
  7110.000000   2082118   2089098   2096001   2102818   2109525  
  7100.000000   2116134   2122660   2129167   2135721   2142407  
  7090.000000   2149271   2156323   2163515   2170783   2178059  
  7080.000000   2185318   2192582   2199912   2207369   2214979  
  7070.000000   2222701   2230446   2238089   2245535   2252731  
  7060.000000   2259698   2266501   2273226   2279941   2286690  
  7050.000000   2293493   2300360   2307312   2314374   2321564  
  7040.000000   2328861   2336206   2343490   2350602   2357451  
  7030.000000   2364022   2370361   2376579   2382789   2389080  
  7020.000000   2395469   2401917   2408336   2414644   2420772  
  7010.000000   2426703   2432436   2438005   2443427   2448729  
  7000.000000   2453920   2459026   2464063   2469061   2474024  
  6990.000000   2478954   2483814   2488582   2493220   2497735  
  6980.000000   2502134   2506458   2510720   2514931   2519051  
  6970.000000   2523046   2526862   2530491   2533932   2537233  
  6960.000000   2540428   2543561   2546632   2549639   2552545  
  6950.000000   2555332   2557969   2560457   2562788   2564981  
  6940.000000   2567050   2569040   2570993   2572975   2575023  
  6930.000000   2577156   2579329   2581467   2583458   2585216  
  6920.000000   2586694   2587925   2588997   2590038   2591155  
  6910.000000   2592413   2593806   2595281   2596757   2598170  
  6900.000000   2599482   2600706   2601873   2603027   2604194  
  6890.000000   2605390   2606612   2607854   2609102   2610341  
  6880.000000   2611547   2612694   2613750   2614709   2615584  
  6870.000000   2616434   2617333   2618355   2619535   2620851  
  6860.000000   2622221   2623526   2624647   2625504   2626080  
  6850.000000   2626426   2626635   2626818   2627061   2627419  
  6840.000000   2627904   2628501   2629171   2629881   2630592  
  6830.000000   2631276   2631907   2632470   2632958   2633378  
  6820.000000   2633743   2634073   2634380   2634676   2634964  
  6810.000000   2635250   2635545   2635869   2636238   2636663  
  6800.000000   2637127   2637594   2638002   2638292   2638415  
  6790.000000   2638358   2638139   2637806   2637414   2637021  
  6780.000000   2636664   2636366   2636133   2635959   2635822  
  6770.000000   2635692   2635525   2635277   2634907   2634405  
  6760.000000   2633791   2633122   2632471   2631910   2631480  
  6750.000000   2631184   2630979   2630801   2630582   2630273  
  6740.000000   2629854   2629334   2628738   2628095   2627427  
  6730.000000   2626753   2626087   2625443   2624836   2624279  
  6720.000000   2623774   2623314   2622878   2622447   2622001  
  6710.000000   2621537   2621049   2620540   2620003   2619426  
  6700.000000   2618792   2618093   2617330   2616524   2615696  
  6690.000000   2614869   2614043   2613206   2612323   2611369  
  6680.000000   2610328   2609211   2608040   2606851   2605660  
  6670.000000   2604473   2603269   2602030   2600736   2599397  
  6660.000000   2598031   2596669   2595334   2594026   2592721  
  6650.000000   2591383   2589971   2588462   2586854   2585174  
  6640.000000   2583461   2581767   2580132   2578594   2577168  
  6630.000000   2575861   2574653   2573516   2572399   2571248  
  6620.000000   2570006   2568634   2567107   2565427   2563615  
  6610.000000   2561701   2559726   2557723   2555728   2553771  
  6600.000000   2551876   2550058   2548315   2546636   2544990  
  6590.000000   2543357   2541724   2540103   2538526   2537031  
  6580.000000   2535640   2534344   2533098   2531827   2530461  
  6570.000000   2528950   2527291   2525524   2523722   2521956  
  6560.000000   2520278   2518705   2517225   2515808   2514429  
  6550.000000   2513072   2511736   2510420   2509119   2507816  
  6540.000000   2506490   2505125   2503727   2502318   2500934  
  6530.000000   2499610   2498365   2497197   2496089   2495018  
  6520.000000   2493968   2492932   2491912   2490901   2489884  
  6510.000000   2488832   2487713   2486505   2485211   2483857  
  6500.000000   2482491   2481158   2479893   2478708   2477595  
  6490.000000   2476542   2475536   2474576   2473665   2472802  
  6480.000000   2471972   2471146   2470292   2469387   2468429  
  6470.000000   2467437   2466443   2465469   2464522   2463577  
  6460.000000   2462600   2461557   2460438   2459266   2458090  
  6450.000000   2456961   2455918   2454966   2454079   2453209  
  6440.000000   2452311   2451358   2450347   2449301   2448252  
  6430.000000   2447233   2446269   2445375   2444561   2443830  
  6420.000000   2443183   2442609   2442089   2441588   2441075  
  6410.000000   2440516   2439901   2439232   2438527   2437807  
  6400.000000   2437092   2436388   2435702   2435041   2434421  
  6390.000000   2433865   2433395   2433022   2432733   2432494  
  6380.000000   2432256   2431977   2431627   2431205   2430729  
  6370.000000   2430223   2429705   2429175   2428618   2428016  
  6360.000000   2427357   2426652   2425923   2425205   2424525  
  6350.000000   2423894   2423305   2422738   2422164   2421561  
  6340.000000   2420907   2420191   2419403   2418546   2417629  
  6330.000000   2416682   2415744   2414864   2414075   2413392  
  6320.000000   2412786   2412201   2411555   2410780   2409830  
  6310.000000   2408711   2407457   2406139   2404817   2403541  
  6300.000000   2402323   2401158   2400011   2398854   2397648  
  6290.000000   2396372   2394999   2393523   2391930   2390232  
  6280.000000   2388443   2386597   2384723   2382851   2380987  
  6270.000000   2379127   2377247   2375326   2373341   2371295  
  6260.000000   2369191   2367055   2364905   2362766   2360652  
  6250.000000   2358580   2356556   2354586   2352660   2350760  
  6240.000000   2348849   2346894   2344863   2342749   2340561  
  6230.000000   2338328   2336079   2333833   2331591   2329338  
  6220.000000   2327051   2324721   2322353   2319975   2317622  
  6210.000000   2315324   2313093   2310923   2308796   2306691  
  6200.000000   2304604   2302539   2300514   2298539   2296613  
  6190.000000   2294712   2292809   2290875   2288903   2286902  
  6180.000000   2284902   2282934   2281023   2279182   2277407  
  6170.000000   2275690   2274024   2272405   2270832   2269297  
  6160.000000   2267785   2266268   2264718   2263113   2261449  
  6150.000000   2259740   2258013   2256294   2254603   2252945  
  6140.000000   2251319   2249723   2248162   2246645   2245185  
  6130.000000   2243780   2242420   2241074   2239717   2238326  
  6120.000000   2236909   2235487   2234099   2232774   2231530  
  6110.000000   2230356   2229232   2228132   2227047   2225982  
  6100.000000   2224964   2224015   2223153   2222372   2221654  
  6090.000000   2220969   2220301   2219640   2219005   2218407  
  6080.000000   2217871   2217396   2216982   2216611   2216283  
  6070.000000   2215993   2215761   2215595   2215518   2215527  
  6060.000000   2215630   2215812   2216079   2216425   2216863  
  6050.000000   2217390   2218014   2218721   2219513   2220382  
  6040.000000   2221346   2222418   2223629   2224986   2226490  
  6030.000000   2228107   2229803   2231527   2233258   2234980  
  6020.000000   2236717   2238488   2240326   2242239   2244230  
  6010.000000   2246273   2248353   2250438   2252521   2254583  
  6000.000000   2256627   2258643   2260641   2262625   2264621  
  5990.000000   2266656   2268768   2270983   2273323   2275782  
  5980.000000   2278353   2281011   2283746   2286544   2289412  
  5970.000000   2292346   2295349   2298403   2301493   2304593  
  5960.000000   2307692   2310778   2313860   2316935   2320014  
  5950.000000   2323083   2326140   2329173   2332191   2335208  
  5940.000000   2338256   2341367   2344568   2347871   2351274  
  5930.000000   2354764   2358324   2361937   2365585   2369244  
  5920.000000   2372885   2376469   2379955   2383309   2386517  
  5910.000000   2389585   2392539   2395413   2398235   2401023  
  5900.000000   2403778   2406503   2409194   2411864   2414525  
  5890.000000   2417204   2419905   2422631   2425362   2428077  
  5880.000000   2430749   2433361   2435903   2438370   2440756  
  5870.000000   2443051   2445249   2447345   2449355   2451307  
  5860.000000   2453242   2455198   2457202   2459265   2461380  
  5850.000000   2463541   2465750   2468021   2470386   2472873  
  5840.000000   2475497   2478246   2481083   2483959   2486823  
  5830.000000   2489642   2492404   2495114   2497779   2500404  
  5820.000000   2502978   2505486   2507905   2510232   2512465  
  5810.000000   2514625   2516717   2518760   2520736   2522647  
  5800.000000   2524461   2526192   2527822   2529382   2530856  
  5790.000000   2532254   2533529   2534649   2535534   2536133  
  5780.000000   2536367   2536195   2535568   2534482   2532945  
  5770.000000   2531018   2528779   2526353   2523855   2521405  
  5760.000000   2519078   2516928   2514959   2513171   2511545  
  5750.000000   2510083   2508785   2507655   2506689   2505860  
  5740.000000   2505134   2504459   2503805   2503140   2502471  
  5730.000000   2501794   2501131   2500482   2499860   2499265  
  5720.000000   2498716   2498230   2497841   2497564   2497406  
  5710.000000   2497344   2497342   2497356   2497359   2497340  
  5700.000000   2497317   2497318   2497367   2497475   2497630  
  5690.000000   2497809   2497984   2498142   2498281   2498415  
  5680.000000   2498548   2498683   2498790   2498836   2498766  
  5670.000000   2498543   2498126   2497501   2496655   2495591  
  5660.000000   2494313   2492848   2491229   2489515   2487768  
  5650.000000   2486057   2484427   2482909   2481495   2480168  
  5640.000000   2478896   2477657   2476435   2475231   2474048  
  5630.000000   2472891   2471761   2470652   2469567   2468505  
  5620.000000   2467474   2466476   2465513   2464574   2463648  
  5610.000000   2462720   2461788   2460857   2459946   2459074  
  5600.000000   2458253   2457482   2456745   2456019   2455284  
  5590.000000   2454530   2453754   2452961   2452152   2451325  
  5580.000000   2450465   2449560   2448599   2447588   2446537  
  5570.000000   2445467   2444389   2443307   2442211   2441092  
  5560.000000   2439939   2438757   2437560   2436372   2435211  
  5550.000000   2434088   2433001   2431938   2430883   2429826  
  5540.000000   2428761   2427692   2426622   2425555   2424493  
  5530.000000   2423439   2422398   2421381   2420400   2419459  
  5520.000000   2418554   2417664   2416757   2415802   2414774  
  5510.000000   2413666   2412487   2411262   2410016   2408779  
  5500.000000   2407569   2406401   2405280   2404211   2403179  
  5490.000000   2402167   2401137   2400050   2398863   2397552  
  5480.000000   2396106   2394546   2392899   2391208   2389497  
  5470.000000   2387784   2386064   2384330   2382568   2380777  
  5460.000000   2378950   2377087   2375176   2373208   2371165  
  5450.000000   2369045   2366857   2364630   2362402   2360206  
  5440.000000   2358067   2355989   2353972   2352007   2350099  
  5430.000000   2348253   2346478   2344761   2343085   2341408  
  5420.000000   2339710   2337977   2336248   2334580   2333064  
  5410.000000   2331754   2330687   2329826   2329126   2328509  
  5400.000000   2327940   2327400   2326928   2326556   2326344  
  5390.000000   2326304   2326450   2326753   2327211   2327801  
  5380.000000   2328545   2329435   2330489   2331677   2332995  
  5370.000000   2334394   2335882   2337441   2339117   2340915  
  5360.000000   2342897   2345055   2347441   2350042   2352925  
  5350.000000   2356100   2359660   2363619   2368053   2372934  
  5340.000000   2378299   2384084   2390328   2396977   2404088  
  5330.000000   2411606   2419577   2427924   2436685   2445799  
  5320.000000   2455358   2465361   2475967   2487199   2499209  
  5310.000000   2511970   2525566   2539906   2555040   2570882  
  5300.000000   2587512   2604889   2623135   2642234   2662304  
  5290.000000   2683296   2705259   2728064   2751663   2775872  
  5280.000000   2800632   2825825   2851498   2877666   2904460  
  5270.000000   2931918   2960073   2988805   3017937   3047226  
  5260.000000   3076459   3105510   3134338   3163001   3191532  
  5250.000000   3219964   3248180   3276050   3303313   3329837  
  5240.000000   3355449   3380204   3404107   3427341   3449937  
  5230.000000   3472025   3493514   3514400   3534491   3553753  
  5220.000000   3572035   3589407   3605836   3621500   3636420  
  5210.000000   3650761   3664474   3677614   3690020   3701682  
  5200.000000   3712448   3722385   3731453   3739818   3747490  
  5190.000000   3754616   3761142   3767123   3772442   3777128  
  5180.000000   3781093   3784414   3787055   3789117   3790562  
  5170.000000   3791465   3791775   3791567   3790817   3789623  
  5160.000000   3787981   3785978   3783579   3780828   3777673  
  5150.000000   3774156   3770257   3766055   3761559   3756842  
  5140.000000   3751893   3746746   3741367   3735780   3729974  
  5130.000000   3723998   3717866   3711631   3705295   3698883  
  5120.000000   3692381   3685807   3679158   3672466   3665741  
  5110.000000   3659010   3652266   3645511   3638727   3631916  
  5100.000000   3625081   3618253   3611457   3604725   3598071  
  5090.000000   3591500   3584998   3578552   3572144   3565770  
  5080.000000   3559421   3553097   3546787   3540485   3534175  
  5070.000000   3527851   3521507   3515146   3508766   3502371  
  5060.000000   3495948   3489486   3482965   3476379   3469719  
  5050.000000   3462995   3456213   3449386   3442519   3435615  
  5040.000000   3428678   3421713   3414733   3407759   3400814  
  5030.000000   3393917   3387084   3380321   3373638   3367037  
  5020.000000   3360536   3354145   3347885   3341758   3335771  
  5010.000000   3329900   3324135   3318444   3312830   3307282  
  5000.000000   3301833   3296495   3291316   3286304   3281501  
  4990.000000   3276902   3272541   3268409   3264545   3260940  
  4980.000000   3257628   3254587   3251840   3249350   3247141  
  4970.000000   3245180   3243504   3242096   3241010   3240230  
  4960.000000   3239811   3239732   3240039   3240702   3241760  
  4950.000000   3243173   3244971   3247105   3249601   3252413  
  4940.000000   3255580   3259071   3262939   3267162   3271785  
  4930.000000   3276766   3282125   3287802   3293808   3300091  
  4920.000000   3306681   3313548   3320732   3328212   3336017  
  4910.000000   3344118   3352528   3361211   3370168   3379355  
  4900.000000   3388756   3398317   3408002   3417760   3427558  
  4890.000000   3437367   3447174   3456971   3466742   3476471  
  4880.000000   3486112   3495628   3504949   3514038   3522831  
  4870.000000   3531313   3539435   3547202   3554580   3561592  
  4860.000000   3568218   3574497   3580421   3586036   3591329  
  4850.000000   3596333   3601027   3605439   3609558   3613434  
  4840.000000   3617083   3620574   3623936   3627229   3630456  
  4830.000000   3633645   3636772   3639836   3642808   3645686  
  4820.000000   3648453   3651118   3653680   3656156   3658557  
  4810.000000   3660905   3663211   3665495   3667761   3670018  
  4800.000000   3672257   3674479   3676676   3678851   3680999  
  4790.000000   3683128   3685233   3687318   3689373   3691398  
  4780.000000   3693381   3695326   3697223   3699078   3700877  
  4770.000000   3702618   3704276   3705838   3707277   3708583  
  4760.000000   3709739   3710754   3711622   3712362   3712974  
  4750.000000   3713472   3713850   3714118   3714263   3714297  
  4740.000000   3714210   3714021   3713727   3713348   3712883  
  4730.000000   3712343   3711718   3711006   3710189   3709258  
  4720.000000   3708203   3707028   3705745   3704378   3702958  
  4710.000000   3701523   3700108   3698744   3697456   3696258  
  4700.000000   3695163   3694173   3693292   3692522   3691866  
  4690.000000   3691325   3690904   3690600   3690411   3690318  
  4680.000000   3690303   3690325   3690353   3690338   3690256  
  4670.000000   3690074   3689799   3689436   3689025   3688598  
  4660.000000   3688212   3687905   3687726   3687704   3687873  
  4650.000000   3688246   3688836   3689640   3690651   3691846  
  4640.000000   3693201   3694677   3696240   3697853   3699484  
  4630.000000   3701104   3702691   3704221   3705682   3707058  
  4620.000000   3708340   3709519   3710588   3711548   3712394  
  4610.000000   3713135   3713770   3714316   3714779   3715183  
  4600.000000   3715532   3715845   3716119   3716361   3716556  
  4590.000000   3716701   3716776   3716776   3716677   3716476  
  4580.000000   3716153   3715708   3715129   3714427   3713605  
  4570.000000   3712686   3711686   3710629   3709523   3708381  
  4560.000000   3707199   3705977   3704707   3703393   3702036  
  4550.000000   3700647   3699233   3697803   3696364   3694917  
  4540.000000   3693473   3692036   3690631   3689274   3688000  
  4530.000000   3686823   3685776   3684853   3684074   3683416  
  4520.000000   3682895   3682488   3682231   3682114   3682203  
  4510.000000   3682508   3683120   3684062   3685437   3687257  
  4500.000000   3689615   3692498   3695975   3700007   3704655  
  4490.000000   3709875   3715739   3722215   3729383   3737208  
  4480.000000   3745754   3754968   3764888   3775444   3786660  
  4470.000000   3798461   3810856   3823763   3837168   3850969  
  4460.000000   3865130   3879540   3894155   3908881   3923685  
  4450.000000   3938503   3953321   3968111   3982873   3997607  
  4440.000000   4012314   4027002   4041653   4056269   4070801  
  4430.000000   4085247   4099538   4113673   4127564   4141204  
  4420.000000   4154479   4167360   4179707   4191476   4202525  
  4410.000000   4212826   4222264   4230847   4238503   4245279  
  4400.000000   4251151   4256206   4260464   4264046   4267008  
  4390.000000   4269491   4271571   4273390   4275022   4276591  
  4380.000000   4278158   4279816   4281609   4283601   4285827  
  4370.000000   4288331   4291145   4294295   4297798   4301649  
  4360.000000   4305836   4310320   4315055   4319987   4325047  
  4350.000000   4330191   4335349   4340504   4345611   4350691  
  4340.000000   4355728   4360749   4365697   4370502   4374956  
  4330.000000   4378805   4381691   4383287   4383315   4381678  
  4320.000000   4378467   4374008   4368763   4363296   4358100  
  4310.000000   4353583   4349940   4347233   4345351   4344147  
  4300.000000   4343424   4343041   4342878   4342862   4342946  
  4290.000000   4343080   4343246   4343410   4343585   4343779  
  4280.000000   4344034   4344388   4344874   4345520   4346321  
  4270.000000   4347279   4348348   4349480   4350560   4351452  
  4260.000000   4351948   4351840   4350914   4349031   4346139  
  4250.000000   4342321   4337757   4332730   4327530   4322454  
  4240.000000   4317708   4313437   4309668   4306381   4303475  
  4230.000000   4300849   4298380   4295968   4293530   4291007  
  4220.000000   4288379   4285637   4282822   4279962   4277136  
  4210.000000   4274391   4271805   4269416   4267280   4265408  
  4200.000000   4263824   4262510   4261460   4260625   4259983  
  4190.000000   4259470   4259066   4258709   4258405   4258114  
  4180.000000   4257874   4257676   4257591   4257639   4257921  
  4170.000000   4258477   4259422   4260791   4262681   4265094  
  4160.000000   4268088   4271626   4275735   4280356   4285510  
  4150.000000   4291135   4297254   4303804   4310814   4318224  
  4140.000000   4326082   4334344   4343077   4352249   4361917  
  4130.000000   4372029   4382614   4393594   4404984   4416723  
  4120.000000   4428849   4441345   4454278   4467649   4481515  
  4110.000000   4495853   4510681   4525943   4541622   4557645  
  4100.000000   4573981   4590557   4607343   4624281   4641351  
  4090.000000   4658519   4675775   4693100   4710482   4727919  
  4080.000000   4745398   4762936   4780520   4798168   4815837  
  4070.000000   4833503   4851055   4868427   4885474   4902144  
  4060.000000   4918333   4934052   4949241   4963949   4978112  
  4050.000000   4991777   5004866   5017434   5029414   5040879  
  4040.000000   5051754   5062100   5071806   5080910   5089293  
  4030.000000   5097005   5103944   5110169   5115583   5120209  
  4020.000000   5123911   5126719   5128584   5129591   5129703  
  4010.000000   5129092   5127855   5126044   5123454   5120172  
  4000.000000   5116537  
##END= 
