##TITLE= Sample 020 By ssteindl date Dienstag, November 20 2018
##JCAMP-DX= 4.24
##DATA TYPE= INFRARED SPECTRUM
##ORIGIN= Exported PE Spectrum Data File
##OWNER= Sandra Steindl
##DATE= 18/11/20
##TIME= 14:42:54.00
##SPECTROMETER/DATA SYSTEM= PERKIN-ELMER Frontier FT-IR/NIR IR
##INSTRUMENT PARAMETERS=
  APODIZATION=stark
  DETECTOR=INGAAS
##RESOLUTION= 16.000000
##DELTAX= -2.000000
##XUNITS= 1/CM
##YUNITS= A
##XFACTOR= 1.00
##YFACTOR= 0.00000011920928955078
##FIRSTX= 10000.00
##LASTX= 4000.00
##NPOINTS= 3001
##FIRSTY= 0.210360
##MAXY= 0.547475
##MINY= 0.188481
##XYDATA= (X++(Y..Y))
 10000.000000   1764628   1767693   1770579   1773118   1775309  
  9990.000000   1777362   1779349   1781199   1782645   1783383  
  9980.000000   1783096   1781604   1778918   1775249   1770914  
  9970.000000   1766273   1761622   1757146   1752891   1748841  
  9960.000000   1744994   1741475   1738510   1736417   1735400  
  9950.000000   1735520   1736566   1738176   1739959   1741626  
  9940.000000   1743133   1744568   1746088   1747647   1748956  
  9930.000000   1749430   1748464   1745675   1741231   1735907  
  9920.000000   1730904   1727484   1726431   1727823   1730928  
  9910.000000   1734565   1737529   1739032   1738945   1737669  
  9900.000000   1735886   1734083   1732362   1730364   1727606  
  9890.000000   1723807   1719221   1714679   1711304   1710166  
  9880.000000   1711765   1715955   1721920   1728561   1734828  
  9870.000000   1739973   1743674   1745815   1746401   1745310  
  9860.000000   1742426   1737721   1731550   1724704   1718358  
  9850.000000   1713772   1711883   1713038   1716819   1722271  
  9840.000000   1728149   1733360   1737182   1739363   1740047  
  9830.000000   1739570   1738338   1736713   1735032   1733638  
  9820.000000   1732862   1733012   1734214   1736417   1739287  
  9810.000000   1742375   1745170   1747292   1748482   1748605  
  9800.000000   1747534   1745083   1741059   1735349   1728172  
  9790.000000   1720125   1712213   1705577   1701149   1699349  
  9780.000000   1699856   1701798   1703988   1705457   1705778  
  9770.000000   1705242   1704693   1705087   1707066   1710558  
  9760.000000   1714823   1718622   1720780   1720537   1717935  
  9750.000000   1713714   1709105   1705358   1703336   1703296  
  9740.000000   1704849   1707227   1709568   1711261   1712053  
  9730.000000   1712084   1711681   1711244   1711058   1711276  
  9720.000000   1711886   1712755   1713672   1714361   1714549  
  9710.000000   1713986   1712527   1710193   1707188   1703890  
  9700.000000   1700742   1698124   1696250   1695081   1694405  
  9690.000000   1693896   1693321   1692575   1691752   1691038  
  9680.000000   1690625   1690629   1691052   1691851   1692982  
  9670.000000   1694507   1696587   1699426   1703156   1707688  
  9660.000000   1712652   1717414   1721219   1723369   1723443  
  9650.000000   1721376   1717548   1712644   1707560   1703151  
  9640.000000   1700038   1698481   1698270   1698913   1699713  
  9630.000000   1700146   1699932   1699266   1698633   1698705  
  9620.000000   1699970   1702524   1705940   1709314   1711580  
  9610.000000   1711791   1709507   1704881   1698636   1691796  
  9600.000000   1685392   1680187   1676546   1674446   1673590  
  9590.000000   1673574   1673978   1674465   1674739   1674615  
  9580.000000   1674006   1673014   1671937   1671195   1671231  
  9570.000000   1672252   1674169   1676471   1678451   1679374  
  9560.000000   1678824   1676817   1673833   1670616   1667894  
  9550.000000   1666154   1665498   1665737   1666517   1667569  
  9540.000000   1668752   1670108   1671683   1673447   1675181  
  9530.000000   1676539   1677164   1676825   1675526   1673435  
  9520.000000   1670829   1667917   1664818   1661563   1658192  
  9510.000000   1654860   1651830   1649460   1648028   1647654  
  9500.000000   1648210   1649382   1650776   1652054   1653015  
  9490.000000   1653581   1653748   1653483   1652744   1651497  
  9480.000000   1649849   1648059   1646544   1645705   1645799  
  9470.000000   1646765   1648242   1649653   1650446   1650292  
  9460.000000   1649190   1647453   1645545   1643922   1642900  
  9450.000000   1642623   1643132   1644432   1646517   1649313  
  9440.000000   1652561   1655757   1658217   1659290   1658644  
  9430.000000   1656442   1653366   1650378   1648394   1647925  
  9420.000000   1648873   1650591   1652148   1652775   1652178  
  9410.000000   1650682   1649011   1647973   1648065   1649296  
  9400.000000   1651192   1653013   1654067   1653946   1652677  
  9390.000000   1650622   1648315   1646246   1644711   1643818  
  9380.000000   1643511   1643684   1644217   1644991   1645893  
  9370.000000   1646787   1647533   1648019   1648176   1647991  
  9360.000000   1647496   1646711   1645705   1644556   1643446  
  9350.000000   1642609   1642283   1642631   1643602   1644965  
  9340.000000   1646311   1647275   1647701   1647777   1648000  
  9330.000000   1648899   1650764   1653372   1656015   1657688  
  9320.000000   1657485   1654975   1650453   1644958   1639954  
  9310.000000   1636834   1636428   1638768   1643155   1648434  
  9300.000000   1653347   1656860   1658338   1657669   1655140  
  9290.000000   1651392   1647224   1643544   1641218   1640930  
  9280.000000   1642947   1646902   1651777   1656130   1658517  
  9270.000000   1657942   1654154   1647745   1639973   1632344  
  9260.000000   1626165   1622130   1620269   1620073   1620827  
  9250.000000   1621884   1622803   1623431   1623794   1624051  
  9240.000000   1624351   1624840   1625663   1626942   1628769  
  9230.000000   1631005   1633334   1635186   1636034   1635493  
  9220.000000   1633560   1630601   1627263   1624261   1622110  
  9210.000000   1621026   1620896   1621498   1622644   1624339  
  9200.000000   1626663   1629676   1633167   1636666   1639465  
  9190.000000   1640901   1640606   1638707   1635827   1632789  
  9180.000000   1630318   1628712   1627807   1627026   1625685  
  9170.000000   1623290   1619789   1615561   1611232   1607454  
  9160.000000   1604679   1603131   1602793   1603548   1605255  
  9150.000000   1607793   1611040   1614757   1618583   1622040  
  9140.000000   1624698   1626263   1626705   1626208   1625149  
  9130.000000   1623929   1622889   1622236   1622039   1622320  
  9120.000000   1623033   1624131   1625469   1626873   1628105  
  9110.000000   1628955   1629266   1628992   1628203   1627023  
  9100.000000   1625562   1623836   1621799   1619415   1616771  
  9090.000000   1614127   1611873   1610448   1610169   1611106  
  9080.000000   1613002   1615366   1617631   1619329   1620219  
  9070.000000   1620309   1619822   1619044   1618252   1617614  
  9060.000000   1617232   1617157   1617410   1617986   1618790  
  9050.000000   1619682   1620448   1620921   1620999   1620748  
  9040.000000   1620364   1620089   1620080   1620267   1620363  
  9030.000000   1619909   1618482   1615858   1612166   1607881  
  9020.000000   1603704   1600364   1598389   1597984   1598991  
  9010.000000   1600987   1603435   1605835   1607836   1609265  
  9000.000000   1610118   1610495   1610555   1610469   1610404  
  8990.000000   1610483   1610781   1611310   1612045   1612922  
  8980.000000   1613862   1614788   1615622   1616276   1616636  
  8970.000000   1616559   1615917   1614620   1612690   1610291  
  8960.000000   1607728   1605391   1603633   1602728   1602763  
  8950.000000   1603678   1605249   1607200   1609261   1611195  
  8940.000000   1612820   1613963   1614499   1614296   1613275  
  8930.000000   1611447   1608977   1606187   1603516   1601469  
  8920.000000   1600501   1600929   1602791   1605851   1609584  
  8910.000000   1613294   1616229   1617764   1617565   1615672  
  8900.000000   1612512   1608750   1605145   1602323   1600647  
  8890.000000   1600132   1600497   1601318   1602181   1602831  
  8880.000000   1603178   1603300   1603333   1603394   1603529  
  8870.000000   1603682   1603782   1603749   1603587   1603336  
  8860.000000   1603093   1602951   1602988   1603272   1603846  
  8850.000000   1604768   1606062   1607715   1609622   1611599  
  8840.000000   1613406   1614804   1615639   1615860   1615555  
  8830.000000   1614866   1613942   1612878   1611706   1610441  
  8820.000000   1609113   1607846   1606829   1606314   1606489  
  8810.000000   1607429   1609018   1610975   1612933   1614527  
  8800.000000   1615501   1615728   1615245   1614190   1612805  
  8790.000000   1611359   1610149   1609444   1609465   1610325  
  8780.000000   1611981   1614226   1616716   1619071   1620968  
  8770.000000   1622256   1622981   1623365   1623711   1624262  
  8760.000000   1625127   1626225   1627361   1628297   1628872  
  8750.000000   1629048   1628921   1628675   1628494   1628514  
  8740.000000   1628776   1629268   1629934   1630745   1631671  
  8730.000000   1632703   1633803   1634913   1635944   1636826  
  8720.000000   1637514   1638021   1638386   1638647   1638797  
  8710.000000   1638780   1638516   1637949   1637110   1636128  
  8700.000000   1635219   1634591   1634362   1634489   1634767  
  8690.000000   1634916   1634699   1634049   1633138   1632317  
  8680.000000   1632019   1632563   1634033   1636205   1638626  
  8670.000000   1640757   1642199   1642811   1642781   1642515  
  8660.000000   1642498   1643099   1644456   1646437   1648736  
  8650.000000   1650989   1652937   1654482   1655708   1656776  
  8640.000000   1657846   1658990   1660180   1661331   1662370  
  8630.000000   1663292   1664172   1665155   1666375   1667925  
  8620.000000   1669789   1671894   1674105   1676299   1678355  
  8610.000000   1680169   1681630   1682621   1683027   1682792  
  8600.000000   1681944   1680645   1679151   1677777   1676783  
  8590.000000   1676336   1676449   1677011   1677835   1678719  
  8580.000000   1679505   1680065   1680304   1680134   1679510  
  8570.000000   1678449   1677087   1675699   1674674   1674424  
  8560.000000   1675250   1677243   1680219   1683763   1687335  
  8550.000000   1690426   1692714   1694094   1694687   1694704  
  8540.000000   1694391   1693906   1693340   1692726   1692131  
  8530.000000   1691682   1691563   1691989   1693102   1694946  
  8520.000000   1697383   1700182   1703032   1705656   1707829  
  8510.000000   1709427   1710422   1710854   1710827   1710461  
  8500.000000   1709917   1709331   1708811   1708390   1708032  
  8490.000000   1707654   1707167   1706542   1705842   1705246  
  8480.000000   1704982   1705267   1706203   1707743   1709693  
  8470.000000   1711769   1713696   1715286   1716501   1717432  
  8460.000000   1718255   1719147   1720228   1721524   1722962  
  8450.000000   1724418   1725757   1726883   1727747   1728367  
  8440.000000   1728802   1729139   1729446   1729761   1730059  
  8430.000000   1730262   1730260   1729949   1729285   1728334  
  8420.000000   1727276   1726377   1725901   1726035   1726813  
  8410.000000   1728102   1729625   1731072   1732187   1732868  
  8400.000000   1733169   1733281   1733438   1733823   1734499  
  8390.000000   1735385   1736300   1737017   1737339   1737155  
  8380.000000   1736471   1735401   1734124   1732854   1731790  
  8370.000000   1731081   1730794   1730904   1731302   1731828  
  8360.000000   1732309   1732615   1732681   1732551   1732332  
  8350.000000   1732173   1732190   1732440   1732909   1733504  
  8340.000000   1734092   1734520   1734665   1734433   1733767  
  8330.000000   1732656   1731144   1729355   1727485   1725781  
  8320.000000   1724490   1723795   1723763   1724300   1725169  
  8310.000000   1726061   1726690   1726893   1726657   1726126  
  8300.000000   1725538   1725140   1725128   1725560   1726384  
  8290.000000   1727431   1728508   1729406   1729958   1730041  
  8280.000000   1729610   1728715   1727505   1726220   1725144  
  8270.000000   1724560   1724670   1725539   1727037   1728873  
  8260.000000   1730650   1731993   1732629   1732467   1731598  
  8250.000000   1730266   1728785   1727442   1726422   1725770  
  8240.000000   1725403   1725166   1724876   1724399   1723661  
  8230.000000   1722698   1721610   1720567   1719722   1719197  
  8220.000000   1719017   1719119   1719360   1719543   1719484  
  8210.000000   1719031   1718125   1716775   1715066   1713108  
  8200.000000   1711020   1708911   1706879   1705029   1703470  
  8190.000000   1702326   1701694   1701633   1702103   1702975  
  8180.000000   1704022   1704979   1705599   1705705   1705238  
  8170.000000   1704249   1702886   1701332   1699764   1698307  
  8160.000000   1697013   1695880   1694863   1693923   1693021  
  8150.000000   1692158   1691337   1690571   1689841   1689094  
  8140.000000   1688244   1687188   1685850   1684199   1682281  
  8130.000000   1680207   1678139   1676242   1674650   1673431  
  8120.000000   1672576   1672010   1671615   1671264   1670854  
  8110.000000   1670316   1669631   1668806   1667878   1666887  
  8100.000000   1665880   1664893   1663959   1663095   1662311  
  8090.000000   1661598   1660947   1660339   1659756   1659182  
  8080.000000   1658603   1657999   1657344   1656618   1655811  
  8070.000000   1654941   1654063   1653262   1652631   1652238  
  8060.000000   1652098   1652145   1652251   1652252   1652015  
  8050.000000   1651473   1650663   1649699   1648741   1647919  
  8040.000000   1647300   1646860   1646511   1646142   1645678  
  8030.000000   1645114   1644513   1643981   1643610   1643452  
  8020.000000   1643487   1643648   1643846   1644003   1644071  
  8010.000000   1644027   1643852   1643517   1642978   1642192  
  8000.000000   1641147   1639880   1638486   1637089   1635809  
  7990.000000   1634724   1633849   1633147   1632562   1632057  
  7980.000000   1631642   1631366   1631282   1631407   1631691  
  7970.000000   1632022   1632269   1632340   1632232   1632034  
  7960.000000   1631903   1631975   1632308   1632826   1633340  
  7950.000000   1633608   1633433   1632736   1631597   1630222  
  7940.000000   1628869   1627757   1626988   1626532   1626252  
  7930.000000   1625975   1625567   1624968   1624212   1623380  
  7920.000000   1622566   1621830   1621191   1620639   1620169  
  7910.000000   1619800   1619590   1619615   1619943   1620599  
  7900.000000   1621545   1622681   1623866   1624948   1625797  
  7890.000000   1626331   1626530   1626429   1626120   1625723  
  7880.000000   1625372   1625177   1625197   1625424   1625770  
  7870.000000   1626097   1626242   1626088   1625590   1624818  
  7860.000000   1623924   1623118   1622577   1622411   1622603  
  7850.000000   1623031   1623499   1623810   1623827   1623506  
  7840.000000   1622906   1622142   1621336   1620572   1619867  
  7830.000000   1619179   1618443   1617619   1616715   1615820  
  7820.000000   1615056   1614563   1614417   1614624   1615087  
  7810.000000   1615635   1616068   1616199   1615910   1615157  
  7800.000000   1613989   1612505   1610843   1609136   1607509  
  7790.000000   1606057   1604853   1603951   1603374   1603129  
  7780.000000   1603179   1603472   1603925   1604456   1604984  
  7770.000000   1605446   1605800   1606007   1606044   1605877  
  7760.000000   1605494   1604882   1604066   1603098   1602062  
  7750.000000   1601056   1600173   1599492   1599050   1598858  
  7740.000000   1598890   1599100   1599420   1599767   1600045  
  7730.000000   1600162   1600043   1599658   1599041   1598289  
  7720.000000   1597546   1596962   1596646   1596628   1596848  
  7710.000000   1597173   1597439   1597505   1597290   1596794  
  7700.000000   1596081   1595252   1594409   1593631   1592957  
  7690.000000   1592406   1591979   1591674   1591486   1591393  
  7680.000000   1591351   1591289   1591122   1590772   1590202  
  7670.000000   1589426   1588515   1587574   1586717   1586032  
  7660.000000   1585565   1585317   1585247   1585307   1585445  
  7650.000000   1585626   1585827   1586028   1586207   1586329  
  7640.000000   1586359   1586252   1585981   1585533   1584926  
  7630.000000   1584197   1583412   1582644   1581972   1581465  
  7620.000000   1581166   1581094   1581229   1581523   1581905  
  7610.000000   1582301   1582646   1582902   1583066   1583161  
  7600.000000   1583234   1583324   1583463   1583647   1583852  
  7590.000000   1584022   1584102   1584048   1583850   1583546  
  7580.000000   1583207   1582932   1582807   1582890   1583184  
  7570.000000   1583638   1584158   1584629   1584960   1585093  
  7560.000000   1585029   1584810   1584505   1584183   1583905  
  7550.000000   1583700   1583585   1583560   1583631   1583804  
  7540.000000   1584094   1584507   1585045   1585683   1586390  
  7530.000000   1587105   1587782   1588367   1588838   1589189  
  7520.000000   1589457   1589707   1590036   1590555   1591364  
  7510.000000   1592527   1594048   1595864   1597855   1599858  
  7500.000000   1601708   1603266   1604452   1605248   1605704  
  7490.000000   1605900   1605944   1605945   1606001   1606195  
  7480.000000   1606583   1607196   1608031   1609055   1610203  
  7470.000000   1611388   1612518   1613515   1614332   1614961  
  7460.000000   1615439   1615830   1616227   1616719   1617387  
  7450.000000   1618280   1619417   1620777   1622312   1623951  
  7440.000000   1625623   1627266   1628845   1630349   1631784  
  7430.000000   1633161   1634493   1635781   1637032   1638255  
  7420.000000   1639481   1640750   1642104   1643563   1645109  
  7410.000000   1646682   1648196   1649572   1650769   1651808  
  7400.000000   1652771   1653778   1654936   1656310   1657893  
  7390.000000   1659619   1661384   1663095   1664694   1666174  
  7380.000000   1667559   1668884   1670165   1671389   1672523  
  7370.000000   1673536   1674423   1675216   1675975   1676769  
  7360.000000   1677646   1678617   1679659   1680735   1681810  
  7350.000000   1682883   1683979   1685147   1686430   1687847  
  7340.000000   1689382   1690995   1692633   1694248   1695812  
  7330.000000   1697309   1698728   1700050   1701256   1702328  
  7320.000000   1703268   1704106   1704901   1705730   1706662  
  7310.000000   1707743   1708967   1710293   1711643   1712951  
  7300.000000   1714170   1715299   1716371   1717438   1718543  
  7290.000000   1719700   1720879   1722019   1723038   1723865  
  7280.000000   1724459   1724825   1725009   1725092   1725161  
  7270.000000   1725297   1725550   1725935   1726437   1727019  
  7260.000000   1727638   1728256   1728852   1729415   1729959  
  7250.000000   1730505   1731092   1731755   1732544   1733484  
  7240.000000   1734597   1735866   1737260   1738716   1740184  
  7230.000000   1741618   1743020   1744413   1745863   1747426  
  7220.000000   1749153   1751045   1753074   1755166   1757247  
  7210.000000   1759247   1761145   1762955   1764741   1766580  
  7200.000000   1768559   1770730   1773118   1775693   1778405  
  7190.000000   1781165   1783899   1786535   1789053   1791464  
  7180.000000   1793833   1796241   1798775   1801491   1804414  
  7170.000000   1807516   1810755   1814067   1817417   1820776  
  7160.000000   1824153   1827534   1830910   1834230   1837452  
  7150.000000   1840535   1843507   1846440   1849488   1852806  
  7140.000000   1856537   1860723   1865319   1870180   1875136  
  7130.000000   1880025   1884770   1889357   1893866   1898381  
  7120.000000   1902998   1907741   1912608   1917528   1922452  
  7110.000000   1927324   1932154   1936965   1941824   1946785  
  7100.000000   1951904   1957204   1962697   1968363   1974183  
  7090.000000   1980115   1986127   1992182   1998262   2004354  
  7080.000000   2010467   2016599   2022751   2028899   2035015  
  7070.000000   2041063   2047030   2052926   2058797   2064701  
  7060.000000   2070683   2076757   2082883   2088990   2094991  
  7050.000000   2100828   2106487   2112010   2117470   2122940  
  7040.000000   2128457   2134011   2139548   2145004   2150328  
  7030.000000   2155520   2160617   2165693   2170819   2176051  
  7020.000000   2181398   2186841   2192323   2197786   2203162  
  7010.000000   2208403   2213465   2218334   2223011   2227532  
  7000.000000   2231943   2236306   2240656   2245007   2249321  
  6990.000000   2253542   2257595   2261443   2265078   2268558  
  6980.000000   2271952   2275350   2278793   2282302   2285840  
  6970.000000   2289368   2292837   2296230   2299534   2302756  
  6960.000000   2305879   2308886   2311729   2314383   2316824  
  6950.000000   2319074   2321162   2323147   2325064   2326946  
  6940.000000   2328795   2330617   2332402   2334159   2335879  
  6930.000000   2337555   2339151   2340631   2341950   2343101  
  6920.000000   2344101   2345016   2345919   2346886   2347949  
  6910.000000   2349102   2350297   2351480   2352602   2353651  
  6900.000000   2354634   2355581   2356508   2357422   2358309  
  6890.000000   2359155   2359958   2360736   2361519   2362332  
  6880.000000   2363174   2364015   2364795   2365458   2365965  
  6870.000000   2366325   2366588   2366835   2367143   2367569  
  6860.000000   2368123   2368789   2369515   2370254   2370963  
  6850.000000   2371619   2372210   2372738   2373202   2373609  
  6840.000000   2373960   2374257   2374497   2374670   2374763  
  6830.000000   2374764   2374672   2374504   2374296   2374096  
  6820.000000   2373946   2373876   2373885   2373956   2374061  
  6810.000000   2374191   2374351   2374571   2374879   2375294  
  6800.000000   2375793   2376323   2376806   2377165   2377343  
  6790.000000   2377321   2377108   2376740   2376251   2375679  
  6780.000000   2375057   2374426   2373827   2373313   2372916  
  6770.000000   2372644   2372457   2372286   2372039   2371644  
  6760.000000   2371067   2370328   2369489   2368631   2367825  
  6750.000000   2367112   2366493   2365945   2365430   2364918  
  6740.000000   2364387   2363825   2363223   2362574   2361874  
  6730.000000   2361133   2360370   2359623   2358929   2358315  
  6720.000000   2357779   2357300   2356837   2356353   2355826  
  6710.000000   2355259   2354661   2354044   2353398   2352698  
  6700.000000   2351902   2350984   2349936   2348789   2347597  
  6690.000000   2346423   2345314   2344296   2343362   2342496  
  6680.000000   2341671   2340872   2340082   2339286   2338451  
  6670.000000   2337540   2336505   2335314   2333959   2332466  
  6660.000000   2330884   2329273   2327680   2326135   2324642  
  6650.000000   2323197   2321788   2320410   2319053   2317710  
  6640.000000   2316358   2314975   2313539   2312049   2310528  
  6630.000000   2309020   2307566   2306194   2304888   2303599  
  6620.000000   2302253   2300785   2299161   2297395   2295539  
  6610.000000   2293670   2291850   2290122   2288488   2286932  
  6600.000000   2285428   2283955   2282502   2281056   2279602  
  6590.000000   2278107   2276533   2274852   2273055   2271169  
  6580.000000   2269252   2267373   2265600   2263972   2262499  
  6570.000000   2261164   2259929   2258751   2257591   2256417  
  6560.000000   2255205   2253936   2252606   2251217   2249792  
  6550.000000   2248356   2246937   2245546   2244180   2242819  
  6540.000000   2241440   2240032   2238603   2237186   2235820  
  6530.000000   2234532   2233330   2232188   2231066   2229922  
  6520.000000   2228738   2227518   2226294   2225103   2223975  
  6510.000000   2222917   2221919   2220959   2220022   2219105  
  6500.000000   2218221   2217385   2216607   2215884   2215198  
  6490.000000   2214526   2213843   2213132   2212379   2211569  
  6480.000000   2210681   2209695   2208597   2207396   2206125  
  6470.000000   2204839   2203596   2202437   2201366   2200352  
  6460.000000   2199339   2198278   2197144   2195958   2194772  
  6450.000000   2193653   2192655   2191796   2191057   2190390  
  6440.000000   2189739   2189056   2188319   2187521   2186673  
  6430.000000   2185788   2184879   2183959   2183049   2182168  
  6420.000000   2181342   2180585   2179898   2179260   2178644  
  6410.000000   2178020   2177380   2176733   2176108   2175537  
  6400.000000   2175042   2174619   2174247   2173894   2173535  
  6390.000000   2173159   2172777   2172404   2172054   2171724  
  6380.000000   2171394   2171035   2170622   2170145   2169608  
  6370.000000   2169035   2168449   2167868   2167299   2166746  
  6360.000000   2166205   2165685   2165190   2164728   2164287  
  6350.000000   2163843   2163356   2162783   2162094   2161286  
  6340.000000   2160383   2159432   2158488   2157595   2156776  
  6330.000000   2156030   2155333   2154652   2153948   2153196  
  6320.000000   2152375   2151482   2150522   2149516   2148484  
  6310.000000   2147454   2146439   2145445   2144459   2143460  
  6300.000000   2142420   2141321   2140153   2138920   2137629  
  6290.000000   2136286   2134886   2133420   2131874   2130248  
  6280.000000   2128556   2126834   2125124   2123471   2121898  
  6270.000000   2120409   2118981   2117583   2116177   2114738  
  6260.000000   2113247   2111701   2110093   2108421   2106681  
  6250.000000   2104872   2102998   2101072   2099110   2097132  
  6240.000000   2095147   2093166   2091189   2089221   2087268  
  6230.000000   2085344   2083458   2081614   2079804   2078011  
  6220.000000   2076213   2074391   2072541   2070668   2068787  
  6210.000000   2066911   2065045   2063184   2061319   2059439  
  6200.000000   2057547   2055657   2053795   2051987   2050253  
  6190.000000   2048602   2047028   2045518   2044055   2042624  
  6180.000000   2041212   2039806   2038395   2036967   2035514  
  6170.000000   2034032   2032532   2031023   2029523   2028037  
  6160.000000   2026567   2025100   2023623   2022126   2020609  
  6150.000000   2019083   2017568   2016086   2014658   2013296  
  6140.000000   2012002   2010771   2009593   2008447   2007307  
  6130.000000   2006140   2004919   2003621   2002248   2000819  
  6120.000000   1999379   1997971   1996639   1995398   1994247  
  6110.000000   1993160   1992113   1991085   1990077   1989099  
  6100.000000   1988173   1987305   1986493   1985715   1984952  
  6090.000000   1984184   1983418   1982666   1981957   1981306  
  6080.000000   1980728   1980213   1979756   1979348   1979001  
  6070.000000   1978727   1978551   1978475   1978496   1978579  
  6060.000000   1978694   1978803   1978898   1978980   1979081  
  6050.000000   1979220   1979427   1979704   1980057   1980481  
  6040.000000   1980989   1981596   1982333   1983209   1984233  
  6030.000000   1985376   1986604   1987867   1989135   1990389  
  6020.000000   1991638   1992900   1994202   1995555   1996970  
  6010.000000   1998431   1999929   2001440   2002953   2004449  
  6000.000000   2005922   2007362   2008776   2010171   2011580  
  5990.000000   2013030   2014564   2016205   2017973   2019862  
  5980.000000   2021863   2023953   2026120   2028347   2030630  
  5970.000000   2032957   2035322   2037707   2040108   2042513  
  5960.000000   2044938   2047390   2049893   2052450   2055064  
  5950.000000   2057715   2060391   2063077   2065781   2068522  
  5940.000000   2071328   2074222   2077211   2080276   2083384  
  5930.000000   2086493   2089570   2092599   2095582   2098531  
  5920.000000   2101456   2104358   2107226   2110037   2112769  
  5910.000000   2115406   2117942   2120381   2122735   2125018  
  5900.000000   2127251   2129459   2131669   2133918   2136229  
  5890.000000   2138621   2141085   2143602   2146133   2148642  
  5880.000000   2151103   2153506   2155856   2158164   2160436  
  5870.000000   2162669   2164850   2166957   2168980   2170915  
  5860.000000   2172777   2174589   2176380   2178180   2180014  
  5850.000000   2181904   2183868   2185921   2188066   2190295  
  5840.000000   2192583   2194896   2197196   2199457   2201669  
  5830.000000   2203843   2206002   2208170   2210361   2212573  
  5820.000000   2214790   2216988   2219150   2221268   2223339  
  5810.000000   2225371   2227354   2229286   2231142   2232925  
  5800.000000   2234623   2236271   2237881   2239501   2241123  
  5790.000000   2242754   2244336   2245822   2247118   2248154  
  5780.000000   2248832   2249083   2248829   2248036   2246692  
  5770.000000   2244854   2242616   2240135   2237566   2235070  
  5760.000000   2232747   2230658   2228795   2227133   2225622  
  5750.000000   2224236   2222959   2221798   2220758   2219837  
  5740.000000   2219025   2218298   2217643   2217042   2216498  
  5730.000000   2216002   2215556   2215139   2214737   2214327  
  5720.000000   2213908   2213489   2213100   2212767   2212516  
  5710.000000   2212347   2212248   2212192   2212157   2212126  
  5700.000000   2212100   2212089   2212104   2212154   2212238  
  5690.000000   2212355   2212501   2212686   2212910   2213181  
  5680.000000   2213482   2213787   2214047   2214212   2214229  
  5670.000000   2214063   2213686   2213095   2212288   2211279  
  5660.000000   2210085   2208744   2207297   2205807   2204322  
  5650.000000   2202887   2201514   2200197   2198907   2197622  
  5640.000000   2196328   2195040   2193784   2192596   2191495  
  5630.000000   2190482   2189537   2188630   2187734   2186834  
  5620.000000   2185935   2185046   2184179   2183330   2182490  
  5610.000000   2181639   2180766   2179870   2178965   2178072  
  5600.000000   2177212   2176396   2175625   2174893   2174193  
  5590.000000   2173523   2172880   2172261   2171652   2171027  
  5580.000000   2170357   2169618   2168799   2167912   2166984  
  5570.000000   2166044   2165112   2164187   2163250   2162275  
  5560.000000   2161242   2160153   2159027   2157901   2156809  
  5550.000000   2155776   2154804   2153881   2152986   2152102  
  5540.000000   2151220   2150340   2149464   2148594   2147723  
  5530.000000   2146842   2145943   2145023   2144085   2143135  
  5520.000000   2142176   2141210   2140226   2139219   2138182  
  5510.000000   2137119   2136036   2134947   2133856   2132770  
  5500.000000   2131686   2130607   2129532   2128469   2127419  
  5490.000000   2126379   2125325   2124230   2123059   2121792  
  5480.000000   2120427   2118989   2117516   2116053   2114623  
  5470.000000   2113235   2111870   2110501   2109098   2107647  
  5460.000000   2106141   2104585   2102977   2101313   2099583  
  5450.000000   2097785   2095924   2094026   2092127   2090262  
  5440.000000   2088456   2086715   2085030   2083388   2081784  
  5430.000000   2080217   2078700   2077237   2075829   2074457  
  5420.000000   2073108   2071765   2070444   2069170   2067993  
  5410.000000   2066940   2066033   2065250   2064565   2063937  
  5400.000000   2063360   2062832   2062395   2062075   2061904  
  5390.000000   2061872   2061965   2062144   2062402   2062734  
  5380.000000   2063181   2063773   2064555   2065521   2066670  
  5370.000000   2067947   2069332   2070780   2072306   2073898  
  5360.000000   2075606   2077427   2079415   2081568   2083951  
  5350.000000   2086574   2089520   2092800   2096486   2100557  
  5340.000000   2105053   2109926   2115211   2120865   2126934  
  5330.000000   2133368   2140207   2147384   2154934   2162803  
  5320.000000   2171071   2179730   2188909   2198618   2208982  
  5310.000000   2219968   2231650   2243951   2256919   2270487  
  5300.000000   2284730   2299616   2315258   2331646   2348891  
  5290.000000   2366958   2385901   2405611   2426051   2447056  
  5280.000000   2468575   2490496   2512866   2535699   2559130  
  5270.000000   2583198   2607947   2633268   2659002   2684915  
  5260.000000   2710811   2736568   2762161   2787655   2813112  
  5250.000000   2838578   2863963   2889138   2913850   2937933  
  5240.000000   2961203   2983674   3005344   3026380   3046835  
  5230.000000   3066850   3086374   3105422   3123832   3141566  
  5220.000000   3158476   3174603   3189899   3204499   3218410  
  5210.000000   3231772   3244540   3256766   3268313   3279178  
  5200.000000   3289220   3298491   3306941   3314704   3321782  
  5190.000000   3328304   3334231   3339631   3344417   3348631  
  5180.000000   3352201   3355203   3357597   3359473   3360792  
  5170.000000   3361621   3361913   3361738   3361069   3359994  
  5160.000000   3358502   3356664   3354444   3351873   3348892  
  5150.000000   3345528   3341749   3337618   3333143   3328406  
  5140.000000   3323420   3318251   3312897   3307406   3301771  
  5130.000000   3296032   3290181   3284249   3278217   3272104  
  5120.000000   3265896   3259614   3253260   3246865   3240434  
  5110.000000   3233985   3227509   3221008   3214476   3207926  
  5100.000000   3201371   3194845   3188365   3181950   3175594  
  5090.000000   3169285   3163001   3156731   3150471   3144233  
  5080.000000   3138030   3131877   3125770   3119698   3113632  
  5070.000000   3107549   3101426   3095253   3089029   3082764  
  5060.000000   3076464   3070138   3063785   3057411   3051018  
  5050.000000   3044616   3038215   3031826   3025454   3019097  
  5040.000000   3012745   3006389   3000020   2993637   2987249  
  5030.000000   2980871   2974523   2968222   2961986   2955821  
  5020.000000   2949736   2943728   2937809   2931975   2926241  
  5010.000000   2920606   2915089   2909689   2904427   2899300  
  5000.000000   2894333   2889520   2884887   2880424   2876158  
  4990.000000   2872075   2868202   2864521   2861059   2857797  
  4980.000000   2854764   2851940   2849360   2847011   2844939  
  4970.000000   2843137   2841655   2840480   2839645   2839115  
  4960.000000   2838904   2838960   2839300   2839887   2840762  
  4950.000000   2841912   2843395   2845198   2847367   2849866  
  4940.000000   2852722   2855887   2859385   2863175   2867288  
  4930.000000   2871689   2876404   2881392   2886672   2892200  
  4920.000000   2897998   2904040   2910359   2916942   2923822  
  4910.000000   2930981   2938432   2946138   2954089   2962233  
  4900.000000   2970546   2978979   2987510   2996106   3004752  
  4890.000000   3013431   3022128   3030825   3039486   3048078  
  4880.000000   3056547   3064855   3072946   3080801   3088384  
  4870.000000   3095700   3102725   3109477   3115931   3122104  
  4860.000000   3127973   3133557   3138839   3143849   3148577  
  4850.000000   3153061   3157294   3161316   3165122   3168753  
  4840.000000   3172205   3175516   3178682   3181738   3184679  
  4830.000000   3187533   3190291   3192972   3195564   3198077  
  4820.000000   3200495   3202824   3205056   3207205   3209268  
  4810.000000   3211261   3213184   3215043   3216826   3218536  
  4800.000000   3220162   3221714   3223201   3224648   3226070  
  4790.000000   3227495   3228929   3230386   3231859   3233353  
  4780.000000   3234857   3236377   3237898   3239416   3240906  
  4770.000000   3242347   3243703   3244956   3246082   3247083  
  4760.000000   3247954   3248712   3249357   3249898   3250319  
  4750.000000   3250622   3250784   3250814   3250704   3250474  
  4740.000000   3250129   3249691   3249158   3248545   3247840  
  4730.000000   3247050   3246166   3245194   3244131   3242983  
  4720.000000   3241744   3240415   3238990   3237469   3235861  
  4710.000000   3234186   3232476   3230776   3229137   3227606  
  4700.000000   3226221   3225003   3223955   3223063   3222304  
  4690.000000   3221649   3221076   3220562   3220100   3219677  
  4680.000000   3219290   3218919   3218555   3218169   3217748  
  4670.000000   3217268   3216735   3216147   3215533   3214911  
  4660.000000   3214326   3213803   3213385   3213097   3212977  
  4650.000000   3213045   3213328   3213830   3214557   3215490  
  4640.000000   3216612   3217886   3219285   3220776   3222340  
  4630.000000   3223952   3225600   3227261   3228917   3230538  
  4620.000000   3232097   3233561   3234905   3236104   3237146  
  4610.000000   3238027   3238751   3239342   3239824   3240239  
  4600.000000   3240618   3241004   3241411   3241854   3242315  
  4590.000000   3242781   3243211   3243580   3243852   3244015  
  4580.000000   3244054   3243980   3243796   3243521   3243164  
  4570.000000   3242741   3242255   3241715   3241113   3240455  
  4560.000000   3239733   3238954   3238121   3237248   3236341  
  4550.000000   3235413   3234464   3233491   3232485   3231436  
  4540.000000   3230343   3229208   3228050   3226888   3225754  
  4530.000000   3224663   3223643   3222692   3221832   3221055  
  4520.000000   3220391   3219838   3219438   3219191   3219141  
  4510.000000   3219280   3219657   3220266   3221174   3222387  
  4500.000000   3223994   3226001   3228495   3231468   3234995  
  4490.000000   3239053   3243714   3248953   3254842   3261349  
  4480.000000   3268529   3276330   3284782   3293816   3303452  
  4470.000000   3313623   3324346   3335556   3347257   3359368  
  4460.000000   3371871   3384671   3397732   3410963   3424327  
  4450.000000   3437748   3451199   3464627   3478013   3491335  
  4440.000000   3504587   3517776   3530902   3543987   3557021  
  4430.000000   3570022   3582951   3595810   3608527   3621086  
  4420.000000   3633382   3645386   3656976   3668118   3678693  
  4410.000000   3688678   3697967   3706555   3714362   3721405  
  4400.000000   3727638   3733115   3737835   3741895   3745338  
  4390.000000   3748294   3750832   3753083   3755110   3757015  
  4380.000000   3758840   3760652   3762476   3764369   3766369  
  4370.000000   3768539   3770937   3773626   3776657   3780062  
  4360.000000   3783858   3788041   3792589   3797470   3802625  
  4350.000000   3808011   3813541   3819176   3824838   3830530  
  4340.000000   3836219   3841936   3847628   3853224   3858496  
  4330.000000   3863135   3866704   3868775   3868974   3867140  
  4320.000000   3863347   3857967   3851556   3844802   3838321  
  4310.000000   3832625   3827965   3824423   3821865   3820105  
  4300.000000   3818906   3818095   3817537   3817163   3816934  
  4290.000000   3816813   3816795   3816843   3816973   3817178  
  4280.000000   3817495   3817942   3818541   3819308   3820233  
  4270.000000   3821324   3822554   3823904   3825287   3826584  
  4260.000000   3827584   3828044   3827692   3826313   3823789  
  4250.000000   3820153   3815581   3810381   3804908   3799532  
  4240.000000   3794532   3790109   3786319   3783146   3780473  
  4230.000000   3778169   3776078   3774064   3772014   3769845  
  4220.000000   3767526   3765044   3762459   3759823   3757249  
  4210.000000   3754810   3752602   3750659   3749020   3747668  
  4200.000000   3746594   3745754   3745128   3744667   3744354  
  4190.000000   3744136   3744004   3743909   3743862   3743834  
  4180.000000   3743869   3743966   3744195   3744574   3745192  
  4170.000000   3746081   3747339   3748998   3751147   3753794  
  4160.000000   3756995   3760710   3764959   3769673   3774863  
  4150.000000   3780466   3786512   3792950   3799823   3807084  
  4140.000000   3814777   3822856   3831374   3840293   3849673  
  4130.000000   3859478   3869755   3880453   3891594   3903118  
  4120.000000   3915038   3927305   3939947   3952939   3966321  
  4110.000000   3980077   3994241   4008785   4023711   4038961  
  4100.000000   4054503   4070257   4086174   4102187   4118265  
  4090.000000   4134381   4150537   4166740   4183005   4199349  
  4080.000000   4215777   4232302   4248904   4265584   4282287  
  4070.000000   4298986   4315586   4332043   4348251   4364184  
  4060.000000   4379765   4395006   4409845   4424307   4438316  
  4050.000000   4451897   4464971   4477588   4489684   4501328  
  4040.000000   4512440   4523059   4533056   4542439   4551064  
  4030.000000   4558960   4566021   4572307   4577741   4582376  
  4020.000000   4586105   4588985   4590984   4592188   4592551  
  4010.000000   4592223   4591281   4589766   4587472   4584489  
  4000.000000   4581159  
##END= 
