##TITLE= Sample 019 By ssteindl date Dienstag, November 20 2018
##JCAMP-DX= 4.24
##DATA TYPE= INFRARED SPECTRUM
##ORIGIN= Exported PE Spectrum Data File
##OWNER= Sandra Steindl
##DATE= 18/11/20
##TIME= 14:41:38.00
##SPECTROMETER/DATA SYSTEM= PERKIN-ELMER Frontier FT-IR/NIR IR
##INSTRUMENT PARAMETERS=
  APODIZATION=stark
  DETECTOR=INGAAS
##RESOLUTION= 16.000000
##DELTAX= -2.000000
##XUNITS= 1/CM
##YUNITS= A
##XFACTOR= 1.00
##YFACTOR= 0.00000011920928955078
##FIRSTX= 10000.00
##LASTX= 4000.00
##NPOINTS= 3001
##FIRSTY= 0.200939
##MAXY= 0.597485
##MINY= 0.179270
##XYDATA= (X++(Y..Y))
 10000.000000   1685597   1684291   1684026   1685777   1688871  
  9990.000000   1692013   1694781   1697638   1700854   1704196  
  9980.000000   1707238   1709385   1709910   1708201   1704272  
  9970.000000   1698696   1692416   1686360   1681184   1677100  
  9960.000000   1673942   1671492   1669649   1668678   1668997  
  9950.000000   1671035   1674827   1679958   1685539   1690523  
  9940.000000   1694033   1695613   1695362   1693719   1691282  
  9930.000000   1688468   1685456   1682186   1678570   1674633  
  9920.000000   1670614   1666876   1663773   1661486   1659936  
  9910.000000   1658895   1658022   1657114   1656076   1655034  
  9900.000000   1654233   1653981   1654597   1656295   1659140  
  9890.000000   1662912   1667048   1670647   1672644   1672099  
  9880.000000   1668596   1662472   1654906   1647581   1642180  
  9870.000000   1639742   1640251   1642609   1645077   1645973  
  9860.000000   1644347   1640364   1635156   1630379   1627461  
  9850.000000   1627131   1629196   1632755   1636739   1640277  
  9840.000000   1643091   1645266   1647085   1648579   1649449  
  9830.000000   1649151   1647253   1643789   1639451   1635468  
  9820.000000   1633232   1633803   1637504   1643847   1651642  
  9810.000000   1659465   1665991   1670386   1672370   1672190  
  9800.000000   1670411   1667728   1664825   1662261   1660457  
  9790.000000   1659590   1659598   1660131   1660628   1660503  
  9780.000000   1659262   1656799   1653331   1649490   1646028  
  9770.000000   1643696   1642988   1644055   1646658   1650224  
  9760.000000   1653959   1656958   1658427   1657783   1654895  
  9750.000000   1650080   1644127   1638075   1632929   1629395  
  9740.000000   1627625   1627320   1627862   1628722   1629682  
  9730.000000   1630940   1632917   1635908   1639733   1643559  
  9720.000000   1646080   1645907   1642203   1635035   1625610  
  9710.000000   1615895   1608086   1603862   1603856   1607532  
  9700.000000   1613376   1619521   1624277   1626670   1626595  
  9690.000000   1624708   1622105   1619870   1618778   1619043  
  9680.000000   1620393   1622133   1623469   1623712   1622534  
  9670.000000   1620084   1616916   1613899   1611876   1611477  
  9660.000000   1612855   1615655   1619115   1622274   1624288  
  9650.000000   1624631   1623213   1620349   1616609   1612682  
  9640.000000   1609187   1606622   1605261   1605172   1606177  
  9630.000000   1607894   1609794   1611294   1611935   1611433  
  9620.000000   1609807   1607257   1604117   1600655   1597038  
  9610.000000   1593331   1589628   1586215   1583619   1582590  
  9600.000000   1583829   1587744   1594121   1602093   1610222  
  9590.000000   1616926   1620893   1621481   1618890   1614021  
  9580.000000   1608225   1602810   1598758   1596441   1595662  
  9570.000000   1595763   1595885   1595229   1593247   1589824  
  9560.000000   1585267   1580303   1575849   1572830   1571874  
  9550.000000   1573129   1576187   1580197   1584137   1587144  
  9540.000000   1588785   1589150   1588748   1588244   1588195  
  9530.000000   1588787   1589839   1590827   1591178   1590427  
  9520.000000   1588400   1585239   1581309   1577152   1573320  
  9510.000000   1570374   1568741   1568702   1570257   1573104  
  9500.000000   1576611   1579937   1582210   1582781   1581425  
  9490.000000   1578417   1574478   1570499   1567306   1565348  
  9480.000000   1564666   1564900   1565504   1565940   1565833  
  9470.000000   1565066   1563743   1562156   1560676   1559679  
  9460.000000   1559457   1560137   1561632   1563626   1565647  
  9450.000000   1567183   1567866   1567593   1566612   1565425  
  9440.000000   1564643   1564679   1565602   1567030   1568317  
  9430.000000   1568797   1568077   1566222   1563696   1561266  
  9420.000000   1559681   1559525   1561028   1564070   1568246  
  9410.000000   1572938   1577441   1581004   1582952   1582770  
  9400.000000   1580269   1575695   1569799   1563734   1558795  
  9390.000000   1556077   1556089   1558655   1562893   1567618  
  9380.000000   1571613   1574099   1574823   1574113   1572617  
  9370.000000   1570986   1569628   1568543   1567462   1565956  
  9360.000000   1563687   1560482   1556425   1551833   1547184  
  9350.000000   1543060   1539966   1538271   1538068   1539167  
  9340.000000   1541100   1543208   1544817   1545410   1544830  
  9330.000000   1543304   1541394   1539731   1538829   1538863  
  9320.000000   1539698   1540914   1542030   1542661   1542687  
  9310.000000   1542252   1541683   1541331   1541453   1542139  
  9300.000000   1543317   1544786   1546284   1547553   1548394  
  9290.000000   1548717   1548545   1548042   1547477   1547199  
  9280.000000   1547513   1548564   1550229   1552120   1553681  
  9270.000000   1554374   1553848   1552079   1549380   1546327  
  9260.000000   1543542   1541526   1540466   1540265   1540583  
  9250.000000   1541018   1541228   1541034   1540443   1539574  
  9240.000000   1538581   1537548   1536476   1535256   1533751  
  9230.000000   1531861   1529624   1527257   1525111   1523623  
  9220.000000   1523167   1524001   1526124   1529269   1532914  
  9210.000000   1536399   1539115   1540583   1540592   1539139  
  9200.000000   1536471   1532941   1529005   1525095   1521628  
  9190.000000   1518963   1517359   1516970   1517751   1519530  
  9180.000000   1521968   1524714   1527420   1529863   1531937  
  9170.000000   1533613   1534882   1535654   1535813   1535200  
  9160.000000   1533786   1531685   1529203   1526752   1524706  
  9150.000000   1523321   1522635   1522541   1522826   1523330  
  9140.000000   1523972   1524767   1525736   1526788   1527711  
  9130.000000   1528178   1527926   1526824   1525016   1522852  
  9120.000000   1520830   1519416   1518907   1519385   1520707  
  9110.000000   1522672   1525052   1527718   1530535   1533385  
  9100.000000   1536072   1538356   1539980   1540744   1540569  
  9090.000000   1539489   1537612   1535039   1531844   1528091  
  9080.000000   1523925   1519627   1515625   1512408   1510346  
  9070.000000   1509524   1509626   1510065   1510175   1509504  
  9060.000000   1507991   1506043   1504402   1503828   1504795  
  9050.000000   1507281   1510802   1514562   1517742   1519746  
  9040.000000   1520391   1519864   1518613   1517124   1515813  
  9030.000000   1514886   1514384   1514156   1513998   1513660  
  9020.000000   1512956   1511774   1510124   1508221   1506412  
  9010.000000   1505187   1504965   1506064   1508563   1512282  
  9000.000000   1516822   1521643   1526220   1530041   1532672  
  8990.000000   1533746   1533062   1530584   1526563   1521568  
  8980.000000   1516493   1512358   1510011   1509919   1511963  
  8970.000000   1515530   1519596   1523169   1525521   1526451  
  8960.000000   1526200   1525296   1524306   1523580   1523200  
  8950.000000   1522945   1522528   1521667   1520265   1518351  
  8940.000000   1516082   1513666   1511336   1509370   1508056  
  8930.000000   1507707   1508531   1510579   1513620   1517192  
  8920.000000   1520696   1523609   1525666   1526927   1527725  
  8910.000000   1528436   1529304   1530252   1530947   1530915  
  8900.000000   1529825   1527666   1524820   1521952   1519747  
  8890.000000   1518688   1518862   1520020   1521670   1523321  
  8880.000000   1524614   1525430   1525840   1526016   1526116  
  8870.000000   1526232   1526407   1526654   1526999   1527451  
  8860.000000   1527981   1528479   1528778   1528717   1528237  
  8850.000000   1527437   1526574   1525954   1525822   1526199  
  8840.000000   1526885   1527485   1527620   1527068   1525906  
  8830.000000   1524490   1523338   1522967   1523699   1525619  
  8820.000000   1528549   1532174   1536111   1540029   1543668  
  8810.000000   1546835   1549388   1551188   1552157   1552262  
  8800.000000   1551582   1550253   1548470   1546418   1544278  
  8790.000000   1542214   1540408   1539083   1538468   1538764  
  8780.000000   1540010   1542070   1544584   1547098   1549175  
  8770.000000   1550569   1551320   1551731   1552269   1553340  
  8760.000000   1555167   1557651   1560441   1563025   1564925  
  8750.000000   1565842   1565759   1564932   1563801   1562857  
  8740.000000   1562504   1562966   1564247   1566143   1568305  
  8730.000000   1570334   1571887   1572781   1573031   1572874  
  8720.000000   1572666   1572808   1573592   1575125   1577297  
  8710.000000   1579807   1582284   1584363   1585799   1586479  
  8700.000000   1586422   1585726   1584546   1583064   1581518  
  8690.000000   1580181   1579353   1579303   1580188   1582002  
  8680.000000   1584525   1587407   1590252   1592757   1594788  
  8670.000000   1596392   1597752   1599054   1600418   1601801  
  8660.000000   1603051   1603959   1604403   1604394   1604120  
  8650.000000   1603874   1603951   1604563   1605739   1607365  
  8640.000000   1609205   1611019   1612636   1613992   1615151  
  8630.000000   1616237   1617390   1618689   1620127   1621599  
  8620.000000   1622958   1624065   1624869   1625433   1625953  
  8610.000000   1626684   1627870   1629639   1631934   1634512  
  8600.000000   1637003   1639036   1640378   1641025   1641233  
  8590.000000   1641420   1642025   1643339   1645387   1647924  
  8580.000000   1650514   1652701   1654177   1654900   1655096  
  8570.000000   1655170   1655525   1656429   1657894   1659713  
  8560.000000   1661523   1662975   1663853   1664156   1664076  
  8550.000000   1663920   1663975   1664411   1665217   1666218  
  8540.000000   1667166   1667810   1668014   1667778   1667259  
  8530.000000   1666690   1666312   1666311   1666784   1667743  
  8520.000000   1669145   1670917   1673000   1675332   1677836  
  8510.000000   1680397   1682864   1685074   1686896   1688277  
  8500.000000   1689281   1690061   1690829   1691760   1692951  
  8490.000000   1694365   1695860   1697236   1698314   1699018  
  8480.000000   1699386   1699577   1699783   1700206   1700963  
  8470.000000   1702106   1703589   1705325   1707198   1709100  
  8460.000000   1710932   1712593   1713989   1715025   1715646  
  8450.000000   1715827   1715609   1715075   1714366   1713637  
  8440.000000   1713048   1712733   1712797   1713311   1714285  
  8430.000000   1715689   1717419   1719347   1721304   1723159  
  8420.000000   1724822   1726290   1727614   1728877   1730141  
  8410.000000   1731390   1732528   1733379   1733767   1733555  
  8400.000000   1732719   1731352   1729651   1727875   1726262  
  8390.000000   1725009   1724204   1723884   1724013   1724542  
  8380.000000   1725392   1726482   1727698   1728907   1729948  
  8370.000000   1730662   1730938   1730728   1730086   1729123  
  8360.000000   1728014   1726925   1725995   1725305   1724868  
  8350.000000   1724660   1724634   1724760   1725022   1725418  
  8340.000000   1725933   1726521   1727094   1727529   1727698  
  8330.000000   1727509   1726955   1726130   1725221   1724457  
  8320.000000   1724041   1724097   1724624   1725494   1726486  
  8310.000000   1727346   1727866   1727934   1727548   1726803  
  8300.000000   1725859   1724891   1724056   1723457   1723144  
  8290.000000   1723106   1723289   1723613   1723975   1724287  
  8280.000000   1724478   1724537   1724490   1724409   1724362  
  8270.000000   1724396   1724506   1724625   1724646   1724449  
  8260.000000   1723948   1723125   1722024   1720752   1719429  
  8250.000000   1718182   1717107   1716281   1715741   1715493  
  8240.000000   1715493   1715653   1715824   1715834   1715506  
  8230.000000   1714729   1713491   1711913   1710209   1708631  
  8220.000000   1707382   1706547   1706070   1705776   1705421  
  8210.000000   1704788   1703735   1702255   1700446   1698492  
  8200.000000   1696585   1694898   1693538   1692552   1691903  
  8190.000000   1691495   1691169   1690738   1690025   1688900  
  8180.000000   1687334   1685392   1683236   1681057   1679024  
  8170.000000   1677218   1675615   1674115   1672614   1671078  
  8160.000000   1669574   1668264   1667328   1666883   1666906  
  8150.000000   1667218   1667525   1667509   1666953   1665786  
  8140.000000   1664118   1662160   1660154   1658278   1656617  
  8130.000000   1655170   1653898   1652777   1651821   1651072  
  8120.000000   1650559   1650251   1650037   1649751   1649230  
  8110.000000   1648376   1647204   1645830   1644441   1643209  
  8100.000000   1642248   1641571   1641111   1640754   1640391  
  8090.000000   1639958   1639435   1638843   1638206   1637543  
  8080.000000   1636857   1636143   1635404   1634643   1633870  
  8070.000000   1633074   1632232   1631299   1630244   1629064  
  8060.000000   1627809   1626579   1625495   1624672   1624174  
  8050.000000   1624006   1624111   1624401   1624773   1625139  
  8040.000000   1625418   1625544   1625445   1625065   1624372  
  8030.000000   1623383   1622184   1620910   1619713   1618708  
  8020.000000   1617931   1617315   1616717   1615972   1614957  
  8010.000000   1613650   1612132   1610573   1609164   1608062  
  8000.000000   1607337   1606970   1606869   1606913   1606994  
  7990.000000   1607037   1607012   1606918   1606772   1606594  
  7980.000000   1606403   1606210   1606029   1605852   1605660  
  7970.000000   1605406   1605034   1604495   1603773   1602905  
  7960.000000   1601976   1601105   1600399   1599929   1599690  
  7950.000000   1599620   1599611   1599558   1599386   1599066  
  7940.000000   1598620   1598083   1597497   1596874   1596215  
  7930.000000   1595501   1594730   1593910   1593081   1592290  
  7920.000000   1591589   1591016   1590599   1590354   1590290  
  7910.000000   1590411   1590713   1591173   1591750   1592382  
  7900.000000   1593005   1593560   1594017   1594374   1594660  
  7890.000000   1594912   1595163   1595427   1595694   1595935  
  7880.000000   1596109   1596179   1596115   1595902   1595537  
  7870.000000   1595037   1594433   1593781   1593147   1592611  
  7860.000000   1592238   1592070   1592101   1592291   1592566  
  7850.000000   1592849   1593081   1593240   1593340   1593412  
  7840.000000   1593490   1593574   1593641   1593627   1593476  
  7830.000000   1593143   1592633   1592000   1591333   1590747  
  7820.000000   1590331   1590156   1590231   1590541   1591026  
  7810.000000   1591622   1592251   1592833   1593278   1593486  
  7800.000000   1593353   1592786   1591736   1590227   1588369  
  7790.000000   1586360   1584448   1582878   1581823   1581345  
  7780.000000   1581365   1581701   1582104   1582347   1582275  
  7770.000000   1581842   1581104   1580187   1579232   1578351  
  7760.000000   1577606   1576999   1576506   1576086   1575712  
  7750.000000   1575366   1575032   1574696   1574326   1573893  
  7740.000000   1573380   1572790   1572158   1571525   1570926  
  7730.000000   1570362   1569801   1569184   1568460   1567618  
  7720.000000   1566708   1565834   1565122   1564674   1564525  
  7710.000000   1564620   1564829   1564979   1564918   1564553  
  7700.000000   1563885   1563002   1562050   1561194   1560568  
  7690.000000   1560244   1560222   1560431   1560758   1561069  
  7680.000000   1561245   1561206   1560922   1560417   1559761  
  7670.000000   1559052   1558397   1557883   1557572   1557478  
  7660.000000   1557582   1557825   1558136   1558442   1558687  
  7650.000000   1558835   1558882   1558842   1558746   1558631  
  7640.000000   1558531   1558471   1558469   1558529   1558650  
  7630.000000   1558821   1559024   1559233   1559415   1559532  
  7620.000000   1559546   1559430   1559176   1558796   1558326  
  7610.000000   1557812   1557303   1556841   1556453   1556156  
  7600.000000   1555965   1555893   1555954   1556148   1556456  
  7590.000000   1556822   1557172   1557415   1557494   1557396  
  7580.000000   1557183   1556965   1556880   1557043   1557514  
  7570.000000   1558276   1559248   1560316   1561378   1562369  
  7560.000000   1563278   1564122   1564933   1565721   1566477  
  7550.000000   1567164   1567750   1568213   1568562   1568818  
  7540.000000   1569016   1569179   1569330   1569492   1569704  
  7530.000000   1570033   1570552   1571329   1572387   1573686  
  7520.000000   1575132   1576588   1577926   1579058   1579968  
  7510.000000   1580696   1581326   1581929   1582562   1583238  
  7500.000000   1583964   1584738   1585592   1586569   1587722  
  7490.000000   1589078   1590623   1592296   1594009   1595672  
  7480.000000   1597234   1598688   1600079   1601467   1602914  
  7470.000000   1604451   1606082   1607776   1609502   1611225  
  7460.000000   1612933   1614623   1616306   1617992   1619693  
  7450.000000   1621416   1623168   1624946   1626742   1628535  
  7440.000000   1630302   1632019   1633683   1635320   1636986  
  7430.000000   1638762   1640723   1642918   1645346   1647944  
  7420.000000   1650604   1653189   1655570   1657647   1659385  
  7410.000000   1660804   1661988   1663058   1664158   1665427  
  7400.000000   1666957   1668789   1670894   1673190   1675558  
  7390.000000   1677885   1680093   1682155   1684088   1685928  
  7380.000000   1687698   1689393   1690977   1692406   1693672  
  7370.000000   1694821   1695966   1697247   1698785   1700631  
  7360.000000   1702728   1704929   1707036   1708875   1710359  
  7350.000000   1711515   1712482   1713452   1714608   1716062  
  7340.000000   1717828   1719836   1721973   1724134   1726256  
  7330.000000   1728328   1730375   1732439   1734550   1736714  
  7320.000000   1738902   1741067   1743144   1745072   1746799  
  7310.000000   1748302   1749586   1750697   1751704   1752687  
  7300.000000   1753708   1754793   1755920   1757030   1758048  
  7290.000000   1758920   1759629   1760217   1760760   1761359  
  7280.000000   1762087   1762995   1764085   1765332   1766691  
  7270.000000   1768117   1769569   1771008   1772400   1773696  
  7260.000000   1774860   1775857   1776689   1777376   1777979  
  7250.000000   1778562   1779204   1779955   1780861   1781941  
  7240.000000   1783220   1784707   1786412   1788323   1790411  
  7230.000000   1792610   1794852   1797060   1799202   1801269  
  7220.000000   1803310   1805380   1807550   1809850   1812293  
  7210.000000   1814837   1817442   1820044   1822611   1825123  
  7200.000000   1827594   1830054   1832554   1835146   1837898  
  7190.000000   1840857   1844066   1847521   1851189   1854976  
  7180.000000   1858775   1862458   1865945   1869191   1872232  
  7170.000000   1875140   1878045   1881056   1884284   1887764  
  7160.000000   1891502   1895433   1899485   1903572   1907648  
  7150.000000   1911698   1915772   1919945   1924334   1929021  
  7140.000000   1934064   1939426   1945024   1950708   1956353  
  7130.000000   1961845   1967160   1972320   1977416   1982532  
  7120.000000   1987752   1993097   1998569   2004131   2009773  
  7110.000000   2015488   2021312   2027268   2033377   2039606  
  7100.000000   2045903   2052182   2058392   2064506   2070567  
  7090.000000   2076644   2082828   2089176   2095716   2102417  
  7080.000000   2109228   2116082   2122937   2129763   2136563  
  7070.000000   2143337   2150088   2156805   2163471   2170074  
  7060.000000   2176614   2183104   2189574   2196050   2202547  
  7050.000000   2209061   2215566   2222022   2228385   2234617  
  7040.000000   2240700   2246637   2252456   2258202   2263927  
  7030.000000   2269683   2275497   2281381   2287313   2293274  
  7020.000000   2299230   2305181   2311129   2317105   2323122  
  7010.000000   2329180   2335230   2341199   2346987   2352510  
  7000.000000   2357707   2362573   2367134   2371458   2375607  
  6990.000000   2379654   2383647   2387644   2391682   2395814  
  6980.000000   2400054   2404411   2408829   2413231   2417502  
  6970.000000   2421551   2425306   2428764   2431963   2434986  
  6960.000000   2437903   2440776   2443618   2446430   2449192  
  6950.000000   2451910   2454598   2457307   2460067   2462902  
  6940.000000   2465772   2468615   2471320   2473800   2475982  
  6930.000000   2477863   2479490   2480963   2482388   2483863  
  6920.000000   2485428   2487078   2488740   2490328   2491757  
  6910.000000   2492997   2494067   2495055   2496063   2497196  
  6900.000000   2498500   2499960   2501493   2502991   2504345  
  6890.000000   2505495   2506430   2507191   2507836   2508418  
  6880.000000   2508960   2509463   2509919   2510339   2510754  
  6870.000000   2511227   2511813   2512555   2513445   2514443  
  6860.000000   2515478   2516484   2517416   2518260   2519023  
  6850.000000   2519719   2520356   2520927   2521427   2521859  
  6840.000000   2522247   2522635   2523063   2523559   2524114  
  6830.000000   2524695   2525252   2525751   2526185   2526585  
  6820.000000   2526995   2527458   2527977   2528526   2529044  
  6810.000000   2529476   2529783   2529972   2530078   2530160  
  6800.000000   2530262   2530410   2530592   2530777   2530916  
  6790.000000   2530971   2530904   2530694   2530328   2529804  
  6780.000000   2529137   2528369   2527557   2526776   2526093  
  6770.000000   2525552   2525164   2524910   2524750   2524646  
  6760.000000   2524568   2524500   2524425   2524316   2524134  
  6750.000000   2523837   2523400   2522838   2522210   2521606  
  6740.000000   2521114   2520788   2520618   2520535   2520437  
  6730.000000   2520232   2519869   2519366   2518786   2518215  
  6720.000000   2517716   2517314   2516984   2516684   2516374  
  6710.000000   2516044   2515706   2515386   2515089   2514787  
  6700.000000   2514416   2513901   2513179   2512233   2511093  
  6690.000000   2509836   2508548   2507313   2506178   2505162  
  6680.000000   2504248   2503416   2502630   2501864   2501087  
  6670.000000   2500272   2499386   2498408   2497324   2496140  
  6660.000000   2494874   2493553   2492201   2490839   2489478  
  6650.000000   2488134   2486820   2485563   2484380   2483293  
  6640.000000   2482295   2481372   2480485   2479597   2478668  
  6630.000000   2477670   2476581   2475393   2474095   2472691  
  6620.000000   2471187   2469608   2467984   2466349   2464725  
  6610.000000   2463113   2461489   2459816   2458055   2456195  
  6600.000000   2454249   2452269   2450313   2448440   2446680  
  6590.000000   2445036   2443487   2442001   2440543   2439088  
  6580.000000   2437616   2436109   2434555   2432950   2431312  
  6570.000000   2429683   2428127   2426707   2425470   2424411  
  6560.000000   2423477   2422575   2421605   2420490   2419213  
  6550.000000   2417806   2416344   2414898   2413518   2412204  
  6540.000000   2410927   2409639   2408311   2406934   2405532  
  6530.000000   2404137   2402776   2401463   2400195   2398969  
  6520.000000   2397791   2396679   2395657   2394736   2393905  
  6510.000000   2393122   2392334   2391491   2390570   2389583  
  6500.000000   2388568   2387570   2386617   2385713   2384837  
  6490.000000   2383961   2383065   2382155   2381249   2380367  
  6480.000000   2379512   2378661   2377768   2376784   2375680  
  6470.000000   2374455   2373142   2371787   2370432   2369098  
  6460.000000   2367784   2366476   2365161   2363847   2362558  
  6450.000000   2361333   2360209   2359212   2358349   2357614  
  6440.000000   2356993   2356468   2356020   2355615   2355213  
  6430.000000   2354758   2354204   2353516   2352701   2351791  
  6420.000000   2350853   2349948   2349127   2348406   2347780  
  6410.000000   2347226   2346732   2346295   2345928   2345639  
  6400.000000   2345421   2345239   2345040   2344767   2344390  
  6390.000000   2343914   2343382   2342859   2342406   2342059  
  6380.000000   2341816   2341644   2341492   2341315   2341087  
  6370.000000   2340803   2340474   2340115   2339732   2339326  
  6360.000000   2338886   2338402   2337866   2337279   2336640  
  6350.000000   2335956   2335230   2334474   2333701   2332937  
  6340.000000   2332202   2331515   2330879   2330284   2329710  
  6330.000000   2329140   2328559   2327975   2327399   2326848  
  6320.000000   2326327   2325827   2325318   2324764   2324126  
  6310.000000   2323382   2322520   2321547   2320474   2319323  
  6300.000000   2318112   2316864   2315595   2314330   2313072  
  6290.000000   2311825   2310568   2309282   2307934   2306513  
  6280.000000   2305014   2303457   2301864   2300265   2298668  
  6270.000000   2297077   2295476   2293856   2292202   2290517  
  6260.000000   2288804   2287070   2285316   2283541   2281744  
  6250.000000   2279932   2278123   2276340   2274597   2272898  
  6240.000000   2271218   2269519   2267762   2265925   2264014  
  6230.000000   2262068   2260140   2258279   2256511   2254827  
  6220.000000   2253191   2251556   2249884   2248157   2246382  
  6210.000000   2244578   2242764   2240950   2239133   2237305  
  6200.000000   2235466   2233628   2231818   2230064   2228385  
  6190.000000   2226781   2225234   2223710   2222181   2220627  
  6180.000000   2219050   2217465   2215897   2214367   2212888  
  6170.000000   2211463   2210084   2208740   2207415   2206091  
  6160.000000   2204752   2203385   2201985   2200559   2199126  
  6150.000000   2197714   2196350   2195051   2193811   2192609  
  6140.000000   2191411   2190180   2188898   2187561   2186183  
  6130.000000   2184789   2183402   2182037   2180699   2179387  
  6120.000000   2178101   2176841   2175617   2174436   2173308  
  6110.000000   2172236   2171222   2170265   2169367   2168527  
  6100.000000   2167746   2167016   2166333   2165681   2165056  
  6090.000000   2164454   2163885   2163356   2162877   2162438  
  6080.000000   2162028   2161618   2161197   2160758   2160331  
  6070.000000   2159950   2159667   2159510   2159496   2159601  
  6060.000000   2159799   2160044   2160320   2160618   2160967  
  6050.000000   2161389   2161926   2162590   2163400   2164343  
  6040.000000   2165421   2166615   2167922   2169316   2170783  
  6030.000000   2172287   2173812   2175337   2176875   2178441  
  6020.000000   2180074   2181794   2183618   2185526   2187494  
  6010.000000   2189474   2191439   2193365   2195260   2197136  
  6000.000000   2199027   2200951   2202937   2204993   2207138  
  5990.000000   2209376   2211720   2214161   2216699   2219312  
  5980.000000   2221990   2224719   2227509   2230371   2233330  
  5970.000000   2236394   2239567   2242818   2246117   2249417  
  5960.000000   2252696   2255936   2259151   2262350   2265554  
  5950.000000   2268759   2271969   2275172   2278379   2281611  
  5940.000000   2284910   2288320   2291882   2295610   2299493  
  5930.000000   2303493   2307554   2311620   2315639   2319572  
  5920.000000   2323388   2327065   2330587   2333946   2337146  
  5910.000000   2340206   2343154   2346026   2348848   2351642  
  5900.000000   2354411   2357157   2359869   2362552   2365209  
  5890.000000   2367854   2370495   2373143   2375790   2378436  
  5880.000000   2381067   2383680   2386266   2388819   2391325  
  5870.000000   2393769   2396136   2398414   2400606   2402729  
  5860.000000   2404812   2406882   2408963   2411063   2413182  
  5850.000000   2415320   2417479   2419675   2421933   2424278  
  5840.000000   2426720   2429253   2431848   2434464   2437059  
  5830.000000   2439606   2442091   2444521   2446908   2449267  
  5820.000000   2451606   2453924   2456216   2458475   2460687  
  5810.000000   2462846   2464930   2466932   2468828   2470631  
  5800.000000   2472341   2474003   2475641   2477306   2478991  
  5790.000000   2480694   2482342   2483870   2485163   2486139  
  5780.000000   2486693   2486772   2486320   2485336   2483834  
  5770.000000   2481887   2479587   2477071   2474466   2471905  
  5760.000000   2469465   2467204   2465121   2463213   2461454  
  5750.000000   2459844   2458379   2457071   2455921   2454914  
  5740.000000   2454021   2453197   2452410   2451627   2450848  
  5730.000000   2450071   2449314   2448581   2447881   2447206  
  5720.000000   2446563   2445950   2445380   2444858   2444394  
  5710.000000   2443979   2443605   2443252   2442911   2442576  
  5700.000000   2442255   2441959   2441698   2441480   2441301  
  5690.000000   2441158   2441042   2440954   2440885   2440835  
  5680.000000   2440783   2440714   2440589   2440381   2440055  
  5670.000000   2439589   2438957   2438143   2437122   2435880  
  5660.000000   2434407   2432720   2430853   2428875   2426853  
  5650.000000   2424863   2422948   2421135   2419418   2417785  
  5640.000000   2416212   2414693   2413220   2411793   2410406  
  5630.000000   2409048   2407706   2406372   2405053   2403764  
  5620.000000   2402535   2401381   2400311   2399303   2398326  
  5610.000000   2397344   2396334   2395293   2394240   2393202  
  5600.000000   2392203   2391248   2390325   2389411   2388481  
  5590.000000   2387524   2386545   2385563   2384601   2383677  
  5580.000000   2382794   2381944   2381108   2380264   2379391  
  5570.000000   2378470   2377485   2376427   2375290   2374082  
  5560.000000   2372818   2371525   2370234   2368968   2367738  
  5550.000000   2366545   2365376   2364223   2363082   2361964  
  5540.000000   2360882   2359853   2358881   2357955   2357056  
  5530.000000   2356156   2355238   2354291   2353316   2352316  
  5520.000000   2351292   2350239   2349150   2348020   2346854  
  5510.000000   2345669   2344486   2343325   2342194   2341087  
  5500.000000   2339987   2338876   2337742   2336586   2335413  
  5490.000000   2334231   2333032   2331801   2330512   2329146  
  5480.000000   2327697   2326183   2324633   2323087   2321565  
  5470.000000   2320078   2318604   2317118   2315584   2313985  
  5460.000000   2312309   2310560   2308742   2306860   2304917  
  5450.000000   2302922   2300887   2298836   2296795   2294790  
  5440.000000   2292834   2290934   2289089   2287301   2285580  
  5430.000000   2283934   2282373   2280886   2279451   2278028  
  5420.000000   2276594   2275132   2273673   2272261   2270969  
  5410.000000   2269839   2268897   2268111   2267448   2266850  
  5400.000000   2266304   2265802   2265382   2265069   2264899  
  5390.000000   2264862   2264957   2265158   2265475   2265916  
  5380.000000   2266533   2267346   2268385   2269615   2271013  
  5370.000000   2272507   2274076   2275681   2277356   2279103  
  5360.000000   2280984   2282998   2285197   2287575   2290200  
  5350.000000   2293090   2296340   2299973   2304068   2308595  
  5340.000000   2313582   2318961   2324754   2330906   2337471  
  5330.000000   2344408   2351773   2359511   2367671   2376199  
  5320.000000   2385179   2394600   2404598   2415177   2426468  
  5310.000000   2438434   2451152   2464535   2478637   2493386  
  5300.000000   2508868   2525056   2542075   2559919   2578704  
  5290.000000   2598389   2619022   2640481   2662723   2685570  
  5280.000000   2708967   2732798   2757109   2781909   2807328  
  5270.000000   2833400   2860166   2887513   2915289   2943268  
  5260.000000   2971267   2999174   3026967   3054705   3082428  
  5250.000000   3110152   3137752   3165073   3191842   3217906  
  5240.000000   3243095   3267463   3291035   3314008   3336437  
  5230.000000   3358454   3379973   3400969   3421232   3440695  
  5220.000000   3459192   3476776   3493415   3509289   3524436  
  5210.000000   3539035   3553059   3566572   3579429   3591615  
  5200.000000   3602971   3613544   3623270   3632287   3640587  
  5190.000000   3648301   3655380   3661889   3667738   3672976  
  5180.000000   3677536   3681504   3684845   3687645   3689853  
  5170.000000   3691522   3692587   3693110   3693059   3692529  
  5160.000000   3691513   3690099   3688256   3686032   3683381  
  5150.000000   3680353   3676937   3673217   3669208   3664984  
  5140.000000   3660533   3655887   3651006   3645918   3640607  
  5130.000000   3635130   3629502   3623778   3617958   3612063  
  5120.000000   3606068   3599985   3593803   3587552   3581245  
  5110.000000   3574912   3568555   3562178   3555765   3549317  
  5100.000000   3542834   3536341   3529862   3523433   3517069  
  5090.000000   3510786   3504578   3498439   3492360   3486338  
  5080.000000   3480365   3474440   3468548   3462674   3456797  
  5070.000000   3450901   3444971   3439005   3432996   3426945  
  5060.000000   3420841   3414675   3408434   3402115   3395716  
  5050.000000   3389250   3382726   3376157   3369543   3362885  
  5040.000000   3356174   3349412   3342604   3335768   3328927  
  5030.000000   3322107   3315329   3308605   3301943   3295345  
  5020.000000   3288818   3282364   3275998   3269720   3263543  
  5010.000000   3257459   3251478   3245589   3239814   3234155  
  5000.000000   3228648   3223302   3218154   3213200   3208470  
  4990.000000   3203948   3199664   3195602   3191798   3188237  
  4980.000000   3184953   3181919   3179156   3176631   3174368  
  4970.000000   3172342   3170595   3169113   3167949   3167086  
  4960.000000   3166572   3166382   3166558   3167072   3167966  
  4950.000000   3169210   3170839   3172812   3175158   3177834  
  4940.000000   3180875   3184252   3188012   3192131   3196646  
  4930.000000   3201511   3206737   3212259   3218086   3224167  
  4920.000000   3230534   3237168   3244114   3251353   3258914  
  4910.000000   3266759   3274893   3283276   3291910   3300764  
  4900.000000   3309838   3319102   3328537   3338103   3347761  
  4890.000000   3357470   3367188   3376882   3386509   3396039  
  4880.000000   3405419   3414617   3423571   3432256   3440614  
  4870.000000   3448633   3456264   3463509   3470327   3476739  
  4860.000000   3482724   3488328   3493549   3498446   3503016  
  4850.000000   3507306   3511302   3515035   3518491   3521709  
  4840.000000   3524690   3527492   3530131   3532664   3535106  
  4830.000000   3537498   3539844   3542168   3544464   3546746  
  4820.000000   3549001   3551230   3553417   3555560   3557650  
  4810.000000   3559693   3561692   3563663   3565613   3567553  
  4800.000000   3569482   3571403   3573310   3575207   3577097  
  4790.000000   3578988   3580889   3582809   3584749   3586713  
  4780.000000   3588690   3590674   3592648   3594602   3596514  
  4770.000000   3598372   3600154   3601853   3603450   3604946  
  4760.000000   3606328   3607600   3608748   3609773   3610659  
  4750.000000   3611409   3612010   3612479   3612816   3613048  
  4740.000000   3613184   3613250   3613248   3613191   3613069  
  4730.000000   3612883   3612612   3612253   3611789   3611219  
  4720.000000   3610543   3609773   3608927   3608031   3607115  
  4710.000000   3606207   3605337   3604527   3603799   3603169  
  4700.000000   3602652   3602259   3602001   3601882   3601905  
  4690.000000   3602062   3602350   3602754   3603269   3603872  
  4680.000000   3604552   3605273   3606007   3606704   3607330  
  4670.000000   3607843   3608234   3608499   3608679   3608814  
  4660.000000   3608976   3609225   3609630   3610233   3611074  
  4650.000000   3612164   3613507   3615084   3616872   3618832  
  4640.000000   3620927   3623119   3625380   3627687   3630029  
  4630.000000   3632391   3634761   3637116   3639424   3641649  
  4620.000000   3643748   3645689   3647446   3649010   3650376  
  4610.000000   3651557   3652556   3653396   3654083   3654647  
  4600.000000   3655100   3655480   3655798   3656088   3656346  
  4590.000000   3656580   3656763   3656881   3656895   3656789  
  4580.000000   3656533   3656127   3655560   3654849   3653999  
  4570.000000   3653037   3651975   3650840   3649642   3648398  
  4560.000000   3647108   3645781   3644409   3642994   3641529  
  4550.000000   3640019   3638463   3636869   3635247   3633606  
  4540.000000   3631961   3630319   3628700   3627111   3625574  
  4530.000000   3624094   3622698   3621389   3620200   3619131  
  4520.000000   3618218   3617452   3616869   3616448   3616228  
  4510.000000   3616188   3616391   3616839   3617630   3618787  
  4500.000000   3620421   3622543   3625242   3628487   3632340  
  4490.000000   3636751   3641783   3647401   3653688   3660624  
  4480.000000   3668292   3676655   3685766   3695555   3706043  
  4470.000000   3717141   3728848   3741068   3753791   3766920  
  4460.000000   3780433   3794239   3808315   3822578   3837006  
  4450.000000   3851531   3866130   3880753   3895378   3909978  
  4440.000000   3924537   3939049   3953496   3967883   3982175  
  4430.000000   3996375   4010427   4024327   4037995   4051423  
  4420.000000   4064512   4077248   4089522   4101318   4112525  
  4410.000000   4123127   4133018   4142187   4150545   4158105  
  4400.000000   4164821   4170757   4175926   4180446   4184382  
  4390.000000   4187877   4191012   4193925   4196682   4199390  
  4380.000000   4202091   4204858   4207716   4210714   4213870  
  4370.000000   4217227   4220803   4224626   4228709   4233054  
  4360.000000   4237647   4242470   4247482   4252654   4257923  
  4350.000000   4263262   4268588   4273886   4279081   4284189  
  4340.000000   4289169   4294056   4298787   4303301   4307379  
  4330.000000   4310751   4313019   4313819   4312833   4309957  
  4320.000000   4305299   4299248   4292345   4285244   4278511  
  4310.000000   4272597   4267704   4263875   4260960   4258777  
  4300.000000   4257109   4255811   4254783   4253978   4253380  
  4290.000000   4252960   4252715   4252610   4252656   4252842  
  4280.000000   4253197   4253728   4254442   4255334   4256374  
  4270.000000   4257545   4258796   4260085   4261309   4262335  
  4260.000000   4262953   4262935   4262045   4260116   4257082  
  4250.000000   4253026   4248148   4242755   4237166   4231697  
  4240.000000   4226560   4221903   4217751   4214090   4210839  
  4230.000000   4207924   4205248   4202730   4200284   4197829  
  4220.000000   4195313   4192687   4189970   4187181   4184411  
  4210.000000   4181727   4179236   4176990   4175048   4173413  
  4200.000000   4172088   4171033   4170226   4169608   4169155  
  4190.000000   4168807   4168553   4168347   4168209   4168114  
  4180.000000   4168114   4168205   4168456   4168876   4169544  
  4170.000000   4170480   4171778   4173467   4175639   4178310  
  4160.000000   4181543   4185311   4189636   4194449   4199755  
  4150.000000   4205474   4211619   4218124   4225021   4232262  
  4140.000000   4239896   4247891   4256310   4265123   4274391  
  4130.000000   4284078   4294227   4304789   4315796   4327203  
  4120.000000   4339048   4351298   4363997   4377119   4390699  
  4110.000000   4404707   4419160   4434012   4449256   4464825  
  4100.000000   4480683   4496749   4512982   4529324   4545766  
  4090.000000   4562302   4578953   4595740   4612672   4629753  
  4080.000000   4646951   4664245   4681579   4698931   4716233  
  4070.000000   4733457   4750507   4767338   4783829   4799942  
  4060.000000   4815574   4830729   4845334   4859427   4872940  
  4050.000000   4885920   4898298   4910136   4921372   4932080  
  4040.000000   4942187   4951749   4960660   4968957   4976528  
  4030.000000   4983429   4989577   4995043   4999757   5003767  
  4020.000000   5006965   5009398   5011025   5011927   5012063  
  4010.000000   5011577   5010546   5009011   5006788   5003956  
  4000.000000   5000813  
##END= 
