##TITLE= Sample 021 By ssteindl date Dienstag, November 20 2018
##JCAMP-DX= 4.24
##DATA TYPE= INFRARED SPECTRUM
##ORIGIN= Exported PE Spectrum Data File
##OWNER= Sandra Steindl
##DATE= 18/11/20
##TIME= 14:44:05.00
##SPECTROMETER/DATA SYSTEM= PERKIN-ELMER Frontier FT-IR/NIR IR
##INSTRUMENT PARAMETERS=
  APODIZATION=stark
  DETECTOR=INGAAS
##RESOLUTION= 16.000000
##DELTAX= -2.000000
##XUNITS= 1/CM
##YUNITS= A
##XFACTOR= 1.00
##YFACTOR= 0.00000011920928955078
##FIRSTX= 10000.00
##LASTX= 4000.00
##NPOINTS= 3001
##FIRSTY= 0.191992
##MAXY= 0.575708
##MINY= 0.172648
##XYDATA= (X++(Y..Y))
 10000.000000   1610544   1606979   1603205   1599100   1595148  
  9990.000000   1592159   1590793   1591383   1593973   1598333  
  9980.000000   1603929   1610084   1616233   1621987   1627152  
  9970.000000   1631555   1635013   1637158   1637629   1636136  
  9960.000000   1632791   1628095   1622930   1618266   1614852  
  9950.000000   1613043   1612679   1613343   1614497   1615854  
  9940.000000   1617374   1619306   1621883   1625161   1628818  
  9930.000000   1632230   1634696   1635700   1635172   1633457  
  9920.000000   1631198   1629009   1627253   1625960   1624870  
  9910.000000   1623718   1622326   1620801   1619366   1618314  
  9900.000000   1617767   1617658   1617729   1617660   1617192  
  9890.000000   1616184   1614571   1612274   1609156   1605079  
  9880.000000   1600071   1594493   1589077   1584769   1582391  
  9870.000000   1582275   1584064   1586759   1589089   1589931  
  9860.000000   1588751   1585734   1581694   1577695   1574653  
  9850.000000   1573015   1572740   1573446   1574735   1576357  
  9840.000000   1578273   1580465   1582795   1584875   1586217  
  9830.000000   1586412   1585400   1583510   1581358   1579568  
  9820.000000   1578502   1578174   1578327   1578745   1579424  
  9810.000000   1580700   1582997   1586553   1591070   1595654  
  9800.000000   1599041   1600026   1598004   1593209   1586710  
  9790.000000   1579964   1574277   1570349   1568123   1567047  
  9780.000000   1566441   1565951   1565631   1565873   1567012  
  9770.000000   1569056   1571530   1573626   1574579   1573974  
  9760.000000   1572012   1569325   1566756   1564913   1563989  
  9750.000000   1563768   1563825   1563860   1563852   1564084  
  9740.000000   1564936   1566636   1569051   1571698   1573872  
  9730.000000   1574944   1574553   1572757   1569960   1566755  
  9720.000000   1563732   1561332   1559807   1559217   1559442  
  9710.000000   1560161   1560857   1560859   1559543   1556539  
  9700.000000   1551966   1546480   1541133   1537058   1535080  
  9690.000000   1535452   1537777   1541208   1544777   1547761  
  9680.000000   1549890   1551324   1552472   1553662   1554991  
  9670.000000   1556203   1556908   1556693   1555412   1553170  
  9660.000000   1550371   1547512   1545093   1543495   1542937  
  9650.000000   1543510   1545160   1547736   1550959   1554476  
  9640.000000   1557883   1560870   1563256   1565116   1566651  
  9630.000000   1568168   1569863   1571793   1573832   1575755  
  9620.000000   1577306   1578266   1578430   1577582   1575454  
  9610.000000   1571784   1566441   1559564   1551671   1543605  
  9600.000000   1536345   1530730   1527155   1525500   1525164  
  9590.000000   1525424   1525696   1525847   1526140   1527077  
  9580.000000   1529066   1532144   1535950   1539768   1542889  
  9570.000000   1544755   1545206   1544354   1542521   1540022  
  9560.000000   1537126   1534073   1531154   1528799   1527480  
  9550.000000   1527585   1529148   1531784   1534710   1537034  
  9540.000000   1538069   1537586   1535892   1533642   1531577  
  9530.000000   1530160   1529456   1529139   1528746   1527969  
  9520.000000   1526824   1525692   1525064   1525367   1526664  
  9510.000000   1528733   1531095   1533288   1534970   1535986  
  9500.000000   1536315   1535926   1534734   1532569   1529290  
  9490.000000   1524900   1519642   1513981   1508494   1503700  
  9480.000000   1499932   1497294   1495679   1494901   1494716  
  9470.000000   1494906   1495233   1495463   1495408   1494974  
  9460.000000   1494275   1493566   1493227   1493511   1494473  
  9450.000000   1495798   1496987   1497460   1496937   1495512  
  9440.000000   1493720   1492267   1491743   1492359   1493870  
  9430.000000   1495769   1497540   1498991   1500310   1502034  
  9420.000000   1504702   1508584   1513408   1518430   1522671  
  9410.000000   1525286   1525886   1524595   1521954   1518617  
  9400.000000   1515086   1511588   1508088   1504532   1500999  
  9390.000000   1497838   1495543   1494538   1494928   1496403  
  9380.000000   1498305   1499858   1500435   1499756   1497986  
  9370.000000   1495621   1493329   1491713   1491188   1491948  
  9360.000000   1493969   1497093   1500997   1505241   1509269  
  9350.000000   1512506   1514483   1514935   1513898   1511650  
  9340.000000   1508638   1505271   1501806   1498271   1494575  
  9330.000000   1490691   1486816   1483419   1481090   1480339  
  9320.000000   1481335   1483800   1487022   1490075   1492137  
  9310.000000   1492766   1492060   1490566   1489058   1488258  
  9300.000000   1488599   1490153   1492645   1495616   1498584  
  9290.000000   1501171   1503144   1504380   1504779   1504237  
  9280.000000   1502614   1499848   1496011   1491391   1486465  
  9270.000000   1481808   1477968   1475328   1473986   1473731  
  9260.000000   1474061   1474359   1474075   1472868   1470741  
  9250.000000   1467983   1465158   1462847   1461521   1461340  
  9240.000000   1462177   1463666   1465388   1467033   1468532  
  9230.000000   1470076   1472017   1474680   1478170   1482278  
  9220.000000   1486485   1490083   1492399   1492999   1491890  
  9210.000000   1489481   1486491   1483711   1481781   1481004  
  9200.000000   1481225   1481975   1482600   1482571   1481611  
  9190.000000   1479867   1477822   1476166   1475492   1476078  
  9180.000000   1477759   1479955   1481892   1482801   1482210  
  9170.000000   1480082   1476852   1473258   1470088   1467975  
  9160.000000   1467267   1467953   1469732   1472117   1474607  
  9150.000000   1476764   1478240   1478834   1478467   1477268  
  9140.000000   1475518   1473670   1472251   1471763   1472536  
  9130.000000   1474546   1477377   1480292   1482436   1483040  
  9120.000000   1481621   1478163   1473160   1467468   1462058  
  9110.000000   1457790   1455236   1454574   1455558   1457648  
  9100.000000   1460172   1462527   1464274   1465235   1465458  
  9090.000000   1465163   1464626   1464083   1463702   1463527  
  9080.000000   1463544   1463657   1463763   1463771   1463620  
  9070.000000   1463282   1462741   1462016   1461178   1460329  
  9060.000000   1459579   1458992   1458556   1458176   1457703  
  9050.000000   1457004   1456057   1454995   1454113   1453768  
  9040.000000   1454265   1455705   1457907   1460442   1462733  
  9030.000000   1464283   1464816   1464427   1463526   1462712  
  9020.000000   1462554   1463397   1465245   1467716   1470160  
  9010.000000   1471840   1472165   1470823   1467849   1463654  
  9000.000000   1458933   1454525   1451191   1449484   1449616  
  8990.000000   1451402   1454283   1457474   1460186   1461815  
  8980.000000   1462083   1461104   1459331   1457393   1455892  
  8970.000000   1455232   1455546   1456708   1458417   1460329  
  8960.000000   1462152   1463714   1464925   1465756   1466175  
  8950.000000   1466134   1465586   1464493   1462898   1460883  
  8940.000000   1458609   1456241   1453946   1451875   1450150  
  8930.000000   1448913   1448274   1448355   1449207   1450804  
  8920.000000   1452997   1455523   1458051   1460215   1461729  
  8910.000000   1462399   1462231   1461357   1460061   1458664  
  8900.000000   1457495   1456799   1456686   1457148   1458060  
  8890.000000   1459272   1460616   1462009   1463417   1464867  
  8880.000000   1466351   1467812   1469116   1470070   1470500  
  8870.000000   1470284   1469458   1468152   1466591   1464974  
  8860.000000   1463447   1462065   1460814   1459690   1458728  
  8850.000000   1458063   1457860   1458287   1459414   1461187  
  8840.000000   1463425   1465863   1468244   1470347   1472060  
  8830.000000   1473305   1474067   1474326   1474124   1473548  
  8820.000000   1472798   1472140   1471896   1472315   1473508  
  8810.000000   1475377   1477635   1479905   1481828   1483214  
  8800.000000   1484064   1484592   1485099   1485897   1487193  
  8790.000000   1489047   1491368   1493934   1496452   1498606  
  8780.000000   1500099   1500716   1500355   1499096   1497207  
  8770.000000   1495124   1493345   1492286   1492163   1492893  
  8760.000000   1494133   1495369   1496117   1496077   1495254  
  8750.000000   1493926   1492552   1491603   1491429   1492173  
  8740.000000   1493786   1496094   1498911   1502085   1505515  
  8730.000000   1509108   1512733   1516194   1519258   1521706  
  8720.000000   1523419   1524399   1524793   1524803   1524647  
  8710.000000   1524481   1524392   1524415   1524570   1524888  
  8700.000000   1525415   1526191   1527200   1528361   1529532  
  8690.000000   1530571   1531401   1532054   1532694   1533552  
  8680.000000   1534854   1536731   1539166   1542001   1544975  
  8670.000000   1547837   1550418   1552685   1554737   1556731  
  8660.000000   1558805   1560983   1563147   1565039   1566339  
  8650.000000   1566785   1566279   1564977   1563267   1561706  
  8640.000000   1560850   1561092   1562509   1564837   1567529  
  8630.000000   1569940   1571522   1572004   1571465   1570303  
  8620.000000   1569088   1568376   1568538   1569669   1571617  
  8610.000000   1574061   1576660   1579129   1581294   1583071  
  8600.000000   1584415   1585303   1585724   1585725   1585446  
  8590.000000   1585112   1585005   1585347   1586235   1587568  
  8580.000000   1589085   1590443   1591346   1591660   1591455  
  8570.000000   1590968   1590499   1590310   1590553   1591264  
  8560.000000   1592410   1593949   1595872   1598181   1600838  
  8550.000000   1603702   1606527   1608997   1610831   1611890  
  8540.000000   1612252   1612199   1612125   1612390   1613190  
  8530.000000   1614519   1616193   1617970   1619639   1621103  
  8520.000000   1622372   1623506   1624528   1625376   1625921  
  8510.000000   1626041   1625727   1625116   1624505   1624234  
  8500.000000   1624584   1625663   1627362   1629431   1631559  
  8490.000000   1633539   1635301   1636953   1638678   1640639  
  8480.000000   1642876   1645271   1647600   1649579   1650983  
  8470.000000   1651662   1651607   1650902   1649712   1648244  
  8460.000000   1646737   1645452   1644641   1644517   1645173  
  8450.000000   1646583   1648558   1650833   1653100   1655139  
  8440.000000   1656846   1658265   1659526   1660758   1662037  
  8430.000000   1663317   1664493   1665402   1665928   1666016  
  8420.000000   1665701   1665085   1664291   1663463   1662732  
  8410.000000   1662264   1662217   1662751   1663941   1665764  
  8400.000000   1668035   1670441   1672582   1674096   1674758  
  8390.000000   1674541   1673609   1672252   1670811   1669557  
  8380.000000   1668647   1668099   1667842   1667755   1667714  
  8370.000000   1667616   1667391   1667017   1666518   1665968  
  8360.000000   1665490   1665236   1665356   1665938   1666968  
  8350.000000   1668316   1669775   1671118   1672176   1672894  
  8340.000000   1673343   1673680   1674071   1674613   1675298  
  8330.000000   1676005   1676546   1676742   1676488   1675795  
  8320.000000   1674777   1673624   1672535   1671685   1671169  
  8310.000000   1671000   1671104   1671358   1671611   1671729  
  8300.000000   1671614   1671246   1670677   1670033   1669462  
  8290.000000   1669093   1668988   1669122   1669393   1669647  
  8280.000000   1669740   1669574   1669132   1668472   1667693  
  8270.000000   1666901   1666174   1665548   1665016   1664556  
  8260.000000   1664137   1663748   1663388   1663072   1662809  
  8250.000000   1662610   1662469   1662378   1662307   1662216  
  8240.000000   1662049   1661750   1661268   1660589   1659734  
  8230.000000   1658773   1657807   1656929   1656190   1655568  
  8220.000000   1654974   1654267   1653310   1652007   1650351  
  8210.000000   1648439   1646453   1644627   1643173   1642247  
  8200.000000   1641889   1642040   1642534   1643163   1643711  
  8190.000000   1644016   1643995   1643651   1643045   1642259  
  8180.000000   1641360   1640367   1639273   1638037   1636643  
  8170.000000   1635106   1633493   1631896   1630389   1629019  
  8160.000000   1627768   1626605   1625492   1624456   1623564  
  8150.000000   1622935   1622657   1622741   1623067   1623399  
  8140.000000   1623446   1622951   1621791   1619998   1617762  
  8130.000000   1615337   1612966   1610793   1608849   1607073  
  8120.000000   1605385   1603748   1602208   1600880   1599889  
  8110.000000   1599322   1599159   1599299   1599566   1599794  
  8100.000000   1599862   1599726   1599425   1599030   1598620  
  8090.000000   1598227   1597838   1597374   1596727   1595778  
  8080.000000   1594434   1592657   1590482   1588037   1585520  
  8070.000000   1583179   1581240   1579870   1579114   1578887  
  8060.000000   1579000   1579207   1579287   1579089   1578568  
  8050.000000   1577764   1576774   1575697   1574620   1573604  
  8040.000000   1572708   1571998   1571550   1571425   1571626  
  8030.000000   1572077   1572607   1573006   1573067   1572670  
  8020.000000   1571823   1570646   1569335   1568067   1566949  
  8010.000000   1565963   1565004   1563923   1562613   1561066  
  8000.000000   1559391   1557791   1556486   1555662   1555390  
  7990.000000   1555634   1556249   1557041   1557815   1558427  
  7980.000000   1558807   1558955   1558924   1558773   1558544  
  7970.000000   1558230   1557787   1557146   1556255   1555110  
  7960.000000   1553782   1552404   1551144   1550150   1549501  
  7950.000000   1549174   1549043   1548928   1548645   1548083  
  7940.000000   1547236   1546218   1545226   1544481   1544164  
  7930.000000   1544355   1545020   1546003   1547080   1547989  
  7920.000000   1548511   1548493   1547908   1546844   1545502  
  7910.000000   1544150   1543060   1542453   1542442   1543017  
  7900.000000   1544050   1545347   1546690   1547902   1548855  
  7890.000000   1549493   1549804   1549803   1549520   1548994  
  7880.000000   1548286   1547478   1546673   1545971   1545443  
  7870.000000   1545105   1544904   1544753   1544542   1544208  
  7860.000000   1543729   1543156   1542569   1542053   1541666  
  7850.000000   1541416   1541276   1541187   1541091   1540933  
  7840.000000   1540677   1540299   1539798   1539200   1538568  
  7830.000000   1538007   1537642   1537590   1537912   1538585  
  7820.000000   1539487   1540427   1541196   1541623   1541631  
  7810.000000   1541239   1540551   1539695   1538781   1537870  
  7800.000000   1536975   1536096   1535240   1534472   1533875  
  7790.000000   1533555   1533559   1533867   1534357   1534841  
  7780.000000   1535105   1534966   1534317   1533144   1531533  
  7770.000000   1529635   1527647   1525770   1524182   1523000  
  7760.000000   1522264   1521921   1521827   1521783   1521584  
  7750.000000   1521085   1520244   1519146   1517980   1516975  
  7740.000000   1516325   1516122   1516324   1516775   1517269  
  7730.000000   1517610   1517690   1517496   1517105   1516616  
  7720.000000   1516109   1515594   1515023   1514317   1513430  
  7710.000000   1512375   1511253   1510220   1509441   1509039  
  7700.000000   1509040   1509382   1509915   1510469   1510891  
  7690.000000   1511090   1511053   1510819   1510461   1510035  
  7680.000000   1509567   1509041   1508426   1507695   1506862  
  7670.000000   1505990   1505188   1504584   1504287   1504351  
  7660.000000   1504747   1505367   1506041   1506585   1506850  
  7650.000000   1506753   1506310   1505611   1504806   1504047  
  7640.000000   1503465   1503127   1503045   1503175   1503442  
  7630.000000   1503768   1504083   1504344   1504526   1504625  
  7620.000000   1504647   1504610   1504543   1504478   1504451  
  7610.000000   1504480   1504569   1504692   1504811   1504880  
  7600.000000   1504874   1504799   1504694   1504618   1504634  
  7590.000000   1504776   1505044   1505399   1505780   1506133  
  7580.000000   1506435   1506700   1506979   1507330   1507794  
  7570.000000   1508368   1509008   1509634   1510169   1510563  
  7560.000000   1510821   1510997   1511182   1511471   1511938  
  7550.000000   1512607   1513451   1514396   1515352   1516230  
  7540.000000   1516980   1517583   1518073   1518502   1518945  
  7530.000000   1519458   1520081   1520815   1521639   1522514  
  7520.000000   1523416   1524341   1525322   1526416   1527686  
  7510.000000   1529170   1530866   1532708   1534596   1536400  
  7500.000000   1538014   1539366   1540461   1541348   1542125  
  7490.000000   1542886   1543717   1544657   1545724   1546903  
  7480.000000   1548183   1549553   1551020   1552596   1554291  
  7470.000000   1556100   1558007   1559980   1561992   1564022  
  7460.000000   1566072   1568154   1570289   1572484   1574728  
  7450.000000   1576979   1579183   1581279   1583233   1585040  
  7440.000000   1586742   1588406   1590107   1591891   1593764  
  7430.000000   1595683   1597579   1599383   1601067   1602660  
  7420.000000   1604249   1605951   1607870   1610059   1612495  
  7410.000000   1615085   1617703   1620224   1622574   1624736  
  7400.000000   1626751   1628686   1630602   1632529   1634465  
  7390.000000   1636386   1638270   1640108   1641913   1643708  
  7380.000000   1645514   1647336   1649168   1651002   1652840  
  7370.000000   1654704   1656629   1658649   1660777   1662993  
  7360.000000   1665255   1667514   1669736   1671917   1674077  
  7350.000000   1676247   1678437   1680630   1682771   1684805  
  7340.000000   1686694   1688449   1690117   1691767   1693442  
  7330.000000   1695149   1696835   1698427   1699857   1701108  
  7320.000000   1702218   1703279   1704383   1705597   1706916  
  7310.000000   1708288   1709625   1710863   1711985   1713033  
  7300.000000   1714085   1715208   1716422   1717680   1718881  
  7290.000000   1719916   1720713   1721276   1721686   1722084  
  7280.000000   1722615   1723403   1724510   1725929   1727590  
  7270.000000   1729376   1731153   1732781   1734148   1735172  
  7260.000000   1735832   1736168   1736291   1736350   1736522  
  7250.000000   1736949   1737728   1738870   1740323   1741975  
  7240.000000   1743710   1745422   1747059   1748604   1750089  
  7230.000000   1751549   1753046   1754617   1756317   1758173  
  7220.000000   1760219   1762457   1764881   1767443   1770092  
  7210.000000   1772757   1775399   1777985   1780535   1783073  
  7200.000000   1785655   1788312   1791084   1793972   1796985  
  7190.000000   1800107   1803333   1806641   1810023   1813450  
  7180.000000   1816913   1820390   1823887   1827406   1830971  
  7170.000000   1834594   1838301   1842092   1845984   1849971  
  7160.000000   1854064   1858254   1862543   1866905   1871322  
  7150.000000   1875755   1880195   1884633   1889107   1893656  
  7140.000000   1898345   1903203   1908246   1913434   1918727  
  7130.000000   1924055   1929387   1934696   1940006   1945335  
  7120.000000   1950730   1956209   1961800   1967501   1973317  
  7110.000000   1979229   1985230   1991293   1997410   2003570  
  7100.000000   2009802   2016144   2022666   2029414   2036408  
  7090.000000   2043591   2050856   2058044   2065018   2071690  
  7080.000000   2078077   2084276   2090452   2096755   2103281  
  7070.000000   2110024   2116900   2123775   2130540   2137143  
  7060.000000   2143616   2150043   2156523   2163120   2169840  
  7050.000000   2176633   2183419   2190132   2196746   2203284  
  7040.000000   2209798   2216347   2222962   2229643   2236346  
  7030.000000   2243023   2249616   2256090   2262422   2268611  
  7020.000000   2274657   2280569   2286344   2291988   2297489  
  7010.000000   2302848   2308052   2313108   2318018   2322820  
  7000.000000   2327544   2332250   2336962   2341702   2346436  
  6990.000000   2351118   2355672   2360055   2364240   2368259  
  6980.000000   2372153   2375988   2379786   2383552   2387237  
  6970.000000   2390800   2394192   2397417   2400497   2403491  
  6960.000000   2406437   2409368   2412260   2415084   2417784  
  6950.000000   2420335   2422721   2424968   2427099   2429157  
  6940.000000   2431155   2433113   2435021   2436886   2438697  
  6930.000000   2440459   2442162   2443802   2445360   2446830  
  6920.000000   2448199   2449474   2450659   2451772   2452820  
  6910.000000   2453819   2454781   2455732   2456701   2457730  
  6900.000000   2458839   2460034   2461281   2462525   2463696  
  6890.000000   2464736   2465618   2466356   2466992   2467590  
  6880.000000   2468202   2468870   2469605   2470410   2471275  
  6870.000000   2472187   2473123   2474056   2474941   2475732  
  6860.000000   2476391   2476904   2477292   2477606   2477907  
  6850.000000   2478248   2478649   2479103   2479578   2480054  
  6840.000000   2480528   2481037   2481631   2482357   2483223  
  6830.000000   2484193   2485188   2486116   2486900   2487510  
  6820.000000   2487960   2488300   2488588   2488866   2489143  
  6810.000000   2489409   2489633   2489800   2489901   2489951  
  6800.000000   2489964   2489963   2489948   2489922   2489871  
  6790.000000   2489786   2489650   2489450   2489164   2488775  
  6780.000000   2488273   2487673   2487011   2486354   2485767  
  6770.000000   2485309   2484996   2484814   2484709   2484629  
  6760.000000   2484526   2484385   2484213   2484029   2483839  
  6750.000000   2483623   2483341   2482939   2482376   2481642  
  6740.000000   2480761   2479789   2478792   2477835   2476960  
  6730.000000   2476191   2475531   2474973   2474497   2474079  
  6720.000000   2473682   2473269   2472802   2472258   2471636  
  6710.000000   2470958   2470257   2469566   2468898   2468241  
  6700.000000   2467560   2466814   2465969   2465021   2463986  
  6690.000000   2462910   2461834   2460798   2459818   2458899  
  6680.000000   2458025   2457180   2456337   2455475   2454567  
  6670.000000   2453595   2452540   2451404   2450197   2448947  
  6660.000000   2447677   2446406   2445128   2443819   2442444  
  6650.000000   2440971   2439384   2437695   2435933   2434143  
  6640.000000   2432364   2430632   2428963   2427369   2425848  
  6630.000000   2424398   2423000   2421633   2420259   2418843  
  6620.000000   2417355   2415794   2414180   2412556   2410965  
  6610.000000   2409439   2407972   2406534   2405073   2403548  
  6600.000000   2401942   2400273   2398585   2396924   2395317  
  6590.000000   2393757   2392204   2390604   2388912   2387109  
  6580.000000   2385215   2383275   2381353   2379502   2377759  
  6570.000000   2376139   2374636   2373235   2371917   2370663  
  6560.000000   2369455   2368274   2367105   2365932   2364742  
  6550.000000   2363526   2362279   2360996   2359680   2358336  
  6540.000000   2356986   2355657   2354388   2353206   2352122  
  6530.000000   2351113   2350134   2349121   2348024   2346820  
  6520.000000   2345529   2344208   2342928   2341751   2340707  
  6510.000000   2339784   2338941   2338125   2337289   2336409  
  6500.000000   2335483   2334521   2333531   2332517   2331474  
  6490.000000   2330397   2329294   2328180   2327083   2326024  
  6480.000000   2325011   2324033   2323064   2322077   2321054  
  6470.000000   2319994   2318910   2317823   2316753   2315705  
  6460.000000   2314683   2313684   2312711   2311771   2310872  
  6450.000000   2310018   2309200   2308397   2307587   2306755  
  6440.000000   2305906   2305062   2304254   2303509   2302837  
  6430.000000   2302221   2301630   2301020   2300364   2299648  
  6420.000000   2298883   2298086   2297284   2296492   2295724  
  6410.000000   2294988   2294294   2293658   2293092   2292605  
  6400.000000   2292188   2291822   2291476   2291124   2290748  
  6390.000000   2290343   2289916   2289470   2289005   2288509  
  6380.000000   2287967   2287367   2286709   2286009   2285291  
  6370.000000   2284581   2283893   2283228   2282577   2281928  
  6360.000000   2281276   2280626   2279988   2279375   2278786  
  6350.000000   2278214   2277641   2277056   2276450   2275828  
  6340.000000   2275201   2274574   2273945   2273302   2272628  
  6330.000000   2271911   2271149   2270359   2269556   2268761  
  6320.000000   2267979   2267204   2266416   2265601   2264743  
  6310.000000   2263844   2262906   2261934   2260919   2259852  
  6300.000000   2258711   2257492   2256196   2254847   2253466  
  6290.000000   2252076   2250683   2249283   2247857   2246396  
  6280.000000   2244887   2243336   2241744   2240112   2238428  
  6270.000000   2236678   2234848   2232945   2230990   2229025  
  6260.000000   2227090   2225210   2223378   2221563   2219714  
  6250.000000   2217794   2215786   2213713   2211615   2209544  
  6240.000000   2207527   2205569   2203642   2201708   2199732  
  6230.000000   2197697   2195607   2193485   2191351   2189220  
  6220.000000   2187092   2184961   2182819   2180666   2178508  
  6210.000000   2176361   2174238   2172146   2170089   2168061  
  6200.000000   2166056   2164069   2162095   2160127   2158156  
  6190.000000   2156175   2154184   2152197   2150242   2148352  
  6180.000000   2146558   2144872   2143283   2141754   2140244  
  6170.000000   2138713   2137148   2135557   2133966   2132404  
  6160.000000   2130890   2129419   2127970   2126514   2125033  
  6150.000000   2123521   2121992   2120469   2118972   2117516  
  6140.000000   2116102   2114725   2113379   2112062   2110773  
  6130.000000   2109509   2108260   2107008   2105737   2104437  
  6120.000000   2103118   2101802   2100525   2099313   2098178  
  6110.000000   2097100   2096046   2094968   2093836   2092640  
  6100.000000   2091412   2090201   2089072   2088076   2087248  
  6090.000000   2086585   2086071   2085660   2085319   2085006  
  6080.000000   2084711   2084424   2084161   2083934   2083770  
  6070.000000   2083674   2083658   2083705   2083810   2083949  
  6060.000000   2084126   2084340   2084619   2084984   2085468  
  6050.000000   2086071   2086795   2087609   2088490   2089409  
  6040.000000   2090369   2091375   2092462   2093653   2094978  
  6030.000000   2096435   2098025   2099721   2101512   2103372  
  6020.000000   2105293   2107253   2109239   2111218   2113169  
  6010.000000   2115062   2116893   2118661   2120392   2122109  
  6000.000000   2123843   2125608   2127414   2129250   2131111  
  5990.000000   2132987   2134880   2136795   2138754   2140774  
  5980.000000   2142880   2145090   2147418   2149861   2152411  
  5970.000000   2155036   2157706   2160376   2163015   2165600  
  5960.000000   2168133   2170625   2173109   2175609   2178155  
  5950.000000   2180756   2183421   2186140   2188908   2191712  
  5940.000000   2194544   2197390   2200241   2203088   2205933  
  5930.000000   2208780   2211647   2214549   2217499   2220492  
  5920.000000   2223512   2226528   2229507   2232420   2235252  
  5910.000000   2238003   2240683   2243309   2245893   2248445  
  5900.000000   2250974   2253496   2256026   2258587   2261189  
  5890.000000   2263837   2266510   2269178   2271801   2274348  
  5880.000000   2276803   2279168   2281455   2283681   2285854  
  5870.000000   2287969   2290017   2291988   2293886   2295728  
  5860.000000   2297545   2299369   2301226   2303127   2305079  
  5850.000000   2307080   2309138   2311267   2313489   2315825  
  5840.000000   2318286   2320867   2323549   2326301   2329094  
  5830.000000   2331898   2334689   2337446   2340146   2342769  
  5820.000000   2345296   2347722   2350049   2352295   2354470  
  5810.000000   2356586   2358626   2360576   2362393   2364068  
  5800.000000   2365582   2366977   2368273   2369532   2370761  
  5790.000000   2371977   2373129   2374173   2375018   2375602  
  5780.000000   2375840   2375684   2375082   2374026   2372520  
  5770.000000   2370623   2368416   2366024   2363568   2361171  
  5760.000000   2358909   2356833   2354948   2353247   2351712  
  5750.000000   2350339   2349125   2348073   2347177   2346414  
  5740.000000   2345755   2345160   2344611   2344088   2343601  
  5730.000000   2343147   2342736   2342349   2341974   2341585  
  5720.000000   2341175   2340744   2340320   2339928   2339601  
  5710.000000   2339355   2339201   2339134   2339152   2339249  
  5700.000000   2339422   2339660   2339945   2340250   2340541  
  5690.000000   2340795   2341003   2341179   2341351   2341557  
  5680.000000   2341814   2342127   2342464   2342781   2343012  
  5670.000000   2343105   2343004   2342680   2342108   2341289  
  5660.000000   2340231   2338974   2337567   2336084   2334590  
  5650.000000   2333151   2331798   2330548   2329384   2328288  
  5640.000000   2327235   2326216   2325228   2324273   2323351  
  5630.000000   2322452   2321562   2320663   2319751   2318825  
  5620.000000   2317902   2316996   2316121   2315279   2314469  
  5610.000000   2313686   2312928   2312200   2311506   2310849  
  5600.000000   2310217   2309593   2308952   2308274   2307550  
  5590.000000   2306790   2306007   2305217   2304422   2303611  
  5580.000000   2302760   2301848   2300861   2299805   2298699  
  5570.000000   2297572   2296444   2295323   2294206   2293083  
  5560.000000   2291942   2290784   2289615   2288447   2287292  
  5550.000000   2286159   2285052   2283978   2282945   2281965  
  5540.000000   2281047   2280194   2279393   2278619   2277841  
  5530.000000   2277031   2276172   2275263   2274313   2273331  
  5520.000000   2272323   2271287   2270219   2269119   2267999  
  5510.000000   2266882   2265790   2264739   2263724   2262726  
  5500.000000   2261711   2260658   2259554   2258415   2257263  
  5490.000000   2256127   2255013   2253909   2252782   2251601  
  5480.000000   2250335   2248981   2247548   2246056   2244520  
  5470.000000   2242948   2241335   2239677   2237973   2236237  
  5460.000000   2234479   2232716   2230942   2229146   2227303  
  5450.000000   2225398   2223429   2221417   2219396   2217403  
  5440.000000   2215460   2213571   2211733   2209933   2208176  
  5430.000000   2206468   2204827   2203254   2201739   2200246  
  5420.000000   2198751   2197232   2195717   2194254   2192925  
  5410.000000   2191785   2190871   2190153   2189585   2189092  
  5400.000000   2188638   2188197   2187802   2187480   2187285  
  5390.000000   2187223   2187307   2187511   2187843   2188299  
  5380.000000   2188919   2189721   2190738   2191949   2193338  
  5370.000000   2194842   2196441   2198091   2199819   2201617  
  5360.000000   2203542   2205587   2207805   2210184   2212787  
  5350.000000   2215625   2218788   2222299   2226246   2230618  
  5340.000000   2235466   2240745   2246496   2252671   2259321  
  5330.000000   2266391   2273922   2281834   2290158   2298823  
  5320.000000   2307905   2317385   2327400   2337961   2349215  
  5310.000000   2361145   2373852   2387272   2401471   2416377  
  5300.000000   2432061   2448468   2465690   2483693   2502577  
  5290.000000   2522300   2542927   2564362   2586586   2609444  
  5280.000000   2632883   2656780   2681161   2706017   2731459  
  5270.000000   2757515   2784217   2811456   2839063   2866802  
  5260.000000   2894459   2921898   2949070   2976031   3002831  
  5250.000000   3029527   3056040   3082276   3107999   3133075  
  5240.000000   3157318   3180745   3203322   3225196   3246377  
  5230.000000   3266990   3286965   3306331   3324937   3342786  
  5220.000000   3359752   3375907   3391204   3405785   3419637  
  5210.000000   3432891   3445485   3457475   3468730   3479267  
  5200.000000   3488960   3497878   3505968   3513356   3520018  
  5190.000000   3526063   3531435   3536202   3540296   3543798  
  5180.000000   3546676   3549041   3550873   3552259   3553134  
  5170.000000   3553535   3553381   3552718   3551511   3549857  
  5160.000000   3547760   3545318   3542510   3539388   3535901  
  5150.000000   3532087   3527919   3523459   3518709   3513734  
  5140.000000   3508522   3503108   3497468   3491633   3485604  
  5130.000000   3479439   3473162   3466832   3460455   3454055  
  5120.000000   3447612   3441131   3434599   3428036   3421447  
  5110.000000   3414857   3408265   3401680   3395091   3388500  
  5100.000000   3381903   3375314   3368743   3362203   3355694  
  5090.000000   3349216   3342758   3336319   3329901   3323518  
  5080.000000   3317181   3310906   3304689   3298522   3292379  
  5070.000000   3286239   3280073   3273871   3267619   3261318  
  5060.000000   3254963   3248554   3242085   3235557   3228971  
  5050.000000   3222338   3215669   3208977   3202274   3195569  
  5040.000000   3188863   3182164   3175474   3168801   3162154  
  5030.000000   3155540   3148969   3142446   3135982   3129583  
  5020.000000   3123268   3117045   3110936   3104940   3099071  
  5010.000000   3093313   3087672   3082133   3076716   3071421  
  5000.000000   3066285   3061316   3056551   3051982   3047630  
  4990.000000   3043470   3039520   3035754   3032203   3028851  
  4980.000000   3025734   3022835   3020190   3017776   3015635  
  4970.000000   3013755   3012191   3010938   3010053   3009517  
  4960.000000   3009364   3009554   3010107   3010976   3012190  
  4950.000000   3013717   3015598   3017805   3020375   3023269  
  4940.000000   3026511   3030052   3033916   3038055   3042497  
  4930.000000   3047200   3052191   3057431   3062951   3068720  
  4920.000000   3074775   3081092   3087707   3094593   3101774  
  4910.000000   3109215   3116928   3124877   3133066   3141461  
  4900.000000   3150054   3158808   3167704   3176707   3185796  
  4890.000000   3194944   3204129   3213326   3222495   3231598  
  4880.000000   3240575   3249389   3257988   3266359   3274474  
  4870.000000   3282339   3289926   3297235   3304220   3310874  
  4860.000000   3317160   3323095   3328676   3333957   3338956  
  4850.000000   3343731   3348288   3352667   3356854   3360880  
  4840.000000   3364732   3368442   3372005   3375451   3378772  
  4830.000000   3381991   3385095   3388106   3391018   3393853  
  4820.000000   3396609   3399296   3401900   3404421   3406841  
  4810.000000   3409165   3411389   3413536   3415617   3417658  
  4800.000000   3419669   3421665   3423643   3425610   3427559  
  4790.000000   3429500   3431428   3433353   3435269   3437178  
  4780.000000   3439069   3440941   3442782   3444593   3446360  
  4770.000000   3448081   3449736   3451312   3452779   3454124  
  4760.000000   3455323   3456373   3457265   3458014   3458618  
  4750.000000   3459102   3459465   3459724   3459871   3459914  
  4740.000000   3459835   3459633   3459287   3458796   3458147  
  4730.000000   3457349   3456403   3455328   3454136   3452850  
  4720.000000   3451480   3450048   3448566   3447052   3445525  
  4710.000000   3444008   3442520   3441084   3439713   3438421  
  4700.000000   3437215   3436102   3435086   3434175   3433376  
  4690.000000   3432689   3432114   3431634   3431233   3430875  
  4680.000000   3430532   3430165   3429751   3429262   3428694  
  4670.000000   3428038   3427313   3426532   3425730   3424934  
  4660.000000   3424187   3423522   3422984   3422603   3422420  
  4650.000000   3422455   3422731   3423245   3423988   3424928  
  4640.000000   3426028   3427237   3428515   3429825   3431151  
  4630.000000   3432479   3433808   3435134   3436446   3437727  
  4620.000000   3438951   3440092   3441127   3442042   3442827  
  4610.000000   3443486   3444019   3444436   3444743   3444961  
  4600.000000   3445104   3445204   3445281   3445367   3445469  
  4590.000000   3445596   3445731   3445867   3445972   3446035  
  4580.000000   3446032   3445956   3445786   3445518   3445133  
  4570.000000   3444630   3444001   3443257   3442410   3441481  
  4560.000000   3440490   3439459   3438399   3437323   3436233  
  4550.000000   3435135   3434031   3432926   3431824   3430729  
  4540.000000   3429648   3428586   3427560   3426576   3425658  
  4530.000000   3424805   3424035   3423333   3422714   3422160  
  4520.000000   3421706   3421351   3421157   3421138   3421373  
  4510.000000   3421872   3422711   3423889   3425486   3427499  
  4500.000000   3430010   3433009   3436570   3440659   3445337  
  4490.000000   3450559   3456394   3462815   3469910   3477664  
  4480.000000   3486154   3495339   3505247   3515793   3526966  
  4470.000000   3538665   3550874   3563506   3576551   3589930  
  4460.000000   3603622   3617538   3631640   3645838   3660093  
  4450.000000   3674341   3688561   3702723   3716819   3730840  
  4440.000000   3744772   3758615   3772340   3785952   3799409  
  4430.000000   3812722   3825836   3838764   3851434   3863854  
  4420.000000   3875939   3887693   3899017   3909911   3920262  
  4410.000000   3930057   3939171   3947578   3955163   3961921  
  4400.000000   3967784   3972803   3976978   3980417   3983175  
  4390.000000   3985389   3987137   3988561   3989742   3990808  
  4380.000000   3991833   3992918   3994121   3995518   3997157  
  4370.000000   3999096   4001377   4004038   4007103   4010573  
  4360.000000   4014440   4018665   4023206   4028009   4033012  
  4350.000000   4038167   4043403   4048694   4053985   4059286  
  4340.000000   4064579   4069895   4075195   4080420   4085376  
  4330.000000   4089798   4093306   4095528   4096133   4094981  
  4320.000000   4092129   4087900   4082774   4077352   4072166  
  4310.000000   4067659   4064045   4061393   4059580   4058452  
  4300.000000   4057802   4057486   4057388   4057444   4057609  
  4290.000000   4057841   4058116   4058397   4058686   4058978  
  4280.000000   4059302   4059674   4060107   4060607   4061158  
  4270.000000   4061761   4062394   4063049   4063666   4064164  
  4260.000000   4064381   4064130   4063197   4061417   4058702  
  4250.000000   4055094   4050743   4045910   4040878   4035937  
  4240.000000   4031296   4027100   4023379   4020123   4017251  
  4230.000000   4014687   4012338   4010122   4007959   4005775  
  4220.000000   4003518   4001138   3998643   3996048   3993434  
  4210.000000   3990865   3988446   3986232   3984284   3982605  
  4200.000000   3981197   3980018   3979044   3978220   3977526  
  4190.000000   3976910   3976367   3975857   3975397   3974967  
  4180.000000   3974616   3974343   3974221   3974263   3974553  
  4170.000000   3975112   3976034   3977345   3979142   3981445  
  4160.000000   3984331   3987782   3991836   3996431   4001577  
  4150.000000   4007192   4013288   4019788   4026718   4034019  
  4140.000000   4041736   4049826   4058350   4067278   4076678  
  4130.000000   4086516   4096843   4107609   4118841   4130484  
  4120.000000   4142558   4155024   4167919   4181222   4194978  
  4110.000000   4209160   4223789   4238806   4254187   4269845  
  4100.000000   4285730   4301757   4317894   4334096   4350369  
  4090.000000   4366715   4383156   4399707   4416379   4433178  
  4080.000000   4450090   4467116   4484222   4501397   4518575  
  4070.000000   4535716   4552714   4569516   4586017   4602201  
  4060.000000   4618005   4633461   4648517   4663206   4677443  
  4050.000000   4691243   4704509   4717281   4729488   4741201  
  4040.000000   4752345   4762965   4772936   4782268   4790818  
  4030.000000   4798614   4805548   4811676   4816909   4821287  
  4020.000000   4824693   4827176   4828705   4829389   4829216  
  4010.000000   4828376   4826980   4825093   4822525   4819350  
  4000.000000   4815858  
##END= 
