##TITLE= Sample 002 By ssteindl date Montag, November 26 2018
##JCAMP-DX= 4.24
##DATA TYPE= INFRARED SPECTRUM
##ORIGIN= Exported PE Spectrum Data File
##OWNER= Sandra Steindl
##DATE= 18/11/26
##TIME= 13:29:45.00
##SPECTROMETER/DATA SYSTEM= PERKIN-ELMER Frontier FT-IR/NIR IR
##INSTRUMENT PARAMETERS=
  APODIZATION=stark
  DETECTOR=INGAAS
##RESOLUTION= 16.000000
##DELTAX= -2.000000
##XUNITS= 1/CM
##YUNITS= A
##XFACTOR= 1.00
##YFACTOR= 0.00000011920928955078
##FIRSTX= 10000.00
##LASTX= 4000.00
##NPOINTS= 3001
##FIRSTY= 0.256072
##MAXY= 0.610802
##MINY= 0.225241
##XYDATA= (X++(Y..Y))
 10000.000000   2148085   2151904   2154475   2154042   2150233  
  9990.000000   2143913   2136101   2127834   2120366   2115018  
  9980.000000   2112456   2112667   2115056   2118742   2122689  
  9970.000000   2126033   2128242   2129103   2128597   2126761  
  9960.000000   2123688   2119490   2114552   2109460   2105085  
  9950.000000   2102240   2101449   2102683   2105303   2108348  
  9940.000000   2110864   2112374   2113006   2113452   2114555  
  9930.000000   2116910   2120494   2124664   2128364   2130598  
  9920.000000   2130816   2129148   2126305   2123253   2120782  
  9910.000000   2119201   2118227   2117164   2115202   2111751  
  9900.000000   2106656   2100228   2093113   2086112   2079939  
  9890.000000   2075162   2072074   2070746   2071004   2072461  
  9880.000000   2074622   2076915   2078888   2080199   2080743  
  9870.000000   2080529   2079721   2078472   2076995   2075474  
  9860.000000   2074186   2073437   2073581   2074896   2077491  
  9850.000000   2081224   2085662   2090194   2094113   2096882  
  9840.000000   2098175   2098061   2096868   2095155   2093527  
  9830.000000   2092494   2092409   2093312   2094961   2096722  
  9820.000000   2097706   2096920   2093543   2087291   2078572  
  9810.000000   2068611   2059182   2052238   2049370   2051328  
  9800.000000   2057787   2067364   2077962   2087293   2093427  
  9790.000000   2095293   2092894   2087308   2080369   2074180  
  9780.000000   2070575   2070627   2074408   2080949   2088518  
  9770.000000   2095083   2098850   2098794   2094854   2087962  
  9760.000000   2079621   2071477   2064804   2060225   2057711  
  9750.000000   2056748   2056677   2056941   2057173   2057236  
  9740.000000   2057024   2056473   2055509   2054142   2052599  
  9730.000000   2051234   2050535   2050744   2051790   2053103  
  9720.000000   2053871   2053328   2051171   2047796   2044254  
  9710.000000   2041930   2041996   2044972   2050445   2057228  
  9700.000000   2063739   2068576   2070963   2070926   2069192  
  9690.000000   2066771   2064578   2063077   2062243   2061667  
  9680.000000   2060836   2059368   2057168   2054464   2051683  
  9670.000000   2049369   2047974   2047826   2048984   2051257  
  9660.000000   2054194   2057147   2059440   2060515   2060128  
  9650.000000   2058430   2055929   2053355   2051396   2050520  
  9640.000000   2050834   2052113   2053910   2055734   2057163  
  9630.000000   2057929   2057868   2056917   2055048   2052319  
  9620.000000   2048895   2045111   2041428   2038330   2036159  
  9610.000000   2034983   2034559   2034428   2034085   2033180  
  9600.000000   2031617   2029565   2027334   2025218   2023387  
  9590.000000   2021833   2020488   2019276   2018260   2017566  
  9580.000000   2017362   2017669   2018331   2019001   2019306  
  9570.000000   2018998   2018133   2017048   2016300   2016410  
  9560.000000   2017693   2020105   2023247   2026516   2029287  
  9550.000000   2031173   2032108   2032382   2032475   2032872  
  9540.000000   2033878   2035493   2037440   2039212   2040248  
  9530.000000   2040062   2038375   2035222   2030911   2026060  
  9520.000000   2021395   2017714   2015636   2015538   2017402  
  9510.000000   2020822   2025041   2029090   2031991   2032949  
  9500.000000   2031557   2027855   2022383   2016017   2009850  
  9490.000000   2004892   2001883   2001091   2002277   2004812  
  9480.000000   2007871   2010722   2012879   2014235   2014975  
  9470.000000   2015471   2016061   2016906   2017941   2018901  
  9460.000000   2019508   2019558   2019054   2018146   2017069  
  9450.000000   2016027   2015100   2014246   2013320   2012168  
  9440.000000   2010697   2008934   2007031   2005222   2003744  
  9430.000000   2002787   2002426   2002652   2003352   2004384  
  9420.000000   2005585   2006837   2008071   2009273   2010446  
  9410.000000   2011583   2012606   2013364   2013643   2013226  
  9400.000000   2011999   2009991   2007428   2004641   2001986  
  9390.000000   1999680   1997746   1996008   1994202   1992127  
  9380.000000   1989758   1987316   1985181   1983819   1983592  
  9370.000000   1984678   1986995   1990238   1993966   1997682  
  9360.000000   2000937   2003347   2004636   2004635   2003333  
  9350.000000   2000926   1997834   1994648   1992002   1990394  
  9340.000000   1990029   1990749   1992053   1993255   1993662  
  9330.000000   1992835   1990684   1987506   1983818   1980212  
  9320.000000   1977187   1975066   1973988   1973902   1974624  
  9310.000000   1975863   1977278   1978516   1979259   1979274  
  9300.000000   1978489   1977020   1975190   1973403   1972042  
  9290.000000   1971321   1971239   1971612   1972135   1972537  
  9280.000000   1972648   1972506   1972284   1972221   1972466  
  9270.000000   1972994   1973601   1973922   1973586   1972270  
  9260.000000   1969883   1966552   1962646   1958666   1955104  
  9250.000000   1952383   1950715   1950182   1950690   1952076  
  9240.000000   1954152   1956730   1959659   1962702   1965538  
  9230.000000   1967646   1968481   1967554   1964719   1960209  
  9220.000000   1954736   1949369   1945336   1943690   1944941  
  9210.000000   1948954   1954937   1961747   1968135   1973132  
  9200.000000   1976206   1977377   1977068   1975887   1974406  
  9190.000000   1972991   1971810   1970800   1969830   1968723  
  9180.000000   1967382   1965765   1963827   1961559   1958945  
  9170.000000   1956118   1953324   1950954   1949404   1949021  
  9160.000000   1949945   1952058   1954924   1957934   1960465  
  9150.000000   1962067   1962558   1962033   1960808   1959219  
  9140.000000   1957545   1955856   1954115   1952158   1949857  
  9130.000000   1947159   1944152   1941047   1938096   1935575  
  9120.000000   1933723   1932771   1932914   1934284   1936881  
  9110.000000   1940498   1944686   1948786   1952080   1953974  
  9100.000000   1954255   1953137   1951297   1949578   1948779  
  9090.000000   1949276   1950930   1953087   1954853   1955464  
  9080.000000   1954580   1952482   1949916   1947925   1947388  
  9070.000000   1948812   1952070   1956539   1961271   1965316  
  9060.000000   1967965   1968875   1968086   1965892   1962726  
  9050.000000   1959007   1955105   1951304   1947838   1944866  
  9040.000000   1942473   1940669   1939382   1938521   1937988  
  9030.000000   1937764   1937893   1938464   1939527   1941020  
  9020.000000   1942772   1944496   1945907   1946809   1947205  
  9010.000000   1947286   1947381   1947819   1948817   1950380  
  9000.000000   1952275   1954118   1955481   1956024   1955569  
  8990.000000   1954156   1952034   1949569   1947142   1945054  
  8980.000000   1943457   1942340   1941538   1940830   1940024  
  8970.000000   1939062   1938030   1937165   1936748   1937015  
  8960.000000   1938040   1939686   1941650   1943513   1944911  
  8950.000000   1945598   1945538   1944857   1943794   1942617  
  8940.000000   1941544   1940735   1940262   1940179   1940501  
  8930.000000   1941226   1942271   1943485   1944636   1945450  
  8920.000000   1945675   1945140   1943830   1941853   1939434  
  8910.000000   1936832   1934315   1932112   1930390   1929281  
  8900.000000   1928861   1929172   1930162   1931706   1933585  
  8890.000000   1935527   1937241   1938471   1939068   1938988  
  8880.000000   1938338   1937283   1936060   1934870   1933896  
  8870.000000   1933229   1932874   1932760   1932762   1932773  
  8860.000000   1932733   1932690   1932775   1933171   1934009  
  8850.000000   1935308   1936927   1938577   1939910   1940623  
  8840.000000   1940594   1939905   1938829   1937710   1936865  
  8830.000000   1936475   1936566   1937027   1937699   1938437  
  8820.000000   1939160   1939841   1940462   1940997   1941388  
  8810.000000   1941611   1941698   1941796   1942128   1942920  
  8800.000000   1944303   1946229   1948460   1950608   1952259  
  8790.000000   1953088   1952964   1951976   1950390   1948552  
  8780.000000   1946811   1945441   1944616   1944408   1944779  
  8770.000000   1945619   1946743   1947945   1949008   1949788  
  8760.000000   1950227   1950396   1950442   1950535   1950802  
  8750.000000   1951255   1951825   1952362   1952743   1952894  
  8740.000000   1952830   1952609   1952290   1951904   1951443  
  8730.000000   1950918   1950393   1950024   1950018   1950572  
  8720.000000   1951765   1953496   1955486   1957350   1958743  
  8710.000000   1959460   1959524   1959126   1958562   1958084  
  8700.000000   1957850   1957873   1958092   1958433   1958874  
  8690.000000   1959465   1960275   1961355   1962678   1964159  
  8680.000000   1965679   1967153   1968555   1969894   1971184  
  8670.000000   1972362   1973302   1973830   1973832   1973317  
  8660.000000   1972472   1971617   1971102   1971188   1971940  
  8650.000000   1973220   1974740   1976189   1977348   1978148  
  8640.000000   1978668   1979054   1979456   1979942   1980510  
  8630.000000   1981101   1981663   1982180   1982689   1983252  
  8620.000000   1983933   1984773   1985797   1987026   1988479  
  8610.000000   1990163   1992042   1994014   1995909   1997531  
  8600.000000   1998733   1999482   1999894   2000209   2000694  
  8590.000000   2001552   2002827   2004403   2006045   2007516  
  8580.000000   2008658   2009449   2009974   2010369   2010731  
  8570.000000   2011087   2011383   2011548   2011546   2011426  
  8560.000000   2011306   2011324   2011567   2012036   2012628  
  8550.000000   2013206   2013635   2013866   2013928   2013923  
  8540.000000   2013979   2014201   2014646   2015314   2016153  
  8530.000000   2017073   2017953   2018652   2019031   2018987  
  8520.000000   2018510   2017700   2016776   2016011   2015654  
  8510.000000   2015823   2016462   2017334   2018128   2018566  
  8500.000000   2018537   2018131   2017621   2017355   2017621  
  8490.000000   2018550   2020066   2021945   2023910   2025738  
  8480.000000   2027330   2028704   2029967   2031216   2032500  
  8470.000000   2033755   2034856   2035632   2035964   2035793  
  8460.000000   2035179   2034287   2033375   2032753   2032693  
  8450.000000   2033403   2034935   2037194   2039908   2042731  
  8440.000000   2045314   2047414   2048937   2049945   2050599  
  8430.000000   2051069   2051456   2051742   2051838   2051636  
  8420.000000   2051114   2050364   2049580   2049002   2048810  
  8410.000000   2049068   2049683   2050473   2051233   2051833  
  8400.000000   2052234   2052506   2052760   2053103   2053578  
  8390.000000   2054176   2054854   2055582   2056356   2057183  
  8380.000000   2058047   2058885   2059565   2059925   2059817  
  8370.000000   2059179   2058068   2056656   2055172   2053833  
  8360.000000   2052771   2052020   2051502   2051107   2050723  
  8350.000000   2050303   2049854   2049434   2049096   2048864  
  8340.000000   2048708   2048545   2048281   2047817   2047120  
  8330.000000   2046183   2045067   2043844   2042601   2041415  
  8320.000000   2040340   2039426   2038711   2038271   2038196  
  8310.000000   2038600   2039555   2041066   2043025   2045194  
  8300.000000   2047238   2048770   2049458   2049100   2047701  
  8290.000000   2045459   2042722   2039895   2037346   2035350  
  8280.000000   2034027   2033378   2033287   2033598   2034121  
  8270.000000   2034671   2035059   2035115   2034713   2033790  
  8260.000000   2032398   2030669   2028832   2027120   2025753  
  8250.000000   2024861   2024477   2024558   2025006   2025737  
  8240.000000   2026664   2027730   2028858   2029954   2030891  
  8230.000000   2031527   2031733   2031421   2030574   2029246  
  8220.000000   2027544   2025609   2023581   2021602   2019790  
  8210.000000   2018252   2017033   2016121   2015397   2014680  
  8200.000000   2013743   2012407   2010592   2008376   2005992  
  8190.000000   2003759   2001988   2000849   2000325   2000198  
  8180.000000   2000134   1999803   1998990   1997676   1996034  
  8170.000000   1994365   1992999   1992175   1991971   1992273  
  8160.000000   1992833   1993335   1993499   1993141   1992222  
  8150.000000   1990840   1989204   1987577   1986208   1985268  
  8140.000000   1984801   1984714   1984802   1984815   1984526  
  8130.000000   1983811   1982684   1981294   1979869   1978636  
  8120.000000   1977741   1977195   1976876   1976581   1976113  
  8110.000000   1975353   1974309   1973102   1971913   1970912  
  8100.000000   1970185   1969716   1969389   1969049   1968558  
  8090.000000   1967849   1966945   1965948   1964988   1964185  
  8080.000000   1963607   1963253   1963059   1962909   1962668  
  8070.000000   1962201   1961404   1960225   1958685   1956884  
  8060.000000   1954995   1953229   1951788   1950805   1950304  
  8050.000000   1950188   1950265   1950316   1950164   1949737  
  8040.000000   1949081   1948332   1947655   1947168   1946897  
  8030.000000   1946759   1946606   1946274   1945663   1944759  
  8020.000000   1943647   1942465   1941349   1940399   1939639  
  8010.000000   1939052   1938589   1938219   1937941   1937783  
  8000.000000   1937780   1937944   1938241   1938585   1938862  
  7990.000000   1938953   1938777   1938300   1937561   1936646  
  7980.000000   1935675   1934772   1934035   1933523   1933238  
  7970.000000   1933136   1933139   1933156   1933111   1932957  
  7960.000000   1932690   1932335   1931938   1931536   1931153  
  7950.000000   1930787   1930434   1930090   1929783   1929564  
  7940.000000   1929497   1929633   1929981   1930498   1931087  
  7930.000000   1931639   1932056   1932296   1932373   1932355  
  7920.000000   1932326   1932351   1932447   1932569   1932633  
  7910.000000   1932532   1932179   1931526   1930582   1929411  
  7900.000000   1928114   1926824   1925675   1924797   1924277  
  7890.000000   1924164   1924435   1925013   1925765   1926543  
  7880.000000   1927204   1927645   1927824   1927750   1927478  
  7870.000000   1927066   1926573   1926023   1925431   1924794  
  7860.000000   1924127   1923462   1922851   1922356   1922024  
  7850.000000   1921884   1921930   1922129   1922428   1922774  
  7840.000000   1923121   1923440   1923717   1923951   1924144  
  7830.000000   1924305   1924440   1924559   1924678   1924820  
  7820.000000   1925010   1925269   1925601   1925986   1926367  
  7810.000000   1926667   1926791   1926656   1926214   1925472  
  7800.000000   1924500   1923413   1922342   1921403   1920659  
  7790.000000   1920111   1919705   1919365   1919014   1918626  
  7780.000000   1918219   1917866   1917653   1917653   1917889  
  7770.000000   1918316   1918823   1919258   1919463   1919310  
  7760.000000   1918747   1917802   1916589   1915272   1914030  
  7750.000000   1913004   1912261   1911777   1911450   1911138  
  7740.000000   1910710   1910098   1909315   1908460   1907664  
  7730.000000   1907056   1906698   1906580   1906624   1906719  
  7720.000000   1906776   1906744   1906635   1906474   1906288  
  7710.000000   1906053   1905710   1905169   1904375   1903329  
  7700.000000   1902126   1900927   1899916   1899245   1898981  
  7690.000000   1899095   1899469   1899954   1900413   1900760  
  7680.000000   1900973   1901065   1901066   1900984   1900805  
  7670.000000   1900502   1900059   1899489   1898843   1898199  
  7660.000000   1897634   1897206   1896936   1896812   1896791  
  7650.000000   1896821   1896844   1896800   1896628   1896261  
  7640.000000   1895654   1894789   1893714   1892536   1891420  
  7630.000000   1890542   1890046   1889988   1890321   1890905  
  7620.000000   1891558   1892109   1892456   1892579   1892539  
  7610.000000   1892428   1892337   1892304   1892325   1892354  
  7600.000000   1892350   1892292   1892198   1892103   1892039  
  7590.000000   1892012   1891991   1891932   1891796   1891597  
  7580.000000   1891391   1891279   1891360   1891691   1892255  
  7570.000000   1892950   1893614   1894070   1894187   1893907  
  7560.000000   1893273   1892396   1891438   1890555   1889882  
  7550.000000   1889505   1889454   1889717   1890244   1890967  
  7540.000000   1891814   1892718   1893634   1894530   1895397  
  7530.000000   1896230   1897022   1897749   1898379   1898875  
  7520.000000   1899229   1899466   1899659   1899906   1900303  
  7510.000000   1900901   1901683   1902562   1903409   1904092  
  7500.000000   1904529   1904707   1904693   1904602   1904561  
  7490.000000   1904659   1904946   1905420   1906059   1906830  
  7480.000000   1907714   1908700   1909778   1910926   1912110  
  7470.000000   1913285   1914416   1915486   1916509   1917503  
  7460.000000   1918496   1919479   1920433   1921317   1922110  
  7450.000000   1922816   1923488   1924208   1925070   1926139  
  7440.000000   1927435   1928919   1930512   1932122   1933672  
  7430.000000   1935110   1936424   1937626   1938746   1939817  
  7420.000000   1940870   1941941   1943065   1944277   1945605  
  7410.000000   1947060   1948631   1950281   1951951   1953566  
  7400.000000   1955053   1956344   1957393   1958175   1958710  
  7390.000000   1959057   1959326   1959654   1960180   1961021  
  7380.000000   1962230   1963794   1965620   1967587   1969570  
  7370.000000   1971487   1973298   1975003   1976615   1978127  
  7360.000000   1979513   1980715   1981694   1982436   1982987  
  7350.000000   1983437   1983904   1984496   1985274   1986248  
  7340.000000   1987380   1988623   1989935   1991305   1992734  
  7330.000000   1994229   1995776   1997346   1998894   2000383  
  7320.000000   2001804   2003169   2004508   2005831   2007118  
  7310.000000   2008308   2009323   2010101   2010630   2010969  
  7300.000000   2011239   2011588   2012146   2012985   2014089  
  7290.000000   2015374   2016710   2017970   2019060   2019951  
  7280.000000   2020669   2021284   2021884   2022546   2023317  
  7270.000000   2024202   2025169   2026156   2027102   2027953  
  7260.000000   2028696   2029347   2029958   2030580   2031254  
  7250.000000   2031979   2032721   2033421   2034038   2034563  
  7240.000000   2035063   2035648   2036461   2037611   2039150  
  7230.000000   2041027   2043125   2045272   2047322   2049172  
  7220.000000   2050816   2052303   2053750   2055267   2056960  
  7210.000000   2058874   2061016   2063341   2065793   2068309  
  7200.000000   2070851   2073398   2075961   2078553   2081195  
  7190.000000   2083880   2086596   2089293   2091930   2094457  
  7180.000000   2096867   2099172   2101431   2103716   2106111  
  7170.000000   2108672   2111437   2114394   2117513   2120725  
  7160.000000   2123973   2127181   2130308   2133320   2136236  
  7150.000000   2139105   2142035   2145151   2148598   2152462  
  7140.000000   2156776   2161458   2166371   2171327   2176182  
  7130.000000   2180841   2185311   2189649   2193967   2198346  
  7120.000000   2202844   2207448   2212136   2216860   2221617  
  7110.000000   2226416   2231300   2236289   2241389   2246561  
  7100.000000   2251762   2256946   2262118   2267306   2272579  
  7090.000000   2277992   2283576   2289319   2295180   2301110  
  7080.000000   2307079   2313075   2319114   2325192   2331286  
  7070.000000   2337321   2343204   2348840   2354183   2359239  
  7060.000000   2364084   2368828   2373593   2378481   2383557  
  7050.000000   2388849   2394356   2400058   2405916   2411875  
  7040.000000   2417867   2423814   2429649   2435331   2440859  
  7030.000000   2446270   2451624   2456974   2462349   2467743  
  7020.000000   2473121   2478446   2483692   2488861   2493961  
  7010.000000   2499009   2503990   2508879   2513629   2518221  
  7000.000000   2522657   2526989   2531281   2535600   2539964  
  6990.000000   2544353   2548695   2552917   2556957   2560808  
  6980.000000   2564490   2568064   2571573   2575054   2578505  
  6970.000000   2581925   2585299   2588635   2591934   2595196  
  6960.000000   2598391   2601474   2604383   2607084   2609573  
  6950.000000   2611906   2614157   2616415   2618720   2621083  
  6940.000000   2623453   2625783   2628021   2630168   2632236  
  6930.000000   2634265   2636264   2638224   2640093   2641822  
  6920.000000   2643371   2644741   2645960   2647078   2648125  
  6910.000000   2649116   2650036   2650874   2651637   2652372  
  6900.000000   2653148   2654051   2655126   2656386   2657782  
  6890.000000   2659246   2660703   2662107   2663434   2664680  
  6880.000000   2665839   2666883   2667773   2668466   2668944  
  6870.000000   2669229   2669386   2669500   2669659   2669922  
  6860.000000   2670316   2670846   2671500   2672273   2673153  
  6850.000000   2674132   2675178   2676247   2677285   2678256  
  6840.000000   2679150   2680000   2680855   2681757   2682709  
  6830.000000   2683666   2684540   2685241   2685709   2685943  
  6820.000000   2685997   2685961   2685914   2685905   2685928  
  6810.000000   2685950   2685932   2685863   2685759   2685669  
  6800.000000   2685635   2685680   2685789   2685927   2686052  
  6790.000000   2686143   2686203   2686258   2686326   2686411  
  6780.000000   2686486   2686511   2686450   2686295   2686071  
  6770.000000   2685827   2685612   2685453   2685341   2685239  
  6760.000000   2685097   2684878   2684569   2684182   2683744  
  6750.000000   2683285   2682821   2682363   2681920   2681505  
  6740.000000   2681140   2680846   2680633   2680494   2680399  
  6730.000000   2680318   2680225   2680120   2680021   2679958  
  6720.000000   2679945   2679968   2679982   2679921   2679718  
  6710.000000   2679336   2678773   2678063   2677256   2676409  
  6700.000000   2675557   2674726   2673921   2673154   2672426  
  6690.000000   2671752   2671128   2670548   2669981   2669395  
  6680.000000   2668753   2668033   2667221   2666319   2665333  
  6670.000000   2664267   2663126   2661916   2660658   2659381  
  6660.000000   2658122   2656917   2655784   2654723   2653715  
  6650.000000   2652740   2651786   2650860   2649982   2649176  
  6640.000000   2648443   2647766   2647096   2646377   2645557  
  6630.000000   2644610   2643538   2642366   2641127   2639849  
  6620.000000   2638540   2637202   2635826   2634415   2632977  
  6610.000000   2631537   2630114   2628728   2627382   2626072  
  6600.000000   2624785   2623507   2622219   2620905   2619538  
  6590.000000   2618099   2616572   2614960   2613286   2611588  
  6580.000000   2609909   2608283   2606717   2605197   2603691  
  6570.000000   2602170   2600623   2599065   2597529   2596049  
  6560.000000   2594646   2593316   2592034   2590766   2589486  
  6550.000000   2588186   2586882   2585592   2584333   2583100  
  6540.000000   2581881   2580651   2579404   2578145   2576904  
  6530.000000   2575711   2574592   2573548   2572562   2571604  
  6520.000000   2570652   2569698   2568752   2567835   2566964  
  6510.000000   2566139   2565345   2564553   2563741   2562897  
  6500.000000   2562028   2561155   2560296   2559458   2558636  
  6490.000000   2557809   2556958   2556070   2555146   2554196  
  6480.000000   2553233   2552265   2551294   2550319   2549339  
  6470.000000   2548363   2547403   2546478   2545595   2544755  
  6460.000000   2543946   2543151   2542356   2541547   2540722  
  6450.000000   2539876   2539005   2538098   2537149   2536153  
  6440.000000   2535126   2534089   2533077   2532117   2531232  
  6430.000000   2530424   2529691   2529031   2528453   2527975  
  6420.000000   2527620   2527400   2527304   2527289   2527297  
  6410.000000   2527263   2527144   2526923   2526617   2526258  
  6400.000000   2525886   2525521   2525171   2524830   2524492  
  6390.000000   2524159   2523844   2523567   2523343   2523174  
  6380.000000   2523042   2522924   2522796   2522644   2522471  
  6370.000000   2522290   2522111   2521938   2521759   2521549  
  6360.000000   2521280   2520936   2520512   2520023   2519491  
  6350.000000   2518944   2518403   2517885   2517391   2516917  
  6340.000000   2516446   2515958   2515428   2514842   2514189  
  6330.000000   2513487   2512761   2512057   2511413   2510852  
  6320.000000   2510367   2509922   2509452   2508893   2508189  
  6310.000000   2507315   2506273   2505102   2503851   2502580  
  6300.000000   2501339   2500167   2499082   2498086   2497149  
  6290.000000   2496231   2495276   2494237   2493080   2491807  
  6280.000000   2490445   2489045   2487657   2486311   2485004  
  6270.000000   2483707   2482371   2480962   2479469   2477921  
  6260.000000   2476367   2474865   2473450   2472127   2470865  
  6250.000000   2469619   2468340   2467004   2465611   2464178  
  6240.000000   2462729   2461280   2459832   2458381   2456918  
  6230.000000   2455448   2453984   2452542   2451136   2449758  
  6220.000000   2448383   2446972   2445484   2443892   2442195  
  6210.000000   2440415   2438598   2436797   2435060   2433422  
  6200.000000   2431900   2430489   2429170   2427915   2426692  
  6190.000000   2425473   2424240   2422989   2421727   2420465  
  6180.000000   2419218   2417990   2416775   2415558   2414323  
  6170.000000   2413059   2411767   2410456   2409147   2407858  
  6160.000000   2406601   2405379   2404190   2403025   2401875  
  6150.000000   2400730   2399577   2398405   2397200   2395955  
  6140.000000   2394675   2393379   2392102   2390884   2389755  
  6130.000000   2388725   2387777   2386872   2385964   2385012  
  6120.000000   2383996   2382918   2381799   2380667   2379551  
  6110.000000   2378469   2377435   2376456   2375547   2374715  
  6100.000000   2373968   2373296   2372683   2372093   2371500  
  6090.000000   2370880   2370236   2369585   2368961   2368388  
  6080.000000   2367889   2367459   2367095   2366779   2366516  
  6070.000000   2366307   2366172   2366113   2366134   2366210  
  6060.000000   2366323   2366443   2366571   2366711   2366895  
  6050.000000   2367146   2367493   2367933   2368468   2369078  
  6040.000000   2369766   2370533   2371405   2372404   2373555  
  6030.000000   2374856   2376298   2377845   2379468   2381125  
  6020.000000   2382797   2384460   2386113   2387745   2389365  
  6010.000000   2390973   2392588   2394220   2395894   2397617  
  6000.000000   2399402   2401242   2403139   2405084   2407090  
  5990.000000   2409160   2411317   2413567   2415918   2418359  
  5980.000000   2420883   2423476   2426139   2428874   2431700  
  5970.000000   2434618   2437634   2440726   2443875   2447041  
  5960.000000   2450206   2453349   2456475   2459583   2462691  
  5950.000000   2465804   2468941   2472113   2475343   2478653  
  5940.000000   2482071   2485611   2489280   2493067   2496948  
  5930.000000   2500893   2504868   2508842   2512778   2516639  
  5920.000000   2520382   2523965   2527358   2530549   2533553  
  5910.000000   2536409   2539166   2541869   2544540   2547186  
  5900.000000   2549793   2552353   2554864   2557357   2559864  
  5890.000000   2562431   2565073   2567791   2570545   2573290  
  5880.000000   2575974   2578564   2581048   2583431   2585726  
  5870.000000   2587941   2590080   2592140   2594125   2596049  
  5860.000000   2597938   2599827   2601748   2603725   2605765  
  5850.000000   2607867   2610021   2612223   2614468   2616754  
  5840.000000   2619074   2621414   2623756   2626079   2628373  
  5830.000000   2630638   2632885   2635133   2637394   2639676  
  5820.000000   2641973   2644275   2646568   2648841   2651080  
  5810.000000   2653272   2655391   2657422   2659336   2661143  
  5800.000000   2662849   2664512   2666168   2667878   2669636  
  5790.000000   2671436   2673196   2674842   2676257   2677360  
  5780.000000   2678057   2678299   2678032   2677243   2675927  
  5770.000000   2674136   2671946   2669489   2666898   2664322  
  5760.000000   2661861   2659590   2657516   2655633   2653903  
  5750.000000   2652309   2650833   2649474   2648227   2647080  
  5740.000000   2646011   2644990   2643999   2643025   2642080  
  5730.000000   2641172   2640323   2639530   2638791   2638085  
  5720.000000   2637403   2636734   2636089   2635479   2634918  
  5710.000000   2634409   2633952   2633534   2633150   2632794  
  5700.000000   2632470   2632182   2631926   2631695   2631470  
  5690.000000   2631236   2630981   2630710   2630428   2630150  
  5680.000000   2629870   2629579   2629241   2628821   2628276  
  5670.000000   2627575   2626690   2625608   2624314   2622807  
  5660.000000   2621089   2619190   2617151   2615043   2612935  
  5650.000000   2610897   2608967   2607165   2605475   2603876  
  5640.000000   2602339   2600847   2599387   2597953   2596534  
  5630.000000   2595115   2593684   2592236   2590785   2589358  
  5620.000000   2587995   2586722   2585547   2584448   2583385  
  5610.000000   2582310   2581190   2580014   2578798   2577572  
  5600.000000   2576370   2575211   2574103   2573042   2572025  
  5590.000000   2571050   2570123   2569248   2568419   2567616  
  5580.000000   2566806   2565954   2565033   2564036   2562976  
  5570.000000   2561876   2560765   2559664   2558583   2557526  
  5560.000000   2556489   2555472   2554469   2553477   2552482  
  5550.000000   2551465   2550404   2549286   2548110   2546893  
  5540.000000   2545662   2544446   2543262   2542117   2541001  
  5530.000000   2539906   2538828   2537771   2536744   2535754  
  5520.000000   2534793   2533838   2532854   2531812   2530693  
  5510.000000   2529504   2528265   2527008   2525758   2524530  
  5500.000000   2523326   2522142   2520975   2519827   2518697  
  5490.000000   2517581   2516453   2515282   2514029   2512673  
  5480.000000   2511215   2509688   2508142   2506629   2505178  
  5470.000000   2503785   2502413   2501014   2499538   2497964  
  5460.000000   2496291   2494545   2492748   2490924   2489080  
  5450.000000   2487220   2485346   2483470   2481612   2479795  
  5440.000000   2478033   2476330   2474681   2473074   2471505  
  5430.000000   2469968   2468465   2466984   2465512   2464020  
  5420.000000   2462497   2460938   2459390   2457909   2456580  
  5410.000000   2455453   2454551   2453833   2453246   2452711  
  5400.000000   2452196   2451685   2451219   2450840   2450606  
  5390.000000   2450529   2450620   2450848   2451207   2451675  
  5380.000000   2452273   2452996   2453863   2454844   2455931  
  5370.000000   2457081   2458300   2459576   2460958   2462457  
  5360.000000   2464126   2465950   2467961   2470133   2472517  
  5350.000000   2475125   2478053   2481334   2485053   2489192  
  5340.000000   2493776   2498735   2504083   2509761   2515815  
  5330.000000   2522205   2528986   2536102   2543598   2551418  
  5320.000000   2559640   2568255   2577395   2587073   2597420  
  5310.000000   2608406   2620105   2632432   2645436   2659045  
  5300.000000   2673347   2688324   2704107   2720701   2738225  
  5290.000000   2756640   2775991   2796149   2817063   2838551  
  5280.000000   2860558   2882968   2905837   2929186   2953162  
  5270.000000   2977812   3003194   3029199   3055671   3082371  
  5260.000000   3109100   3135726   3162229   3188675   3215136  
  5250.000000   3241660   3268160   3294498   3320413   3345729  
  5240.000000   3370256   3394013   3417010   3439427   3461330  
  5230.000000   3482850   3503917   3524504   3544405   3563545  
  5220.000000   3581765   3599125   3615630   3631486   3646774  
  5210.000000   3661686   3676199   3690342   3703921   3716857  
  5200.000000   3728943   3740182   3750508   3760059   3768854  
  5190.000000   3777044   3784613   3791641   3798054   3803908  
  5180.000000   3809142   3813837   3817954   3821571   3824629  
  5170.000000   3827176   3829150   3830620   3831566   3832096  
  5160.000000   3832208   3831984   3831373   3830398   3828977  
  5150.000000   3827133   3824831   3822143   3819082   3815730  
  5140.000000   3812083   3808189   3804021   3799619   3794977  
  5130.000000   3790161   3785190   3780122   3774959   3769720  
  5120.000000   3764382   3758953   3753421   3747815   3742145  
  5110.000000   3736441   3730709   3724962   3719196   3713425  
  5100.000000   3707662   3701935   3696266   3690676   3685165  
  5090.000000   3679724   3674332   3668973   3663636   3658322  
  5080.000000   3653028   3647759   3642499   3637236   3631946  
  5070.000000   3626616   3621236   3615812   3610347   3604850  
  5060.000000   3599315   3593737   3588099   3582398   3576624  
  5050.000000   3570788   3564888   3558934   3552915   3546826  
  5040.000000   3540649   3534384   3528031   3521610   3515141  
  5030.000000   3508645   3502136   3495620   3489096   3482565  
  5020.000000   3476038   3469533   3463081   3456710   3450453  
  5010.000000   3444323   3438335   3432481   3426766   3421174  
  5000.000000   3415719   3410386   3405197   3400144   3395256  
  4990.000000   3390529   3386006   3381687   3377619   3373797  
  4980.000000   3370253   3366962   3363943   3361161   3358640  
  4970.000000   3356359   3354364   3352643   3351249   3350163  
  4960.000000   3349425   3348999   3348917   3349143   3349716  
  4950.000000   3350608   3351866   3353459   3355425   3357727  
  4940.000000   3360396   3363395   3366762   3370462   3374538  
  4930.000000   3378949   3383726   3388822   3394260   3399998  
  4920.000000   3406064   3412428   3419122   3426116   3433431  
  4910.000000   3441033   3448928   3457081   3465492   3474125  
  4900.000000   3482974   3491997   3501170   3510452   3519808  
  4890.000000   3529201   3538599   3547973   3557284   3566504  
  4880.000000   3575577   3584473   3593127   3601514   3609572  
  4870.000000   3617286   3624602   3631519   3637993   3644040  
  4860.000000   3649637   3654826   3659602   3664021   3668088  
  4850.000000   3671857   3675330   3678556   3681536   3684316  
  4840.000000   3686896   3689318   3691583   3693729   3695761  
  4830.000000   3697720   3699621   3701503   3703378   3705262  
  4820.000000   3707146   3709019   3710856   3712646   3714382  
  4810.000000   3716082   3717771   3719487   3721264   3723126  
  4800.000000   3725082   3727124   3729232   3731379   3733536  
  4790.000000   3735678   3737789   3739859   3741890   3743892  
  4780.000000   3745877   3747860   3749846   3751832   3753799  
  4770.000000   3755724   3757575   3759332   3760978   3762525  
  4760.000000   3763981   3765379   3766733   3768062   3769358  
  4750.000000   3770615   3771799   3772894   3773867   3774711  
  4740.000000   3775413   3775985   3776433   3776782   3777041  
  4730.000000   3777230   3777349   3777403   3777380   3777277  
  4720.000000   3777091   3776829   3776508   3776153   3775792  
  4710.000000   3775453   3775158   3774920   3774754   3774665  
  4700.000000   3774670   3774780   3775018   3775394   3775921  
  4690.000000   3776595   3777413   3778355   3779408   3780549  
  4680.000000   3781766   3783034   3784339   3785649   3786948  
  4670.000000   3788201   3789401   3790534   3791619   3792672  
  4660.000000   3793738   3794855   3796079   3797450   3799013  
  4650.000000   3800791   3802801   3805034   3807473   3810078  
  4640.000000   3812811   3815625   3818484   3821357   3824228  
  4630.000000   3827082   3829912   3832709   3835457   3838143  
  4620.000000   3840742   3843235   3845589   3847781   3849775  
  4610.000000   3851554   3853093   3854401   3855487   3856398  
  4600.000000   3857171   3857868   3858517   3859159   3859786  
  4590.000000   3860406   3860982   3861505   3861931   3862245  
  4580.000000   3862406   3862397   3862181   3861754   3861101  
  4570.000000   3860244   3859202   3858020   3856724   3855351  
  4560.000000   3853906   3852402   3850831   3849204   3847527  
  4550.000000   3845829   3844132   3842462   3840829   3839233  
  4540.000000   3837655   3836079   3834492   3832888   3831281  
  4530.000000   3829682   3828117   3826587   3825111   3823675  
  4520.000000   3822297   3820966   3819722   3818570   3817571  
  4510.000000   3816732   3816123   3815750   3815690   3815953  
  4500.000000   3816631   3817736   3819363   3821507   3824251  
  4490.000000   3827572   3831544   3836139   3841434   3847397  
  4480.000000   3854091   3861461   3869537   3878235   3887563  
  4470.000000   3897432   3907850   3918738   3930110   3941888  
  4460.000000   3954071   3966570   3979365   3992368   4005556  
  4450.000000   4018861   4032274   4045758   4059316   4072936  
  4440.000000   4086624   4100382   4114205   4128092   4142007  
  4430.000000   4155932   4169792   4183548   4197100   4210410  
  4420.000000   4223383   4236004   4248196   4259960   4271217  
  4410.000000   4281957   4292079   4301557   4310290   4318277  
  4400.000000   4325467   4331925   4337673   4342830   4347462  
  4390.000000   4351706   4355634   4359372   4362983   4366571  
  4380.000000   4370176   4373865   4377646   4381551   4385570  
  4370.000000   4389722   4394010   4398461   4403085   4407902  
  4360.000000   4412905   4418088   4423412   4428857   4434357  
  4350.000000   4439894   4445380   4450805   4456076   4461203  
  4340.000000   4466115   4470836   4475284   4479401   4482973  
  4330.000000   4485747   4487335   4487383   4485568   4481780  
  4320.000000   4476112   4468939   4460800   4452356   4444198  
  4310.000000   4436817   4430472   4425263   4421105   4417860  
  4300.000000   4415345   4413417   4411961   4410888   4410148  
  4290.000000   4409668   4409429   4409383   4409552   4409934  
  4280.000000   4410569   4411458   4412597   4413955   4415475  
  4270.000000   4417113   4418799   4420476   4422033   4423330  
  4260.000000   4424152   4424265   4423417   4421436   4418242  
  4250.000000   4413915   4408654   4402781   4396637   4390574  
  4240.000000   4384843   4379634   4375001   4370947   4367382  
  4230.000000   4364212   4361311   4358568   4355886   4353183  
  4220.000000   4350426   4347588   4344709   4341818   4339005  
  4210.000000   4336324   4333865   4331661   4329763   4328164  
  4200.000000   4326873   4325846   4325070   4324489   4324090  
  4190.000000   4323824   4323695   4323672   4323781   4324002  
  4180.000000   4324373   4324877   4325559   4326407   4327481  
  4170.000000   4328785   4330396   4332333   4334675   4337430  
  4160.000000   4340657   4344334   4348490   4353072   4358091  
  4150.000000   4363482   4369253   4375341   4381771   4388496  
  4140.000000   4395568   4402967   4410762   4418935   4427546  
  4130.000000   4436553   4445988   4455792   4465989   4476538  
  4120.000000   4487486   4498821   4510608   4522847   4535589  
  4110.000000   4548816   4562549   4576738   4591364   4606341  
  4100.000000   4621612   4637068   4652645   4668264   4683905  
  4090.000000   4699556   4715252   4731026   4746910   4762925  
  4080.000000   4779055   4795290   4811576   4827897   4844187  
  4070.000000   4860430   4876544   4892501   4908194   4923586  
  4060.000000   4938566   4953112   4967121   4980599   4993464  
  4050.000000   5005758   5017434   5028579   5039169   5049299  
  4040.000000   5058909   5068045   5076584   5084532   5091755  
  4030.000000   5098285   5104033   5109067   5113327   5116876  
  4020.000000   5119633   5121672   5122994   5123703   5123775  
  4010.000000   5123351   5122497   5121204   5119222   5116585  
  4000.000000   5113612  
##END= 
