##TITLE= Sample 010 By ssteindl date Montag, November 26 2018
##JCAMP-DX= 4.24
##DATA TYPE= INFRARED SPECTRUM
##ORIGIN= Exported PE Spectrum Data File
##OWNER= Sandra Steindl
##DATE= 18/11/26
##TIME= 13:38:20.00
##SPECTROMETER/DATA SYSTEM= PERKIN-ELMER Frontier FT-IR/NIR IR
##INSTRUMENT PARAMETERS=
  APODIZATION=stark
  DETECTOR=INGAAS
##RESOLUTION= 16.000000
##DELTAX= -2.000000
##XUNITS= 1/CM
##YUNITS= A
##XFACTOR= 1.00
##YFACTOR= 0.00000011920928955078
##FIRSTX= 10000.00
##LASTX= 4000.00
##NPOINTS= 3001
##FIRSTY= 0.235601
##MAXY= 0.578555
##MINY= 0.214223
##XYDATA= (X++(Y..Y))
 10000.000000   1976367   1984151   1992951   2002906   2011419  
  9990.000000   2015115   2012574   2004870   1994253   1983403  
  9980.000000   1974972   1970792   1970875   1973753   1977204  
  9970.000000   1979348   1979121   1976739   1973378   1970632  
  9960.000000   1969750   1971248   1974698   1979006   1982823  
  9950.000000   1985021   1985088   1983179   1980042   1976658  
  9940.000000   1973946   1972463   1972299   1973004   1973814  
  9930.000000   1973760   1972100   1968479   1963169   1957022  
  9920.000000   1951224   1947039   1945349   1946570   1950507  
  9910.000000   1956608   1964104   1972266   1980432   1987994  
  9900.000000   1994333   1998772   2000745   1999884   1996290  
  9890.000000   1990476   1983346   1975890   1968958   1963092  
  9880.000000   1958474   1955124   1952998   1952188   1952798  
  9870.000000   1954826   1957945   1961414   1964279   1965605  
  9860.000000   1964938   1962439   1958949   1955661   1953734  
  9850.000000   1953942   1956464   1961027   1967056   1974026  
  9840.000000   1981476   1989051   1996260   2002394   2006540  
  9830.000000   2007773   2005556   1999927   1991677   1982058  
  9820.000000   1972455   1963945   1957039   1951775   1947846  
  9810.000000   1945063   1943387   1943110   1944475   1947539  
  9800.000000   1951862   1956577   1960623   1963013   1963278  
  9790.000000   1961409   1958003   1953765   1949450   1945478  
  9780.000000   1942050   1939182   1936885   1935319   1934727  
  9770.000000   1935464   1937744   1941653   1946970   1953273  
  9760.000000   1959936   1966233   1971465   1974970   1976327  
  9750.000000   1975301   1972037   1966970   1960851   1954579  
  9740.000000   1949024   1944883   1942516   1942016   1943163  
  9730.000000   1945636   1948960   1952670   1956248   1959231  
  9720.000000   1961234   1962024   1961594   1960126   1958007  
  9710.000000   1955644   1953425   1951547   1950087   1948990  
  9700.000000   1948214   1947740   1947581   1947717   1948025  
  9690.000000   1948312   1948333   1947971   1947286   1946618  
  9680.000000   1946462   1947353   1949613   1953225   1957766  
  9670.000000   1962524   1966674   1969483   1970471   1969450  
  9660.000000   1966548   1962132   1956754   1951072   1945717  
  9650.000000   1941241   1937948   1935913   1934912   1934584  
  9640.000000   1934507   1934388   1934098   1933672   1933170  
  9630.000000   1932539   1931556   1929864   1927212   1923599  
  9620.000000   1919460   1915523   1912652   1911460   1912124  
  9610.000000   1914229   1916959   1919342   1920640   1920560  
  9600.000000   1919306   1917432   1915580   1914280   1913848  
  9590.000000   1914421   1916066   1918814   1922637   1927309  
  9580.000000   1932305   1936811   1939895   1940819   1939322  
  9570.000000   1935784   1931156   1926640   1923315   1921753  
  9560.000000   1921873   1923046   1924356   1925020   1924593  
  9550.000000   1923145   1921093   1919054   1917574   1916989  
  9540.000000   1917372   1918540   1920150   1921730   1922801  
  9530.000000   1922927   1921845   1919570   1916445   1913141  
  9520.000000   1910461   1909139   1909538   1911540   1914524  
  9510.000000   1917584   1919820   1920609   1919804   1917652  
  9500.000000   1914710   1911521   1908500   1905762   1903222  
  9490.000000   1900689   1898064   1895463   1893232   1891898  
  9480.000000   1891964   1893803   1897446   1902605   1908623  
  9470.000000   1914625   1919665   1922941   1924038   1923011  
  9460.000000   1920412   1917057   1913798   1911200   1909431  
  9450.000000   1908242   1907156   1905696   1903583   1900869  
  9440.000000   1897852   1894996   1892680   1891129   1890356  
  9430.000000   1890261   1890742   1891737   1893214   1895067  
  9420.000000   1897057   1898804   1899909   1900121   1899500  
  9410.000000   1898420   1897458   1897137   1897718   1899049  
  9400.000000   1900630   1901791   1901965   1900928   1898875  
  9390.000000   1896340   1893961   1892241   1891391   1891331  
  9380.000000   1891792   1892463   1893088   1893515   1893668  
  9370.000000   1893539   1893142   1892553   1891903   1891406  
  9360.000000   1891294   1891734   1892739   1894098   1895429  
  9350.000000   1896283   1896318   1895418   1893718   1891557  
  9340.000000   1889315   1887327   1885771   1884711   1884114  
  9330.000000   1883935   1884121   1884591   1885204   1885728  
  9320.000000   1885872   1885344   1883949   1881670   1878722  
  9310.000000   1875494   1872478   1870122   1868765   1868551  
  9300.000000   1869421   1871115   1873222   1875259   1876791  
  9290.000000   1877533   1877438   1876710   1875744   1875008  
  9280.000000   1874877   1875488   1876714   1878216   1879633  
  9270.000000   1880726   1881442   1881897   1882183   1882327  
  9260.000000   1882145   1881406   1879927   1877767   1875291  
  9250.000000   1873083   1871722   1871428   1871907   1872348  
  9240.000000   1871785   1869431   1865083   1859206   1852853  
  9230.000000   1847301   1843614   1842340   1843373   1846177  
  9220.000000   1850037   1854400   1858940   1863551   1868154  
  9210.000000   1872548   1876364   1879109   1880395   1880032  
  9200.000000   1878181   1875182   1871494   1867460   1863314  
  9190.000000   1859192   1855242   1851747   1849064   1847582  
  9180.000000   1847477   1848664   1850734   1853140   1855379  
  9170.000000   1857209   1858688   1860071   1861603   1863334  
  9160.000000   1865096   1866559   1867460   1867728   1867584  
  9150.000000   1867413   1867545   1868052   1868635   1868787  
  9140.000000   1868008   1866115   1863345   1860333   1857838  
  9130.000000   1856423   1856172   1856681   1857212   1857035  
  9120.000000   1855709   1853305   1850348   1847597   1845692  
  9110.000000   1844956   1845312   1846363   1847587   1848508  
  9100.000000   1848898   1848691   1847962   1846781   1845216  
  9090.000000   1843327   1841225   1839128   1837375   1836370  
  9080.000000   1836458   1837806   1840318   1843673   1847378  
  9070.000000   1850895   1853741   1855587   1856313   1855967  
  9060.000000   1854720   1852815   1850541   1848185   1846012  
  9050.000000   1844234   1843017   1842421   1842383   1842712  
  9040.000000   1843106   1843210   1842659   1841246   1839008  
  9030.000000   1836280   1833621   1831710   1831158   1832288  
  9020.000000   1834978   1838677   1842572   1845792   1847688  
  9010.000000   1847982   1846870   1844856   1842551   1840459  
  9000.000000   1838849   1837752   1837024   1836528   1836226  
  8990.000000   1836230   1836696   1837737   1839295   1841098  
  8980.000000   1842687   1843553   1843319   1841818   1839182  
  8970.000000   1835767   1832149   1828924   1826625   1825594  
  8960.000000   1825951   1827560   1830044   1832886   1835550  
  8950.000000   1837642   1838992   1839714   1840143   1840727  
  8940.000000   1841839   1843648   1846044   1848688   1851142  
  8930.000000   1853018   1854095   1854364   1853981   1853170  
  8920.000000   1852091   1850814   1849299   1847488   1845365  
  8910.000000   1843028   1840673   1838556   1836884   1835775  
  8900.000000   1835200   1835041   1835116   1835250   1835320  
  8890.000000   1835258   1835063   1834752   1834371   1833956  
  8880.000000   1833562   1833235   1833038   1833026   1833260  
  8870.000000   1833779   1834604   1835712   1837032   1838432  
  8860.000000   1839739   1840752   1841304   1841308   1840800  
  8850.000000   1839947   1839003   1838263   1837971   1838266  
  8840.000000   1839141   1840459   1842005   1843528   1844805  
  8830.000000   1845643   1845912   1845536   1844532   1843014  
  8820.000000   1841215   1839469   1838153   1837624   1838088  
  8810.000000   1839568   1841854   1844595   1847386   1849893  
  8800.000000   1851917   1853390   1854341   1854802   1854779  
  8790.000000   1854223   1853099   1851444   1849449   1847445  
  8780.000000   1845847   1845024   1845164   1846207   1847831  
  8770.000000   1849570   1850952   1851656   1851603   1850955  
  8760.000000   1850060   1849299   1848989   1849264   1850097  
  8750.000000   1851304   1852668   1853984   1855141   1856119  
  8740.000000   1856968   1857774   1858602   1859497   1860470  
  8730.000000   1861520   1862658   1863896   1865248   1866691  
  8720.000000   1868153   1869501   1870575   1871222   1871369  
  8710.000000   1871045   1870412   1869703   1869168   1868990  
  8700.000000   1869233   1869855   1870718   1871699   1872716  
  8690.000000   1873819   1875134   1876828   1878999   1881601  
  8680.000000   1884417   1887084   1889202   1890427   1890593  
  8670.000000   1889733   1888096   1886073   1884113   1882627  
  8660.000000   1881892   1882026   1882976   1884555   1886478  
  8650.000000   1888423   1890085   1891236   1891776   1891745  
  8640.000000   1891331   1890803   1890464   1890571   1891290  
  8630.000000   1892650   1894542   1896774   1899119   1901386  
  8620.000000   1903443   1905221   1906707   1907903   1908819  
  8610.000000   1909429   1909706   1909625   1909209   1908551  
  8600.000000   1907812   1907234   1907059   1907524   1908738  
  8590.000000   1910703   1913252   1916105   1918885   1921219  
  8580.000000   1922815   1923502   1923269   1922238   1920649  
  8570.000000   1918791   1916941   1915326   1914094   1913326  
  8560.000000   1913035   1913188   1913712   1914507   1915434  
  8550.000000   1916340   1917071   1917506   1917594   1917361  
  8540.000000   1916931   1916493   1916269   1916450   1917144  
  8530.000000   1918357   1919993   1921889   1923851   1925701  
  8520.000000   1927316   1928614   1929557   1930104   1930232  
  8510.000000   1929920   1929190   1928126   1926910   1925812  
  8500.000000   1925144   1925189   1926120   1927942   1930456  
  8490.000000   1933323   1936124   1938480   1940132   1941021  
  8480.000000   1941283   1941206   1941123   1941324   1941979  
  8470.000000   1943100   1944544   1946066   1947402   1948323  
  8460.000000   1948700   1948512   1947840   1946832   1945654  
  8450.000000   1944461   1943384   1942524   1941975   1941812  
  8440.000000   1942108   1942900   1944172   1945828   1947693  
  8430.000000   1949551   1951195   1952494   1953437   1954146  
  8420.000000   1954845   1955782   1957121   1958902   1960998  
  8410.000000   1963172   1965123   1966598   1967458   1967698  
  8400.000000   1967432   1966797   1965902   1964770   1963359  
  8390.000000   1961599   1959469   1957073   1954656   1952598  
  8380.000000   1951282   1951036   1951968   1953981   1956723  
  8370.000000   1959722   1962470   1964569   1965817   1966205  
  8360.000000   1965905   1965139   1964130   1962985   1961721  
  8350.000000   1960267   1958572   1956657   1954658   1952828  
  8340.000000   1951447   1950765   1950873   1951712   1953047  
  8330.000000   1954564   1955943   1956956   1957521   1957695  
  8320.000000   1957638   1957526   1957511   1957656   1957944  
  8310.000000   1958276   1958529   1958584   1958362   1957844  
  8300.000000   1957053   1956078   1955030   1954059   1953285  
  8290.000000   1952807   1952654   1952790   1953104   1953434  
  8280.000000   1953590   1953406   1952773   1951675   1950176  
  8270.000000   1948417   1946578   1944848   1943383   1942282  
  8260.000000   1941563   1941169   1940985   1940862   1940655  
  8250.000000   1940241   1939553   1938575   1937352   1935969  
  8240.000000   1934543   1933202   1932076   1931283   1930911  
  8230.000000   1931001   1931525   1932385   1933411   1934405  
  8220.000000   1935168   1935553   1935494   1935009   1934183  
  8210.000000   1933124   1931925   1930641   1929293   1927894  
  8200.000000   1926472   1925097   1923851   1922830   1922062  
  8190.000000   1921522   1921083   1920600   1919929   1919015  
  8180.000000   1917896   1916696   1915573   1914640   1913919  
  8170.000000   1913311   1912629   1911655   1910236   1908334  
  8160.000000   1906063   1903648   1901363   1899456   1898078  
  8150.000000   1897259   1896904   1896842   1896876   1896838  
  8140.000000   1896630   1896219   1895633   1894919   1894137  
  8130.000000   1893321   1892501   1891685   1890892   1890145  
  8120.000000   1889482   1888951   1888587   1888415   1888414  
  8110.000000   1888541   1888714   1888835   1888804   1888524  
  8100.000000   1887926   1886960   1885620   1883935   1881991  
  8090.000000   1879910   1877856   1875994   1874470   1873378  
  8080.000000   1872735   1872494   1872541   1872750   1872992  
  8070.000000   1873183   1873279   1873279   1873211   1873104  
  8060.000000   1872988   1872865   1872725   1872530   1872234  
  8050.000000   1871782   1871131   1870270   1869232   1868102  
  8040.000000   1866997   1866042   1865326   1864870   1864609  
  8030.000000   1864409   1864113   1863590   1862788   1861749  
  8020.000000   1860589   1859460   1858493   1857774   1857325  
  8010.000000   1857136   1857184   1857459   1857955   1858644  
  8000.000000   1859447   1860210   1860732   1860803   1860284  
  7990.000000   1859152   1857531   1855651   1853791   1852190  
  7980.000000   1850993   1850232   1849843   1849729   1849794  
  7970.000000   1849982   1850248   1850548   1850799   1850889  
  7960.000000   1850709   1850197   1849397   1848451   1847583  
  7950.000000   1847001   1846842   1847097   1847623   1848189  
  7940.000000   1848554   1848568   1848206   1847580   1846875  
  7930.000000   1846284   1845934   1845847   1845958   1846136  
  7920.000000   1846245   1846178   1845878   1845344   1844611  
  7910.000000   1843751   1842857   1842047   1841450   1841184  
  7900.000000   1841323   1841861   1842696   1843640   1844459  
  7890.000000   1844937   1844942   1844459   1843606   1842578  
  7880.000000   1841604   1840866   1840463   1840396   1840590  
  7870.000000   1840943   1841347   1841749   1842124   1842493  
  7860.000000   1842877   1843291   1843724   1844136   1844465  
  7850.000000   1844631   1844556   1844169   1843433   1842360  
  7840.000000   1841031   1839592   1838231   1837143   1836464  
  7830.000000   1836239   1836389   1836736   1837053   1837141  
  7820.000000   1836888   1836309   1835529   1834732   1834092  
  7810.000000   1833707   1833577   1833610   1833681   1833677  
  7800.000000   1833550   1833322   1833063   1832858   1832754  
  7790.000000   1832754   1832803   1832835   1832783   1832622  
  7780.000000   1832363   1832045   1831714   1831398   1831098  
  7770.000000   1830787   1830423   1829961   1829371   1828637  
  7760.000000   1827766   1826791   1825763   1824761   1823868  
  7750.000000   1823179   1822764   1822666   1822875   1823331  
  7740.000000   1823928   1824532   1825002   1825209   1825066  
  7730.000000   1824527   1823615   1822402   1821020   1819623  
  7720.000000   1818371   1817385   1816727   1816383   1816273  
  7710.000000   1816289   1816322   1816306   1816222   1816105  
  7700.000000   1816005   1815969   1816015   1816131   1816285  
  7690.000000   1816444   1816589   1816707   1816786   1816787  
  7680.000000   1816649   1816291   1815650   1814711   1813534  
  7670.000000   1812248   1811021   1810007   1809298   1808902  
  7660.000000   1808736   1808676   1808597   1808426   1808155  
  7650.000000   1807836   1807543   1807337   1807236   1807206  
  7640.000000   1807191   1807120   1806955   1806682   1806333  
  7630.000000   1805950   1805584   1805273   1805043   1804909  
  7620.000000   1804880   1804964   1805157   1805451   1805814  
  7610.000000   1806207   1806574   1806872   1807066   1807145  
  7600.000000   1807113   1806978   1806748   1806404   1805917  
  7590.000000   1805237   1804326   1803173   1801822   1800382  
  7580.000000   1799010   1797894   1797200   1797036   1797418  
  7570.000000   1798262   1799403   1800634   1801768   1802675  
  7560.000000   1803316   1803721   1803979   1804177   1804391  
  7550.000000   1804646   1804942   1805252   1805562   1805870  
  7540.000000   1806198   1806575   1807017   1807517   1808038  
  7530.000000   1808519   1808900   1809137   1809222   1809189  
  7520.000000   1809113   1809098   1809257   1809691   1810447  
  7510.000000   1811518   1812817   1814207   1815528   1816632  
  7500.000000   1817439   1817931   1818184   1818294   1818371  
  7490.000000   1818457   1818553   1818600   1818547   1818391  
  7480.000000   1818209   1818166   1818459   1819275   1820707  
  7470.000000   1822733   1825199   1827865   1830470   1832788  
  7460.000000   1834684   1836108   1837109   1837774   1838230  
  7450.000000   1838580   1838922   1839314   1839804   1840414  
  7440.000000   1841156   1842030   1843034   1844181   1845481  
  7430.000000   1846959   1848624   1850461   1852418   1854410  
  7420.000000   1856337   1858100   1859638   1860935   1862030  
  7410.000000   1862993   1863903   1864822   1865785   1866793  
  7400.000000   1867825   1868853   1869845   1870784   1871662  
  7390.000000   1872485   1873275   1874069   1874915   1875866  
  7380.000000   1876959   1878202   1879558   1880958   1882317  
  7370.000000   1883565   1884678   1885679   1886642   1887657  
  7360.000000   1888802   1890108   1891556   1893085   1894617  
  7350.000000   1896083   1897446   1898705   1899889   1901032  
  7340.000000   1902165   1903299   1904433   1905560   1906670  
  7330.000000   1907757   1908816   1909843   1910834   1911796  
  7320.000000   1912743   1913713   1914746   1915879   1917123  
  7310.000000   1918446   1919775   1921003   1922026   1922769  
  7300.000000   1923218   1923422   1923485   1923534   1923691  
  7290.000000   1924039   1924610   1925380   1926288   1927260  
  7280.000000   1928225   1929147   1930008   1930830   1931648  
  7270.000000   1932511   1933456   1934501   1935641   1936825  
  7260.000000   1937992   1939043   1939894   1940464   1940723  
  7250.000000   1940680   1940416   1940057   1939771   1939731  
  7240.000000   1940086   1940924   1942259   1944026   1946112  
  7230.000000   1948375   1950692   1952960   1955128   1957159  
  7220.000000   1959052   1960790   1962382   1963823   1965156  
  7210.000000   1966433   1967752   1969206   1970884   1972824  
  7200.000000   1975018   1977411   1979931   1982512   1985125  
  7190.000000   1987762   1990452   1993202   1996007   1998811  
  7180.000000   2001547   2004133   2006533   2008751   2010866  
  7170.000000   2012983   2015239   2017738   2020546   2023653  
  7160.000000   2026997   2030460   2033926   2037286   2040491  
  7150.000000   2043538   2046502   2049487   2052637   2056062  
  7140.000000   2059836   2063939   2068306   2072811   2077346  
  7130.000000   2081820   2086208   2090520   2094811   2099120  
  7120.000000   2103493   2107926   2112423   2116963   2121553  
  7110.000000   2126193   2130906   2135695   2140564   2145497  
  7100.000000   2150495   2155556   2160709   2165970   2171347  
  7090.000000   2176800   2182262   2187638   2192860   2197904  
  7080.000000   2202832   2207758   2212827   2218141   2223734  
  7070.000000   2229533   2235407   2241196   2246793   2252162  
  7060.000000   2257356   2262478   2267646   2272940   2278393  
  7050.000000   2283992   2289698   2295471   2301282   2307109  
  7040.000000   2312922   2318673   2324299   2329739   2334959  
  7030.000000   2339969   2344826   2349622   2354449   2359381  
  7020.000000   2364445   2369634   2374904   2380209   2385491  
  7010.000000   2390711   2395819   2400785   2405577   2410188  
  7000.000000   2414626   2418926   2423124   2427255   2431323  
  6990.000000   2435321   2439216   2443000   2446673   2450282  
  6980.000000   2453869   2457487   2461138   2464803   2468411  
  6970.000000   2471906   2475235   2478396   2481402   2484289  
  6960.000000   2487067   2489728   2492233   2494549   2496657  
  6950.000000   2498591   2500404   2502181   2503976   2505827  
  6940.000000   2507719   2509633   2511534   2513420   2515290  
  6930.000000   2517162   2519030   2520869   2522623   2524239  
  6920.000000   2525678   2526942   2528061   2529094   2530093  
  6910.000000   2531093   2532102   2533122   2534146   2535192  
  6900.000000   2536272   2537399   2538554   2539692   2540743  
  6890.000000   2541649   2542378   2542958   2543455   2543963  
  6880.000000   2544554   2545269   2546100   2547013   2547960  
  6870.000000   2548908   2549836   2550729   2551562   2552288  
  6860.000000   2552852   2553210   2553362   2553370   2553343  
  6850.000000   2553412   2553683   2554204   2554948   2555839  
  6840.000000   2556774   2557676   2558503   2559254   2559941  
  6830.000000   2560568   2561113   2561538   2561807   2561914  
  6820.000000   2561894   2561816   2561760   2561787   2561912  
  6810.000000   2562116   2562342   2562544   2562686   2562767  
  6800.000000   2562796   2562786   2562733   2562617   2562411  
  6790.000000   2562100   2561695   2561235   2560777   2560376  
  6780.000000   2560069   2559871   2559771   2559752   2559790  
  6770.000000   2559871   2559975   2560083   2560162   2560173  
  6760.000000   2560074   2559836   2559452   2558938   2558332  
  6750.000000   2557681   2557030   2556415   2555858   2555367  
  6740.000000   2554936   2554550   2554185   2553815   2553416  
  6730.000000   2552981   2552515   2552041   2551587   2551178  
  6720.000000   2550823   2550509   2550209   2549892   2549538  
  6710.000000   2549142   2548716   2548279   2547839   2547396  
  6700.000000   2546933   2546439   2545908   2545357   2544809  
  6690.000000   2544291   2543808   2543338   2542827   2542215  
  6680.000000   2541448   2540510   2539418   2538232   2537018  
  6670.000000   2535844   2534749   2533749   2532825   2531954  
  6660.000000   2531095   2530217   2529280   2528255   2527112  
  6650.000000   2525836   2524424   2522896   2521287   2519643  
  6640.000000   2518003   2516399   2514845   2513349   2511908  
  6630.000000   2510527   2509204   2507938   2506714   2505510  
  6620.000000   2504292   2503031   2501707   2500318   2498879  
  6610.000000   2497414   2495941   2494467   2492990   2491498  
  6600.000000   2489986   2488459   2486929   2485414   2483921  
  6590.000000   2482446   2480973   2479484   2477971   2476441  
  6580.000000   2474917   2473427   2471994   2470625   2469308  
  6570.000000   2468022   2466746   2465470   2464197   2462936  
  6560.000000   2461697   2460478   2459266   2458042   2456793  
  6550.000000   2455516   2454228   2452953   2451717   2450531  
  6540.000000   2449391   2448279   2447171   2446050   2444908  
  6530.000000   2443751   2442592   2441444   2440318   2439219  
  6520.000000   2438152   2437120   2436127   2435170   2434240  
  6510.000000   2433316   2432373   2431383   2430335   2429231  
  6500.000000   2428092   2426946   2425821   2424731   2423676  
  6490.000000   2422643   2421620   2420603   2419601   2418639  
  6480.000000   2417740   2416927   2416199   2415539   2414915  
  6470.000000   2414284   2413613   2412877   2412068   2411195  
  6460.000000   2410276   2409332   2408382   2407436   2406499  
  6450.000000   2405561   2404615   2403654   2402680   2401710  
  6440.000000   2400769   2399886   2399086   2398372   2397733  
  6430.000000   2397135   2396542   2395921   2395255   2394544  
  6420.000000   2393806   2393059   2392324   2391607   2390918  
  6410.000000   2390262   2389659   2389129   2388698   2388378  
  6400.000000   2388163   2388022   2387909   2387773   2387579  
  6390.000000   2387316   2386998   2386653   2386311   2385989  
  6380.000000   2385683   2385371   2385024   2384617   2384142  
  6370.000000   2383611   2383051   2382494   2381969   2381492  
  6360.000000   2381061   2380663   2380270   2379858   2379399  
  6350.000000   2378882   2378304   2377680   2377033   2376396  
  6340.000000   2375796   2375250   2374758   2374303   2373857  
  6330.000000   2373391   2372880   2372318   2371706   2371061  
  6320.000000   2370395   2369719   2369029   2368316   2367562  
  6310.000000   2366754   2365882   2364950   2363966   2362947  
  6300.000000   2361900   2360833   2359736   2358599   2357405  
  6290.000000   2356146   2354820   2353449   2352059   2350689  
  6280.000000   2349366   2348108   2346903   2345728   2344538  
  6270.000000   2343294   2341966   2340546   2339045   2337489  
  6260.000000   2335907   2334323   2332753   2331202   2329664  
  6250.000000   2328135   2326599   2325047   2323463   2321835  
  6240.000000   2320158   2318442   2316711   2315003   2313352  
  6230.000000   2311785   2310304   2308889   2307501   2306100  
  6220.000000   2304657   2303165   2301636   2300090   2298545  
  6210.000000   2297003   2295453   2293879   2292271   2290634  
  6200.000000   2288991   2287372   2285803   2284293   2282834  
  6190.000000   2281407   2279992   2278581   2277183   2275810  
  6180.000000   2274471   2273163   2271864   2270546   2269185  
  6170.000000   2267777   2266340   2264904   2263504   2262161  
  6160.000000   2260876   2259634   2258415   2257206   2256006  
  6150.000000   2254822   2253661   2252518   2251371   2250189  
  6140.000000   2248944   2247628   2246259   2244870   2243506  
  6130.000000   2242198   2240958   2239774   2238626   2237496  
  6120.000000   2236383   2235300   2234271   2233312   2232430  
  6110.000000   2231612   2230836   2230077   2229321   2228556  
  6100.000000   2227786   2227009   2226227   2225434   2224637  
  6090.000000   2223846   2223092   2222406   2221822   2221350  
  6080.000000   2220987   2220704   2220473   2220265   2220079  
  6070.000000   2219918   2219810   2219766   2219798   2219893  
  6060.000000   2220042   2220225   2220446   2220706   2221024  
  6050.000000   2221404   2221855   2222367   2222939   2223563  
  6040.000000   2224256   2225029   2225907   2226887   2227965  
  6030.000000   2229110   2230299   2231508   2232741   2234013  
  6020.000000   2235356   2236789   2238322   2239934   2241600  
  6010.000000   2243281   2244958   2246615   2248263   2249903  
  6000.000000   2251551   2253203   2254870   2256553   2258278  
  5990.000000   2260066   2261955   2263961   2266096   2268342  
  5980.000000   2270680   2273080   2275532   2278031   2280594  
  5970.000000   2283226   2285936   2288710   2291535   2294385  
  5960.000000   2297254   2300135   2303041   2305968   2308921  
  5950.000000   2311878   2314828   2317754   2320665   2323588  
  5940.000000   2326566   2329646   2332862   2336224   2339715  
  5930.000000   2343297   2346922   2350547   2354133   2357650  
  5920.000000   2361076   2364387   2367564   2370596   2373480  
  5910.000000   2376230   2378869   2381425   2383927   2386400  
  5900.000000   2388862   2391337   2393840   2396401   2399034  
  5890.000000   2401752   2404543   2407387   2410244   2413078  
  5880.000000   2415854   2418549   2421145   2423623   2425964  
  5870.000000   2428144   2430148   2431976   2433655   2435236  
  5860.000000   2436784   2438366   2440030   2441802   2443680  
  5850.000000   2445657   2447716   2449849   2452050   2454313  
  5840.000000   2456622   2458949   2461262   2463532   2465745  
  5830.000000   2467905   2470034   2472153   2474276   2476403  
  5820.000000   2478518   2480604   2482646   2484650   2486625  
  5810.000000   2488593   2490556   2492515   2494444   2496335  
  5800.000000   2498163   2499949   2501693   2503426   2505132  
  5790.000000   2506801   2508364   2509763   2510907   2511737  
  5780.000000   2512182   2512209   2511781   2510895   2509555  
  5770.000000   2507814   2505745   2503472   2501119   2498820  
  5760.000000   2496662   2494709   2492960   2491403   2489993  
  5750.000000   2488707   2487515   2486411   2485382   2484417  
  5740.000000   2483502   2482618   2481760   2480922   2480114  
  5730.000000   2479331   2478574   2477824   2477070   2476301  
  5720.000000   2475536   2474802   2474146   2473602   2473186  
  5710.000000   2472881   2472650   2472444   2472230   2472000  
  5700.000000   2471772   2471577   2471443   2471379   2471365  
  5690.000000   2471372   2471361   2471313   2471218   2471092  
  5680.000000   2470943   2470779   2470584   2470337   2469995  
  5670.000000   2469533   2468915   2468127   2467148   2465970  
  5660.000000   2464583   2463001   2461248   2459382   2457463  
  5650.000000   2455565   2453738   2452016   2450398   2448869  
  5640.000000   2447404   2445986   2444605   2443261   2441955  
  5630.000000   2440684   2439440   2438215   2437009   2435828  
  5620.000000   2434691   2433613   2432608   2431667   2430775  
  5610.000000   2429902   2429027   2428139   2427241   2426346  
  5600.000000   2425469   2424621   2423805   2423016   2422250  
  5590.000000   2421506   2420783   2420076   2419374   2418656  
  5580.000000   2417892   2417060   2416148   2415165   2414136  
  5570.000000   2413097   2412077   2411096   2410153   2409236  
  5560.000000   2408325   2407405   2406464   2405495   2404492  
  5550.000000   2403450   2402362   2401224   2400042   2398835  
  5540.000000   2397626   2396444   2395307   2394224   2393188  
  5530.000000   2392190   2391215   2390257   2389309   2388368  
  5520.000000   2387426   2386471   2385489   2384468   2383406  
  5510.000000   2382310   2381192   2380062   2378922   2377766  
  5500.000000   2376583   2375372   2374140   2372913   2371717  
  5490.000000   2370576   2369487   2368429   2367356   2366225  
  5480.000000   2364996   2363658   2362220   2360710   2359158  
  5470.000000   2357594   2356029   2354470   2352913   2351356  
  5460.000000   2349790   2348208   2346592   2344927   2343194  
  5450.000000   2341391   2339530   2337641   2335762   2333930  
  5440.000000   2332166   2330477   2328857   2327296   2325793  
  5430.000000   2324343   2322948   2321593   2320256   2318900  
  5420.000000   2317507   2316071   2314633   2313250   2312001  
  5410.000000   2310935   2310073   2309377   2308799   2308274  
  5400.000000   2307782   2307318   2306926   2306636   2306486  
  5390.000000   2306465   2306557   2306718   2306941   2307226  
  5380.000000   2307628   2308185   2308951   2309922   2311086  
  5370.000000   2312376   2313760   2315177   2316635   2318122  
  5360.000000   2319685   2321328   2323111   2325041   2327194  
  5350.000000   2329593   2332331   2335429   2338959   2342894  
  5340.000000   2347261   2351992   2357106   2362546   2368352  
  5330.000000   2374477   2380967   2387769   2394931   2402411  
  5320.000000   2410300   2418599   2427439   2436831   2446892  
  5310.000000   2457581   2468956   2480925   2493527   2506683  
  5300.000000   2520470   2534864   2549991   2565859   2582596  
  5290.000000   2600182   2618672   2637953   2657974   2678553  
  5280.000000   2699619   2721053   2742903   2765194   2788080  
  5270.000000   2811625   2835893   2860786   2886150   2911743  
  5260.000000   2937361   2962867   2988236   3013530   3038818  
  5250.000000   3064149   3089445   3114577   3139298   3163445  
  5240.000000   3186836   3209487   3231393   3252714   3273493  
  5230.000000   3293849   3313715   3333082   3351774   3369742  
  5220.000000   3386844   3403130   3418576   3433344   3447476  
  5210.000000   3461134   3474296   3487016   3499151   3510678  
  5200.000000   3521440   3531474   3540722   3549310   3557231  
  5190.000000   3564599   3571360   3577559   3583100   3588026  
  5180.000000   3592283   3595969   3599071   3601688   3603780  
  5170.000000   3605397   3606472   3607056   3607119   3606762  
  5160.000000   3605996   3604921   3603516   3601825   3599782  
  5150.000000   3597407   3594656   3591585   3588191   3584543  
  5140.000000   3580636   3576513   3572148   3567571   3562773  
  5130.000000   3557804   3552676   3547436   3542078   3536616  
  5120.000000   3531020   3525297   3519438   3513484   3507464  
  5110.000000   3501434   3495423   3489458   3483538   3477663  
  5100.000000   3471820   3466011   3460236   3454506   3448823  
  5090.000000   3443192   3437609   3432076   3426590   3421153  
  5080.000000   3415763   3410417   3405099   3399794   3394478  
  5070.000000   3389141   3383770   3378368   3372930   3367457  
  5060.000000   3361934   3356346   3350668   3344891   3339007  
  5050.000000   3333032   3326979   3320874   3314726   3308548  
  5040.000000   3302337   3296099   3289838   3283573   3277322  
  5030.000000   3271107   3264940   3258824   3252749   3246701  
  5020.000000   3240668   3234644   3228640   3222664   3216748  
  5010.000000   3210906   3205169   3199547   3194068   3188736  
  5000.000000   3183577   3178583   3173772   3169126   3164657  
  4990.000000   3160346   3156222   3152280   3148568   3145091  
  4980.000000   3141893   3138958   3136311   3133915   3131784  
  4970.000000   3129888   3128262   3126893   3125835   3125079  
  4960.000000   3124673   3124589   3124860   3125446   3126377  
  4950.000000   3127611   3129180   3131043   3133228   3135696  
  4940.000000   3138479   3141544   3144935   3148629   3152669  
  4930.000000   3157025   3161724   3166719   3172028   3177610  
  4920.000000   3183490   3189643   3196103   3202849   3209905  
  4910.000000   3217240   3224865   3232746   3240886   3249256  
  4900.000000   3257850   3266635   3275585   3284656   3293807  
  4890.000000   3302992   3312163   3321281   3330298   3339182  
  4880.000000   3347880   3356370   3364605   3372576   3380244  
  4870.000000   3387609   3394627   3401296   3407565   3413440  
  4860.000000   3418883   3423928   3428566   3432856   3436802  
  4850.000000   3440463   3443836   3446965   3449844   3452517  
  4840.000000   3454985   3457302   3459479   3461568   3463577  
  4830.000000   3465542   3467463   3469361   3471228   3473074  
  4820.000000   3474889   3476680   3478440   3480179   3481901  
  4810.000000   3483621   3485350   3487098   3488864   3490642  
  4800.000000   3492418   3494175   3495902   3497596   3499262  
  4790.000000   3500913   3502562   3504224   3505904   3507610  
  4780.000000   3509339   3511094   3512867   3514653   3516430  
  4770.000000   3518178   3519860   3521449   3522911   3524237  
  4760.000000   3525417   3526469   3527400   3528234   3528976  
  4750.000000   3529638   3530208   3530692   3531073   3531357  
  4740.000000   3531533   3531609   3531579   3531453   3531228  
  4730.000000   3530917   3530524   3530067   3529552   3528994  
  4720.000000   3528395   3527762   3527098   3526408   3525705  
  4710.000000   3525005   3524336   3523720   3523185   3522748  
  4700.000000   3522424   3522215   3522127   3522156   3522309  
  4690.000000   3522588   3523004   3523557   3524251   3525065  
  4680.000000   3525978   3526940   3527909   3528828   3529670  
  4670.000000   3530408   3531060   3531644   3532217   3532818  
  4660.000000   3533503   3534298   3535233   3536312   3537550  
  4650.000000   3538945   3540510   3542246   3544158   3546239  
  4640.000000   3548477   3550849   3553332   3555900   3558531  
  4630.000000   3561205   3563897   3566579   3569215   3571765  
  4620.000000   3574187   3576443   3578504   3580359   3582002  
  4610.000000   3583449   3584712   3585824   3586805   3587696  
  4600.000000   3588517   3589307   3590078   3590854   3591624  
  4590.000000   3592391   3593121   3593798   3594377   3594835  
  4580.000000   3595135   3595263   3595200   3594957   3594538  
  4570.000000   3593978   3593299   3592537   3591709   3590838  
  4560.000000   3589918   3588956   3587939   3586870   3585743  
  4550.000000   3584570   3583349   3582089   3580783   3579430  
  4540.000000   3578024   3576569   3575074   3573558   3572048  
  4530.000000   3570562   3569127   3567746   3566439   3565197  
  4520.000000   3564046   3562983   3562050   3561246   3560623  
  4510.000000   3560179   3559972   3560001   3560342   3561006  
  4500.000000   3562086   3563592   3565612   3568135   3571227  
  4490.000000   3574855   3579079   3583863   3589272   3595275  
  4480.000000   3601931   3609194   3617106   3625597   3634692  
  4470.000000   3644314   3654480   3665117   3676234   3687754  
  4460.000000   3699674   3711911   3724445   3737198   3750145  
  4450.000000   3763219   3776403   3789652   3802959   3816305  
  4440.000000   3829686   3843096   3856519   3869947   3883337  
  4430.000000   3896674   3909897   3922991   3935884   3948567  
  4420.000000   3960959   3973046   3984735   3996004   4006748  
  4410.000000   4016940   4026475   4035335   4043432   4050780  
  4400.000000   4057334   4063157   4068263   4072764   4076718  
  4390.000000   4080256   4083447   4086414   4089210   4091931  
  4380.000000   4094617   4097342   4100136   4103064   4106155  
  4370.000000   4109461   4113004   4116807   4120870   4125181  
  4360.000000   4129713   4134437   4139307   4144301   4149364  
  4350.000000   4154482   4159585   4164670   4169666   4174593  
  4340.000000   4179400   4184111   4188647   4192933   4196741  
  4330.000000   4199799   4201715   4202138   4200759   4197483  
  4320.000000   4192415   4185932   4178560   4170940   4163636  
  4310.000000   4157114   4151605   4147189   4143757   4141155  
  4300.000000   4139186   4137701   4136589   4135777   4135229  
  4290.000000   4134893   4134755   4134768   4134939   4135253  
  4280.000000   4135739   4136402   4137251   4138277   4139450  
  4270.000000   4140746   4142109   4143492   4144792   4145881  
  4260.000000   4146564   4146629   4145846   4144054   4141170  
  4250.000000   4137258   4132489   4127150   4121554   4116025  
  4240.000000   4110800   4106058   4101849   4098172   4094941  
  4230.000000   4092063   4089416   4086893   4084400   4081856  
  4220.000000   4079225   4076484   4073675   4070841   4068089  
  4210.000000   4065491   4063152   4061117   4059430   4058077  
  4200.000000   4057044   4056271   4055721   4055326   4055054  
  4190.000000   4054845   4054690   4054547   4054433   4054331  
  4180.000000   4054288   4054305   4054454   4054751   4055280  
  4170.000000   4056069   4057210   4058731   4060711   4063154  
  4160.000000   4066109   4069541   4073467   4077829   4082643  
  4150.000000   4087856   4093499   4099531   4105996   4112852  
  4140.000000   4120142   4127820   4135928   4144416   4153320  
  4130.000000   4162582   4172224   4182181   4192475   4203062  
  4120.000000   4213989   4225250   4236924   4249025   4261626  
  4110.000000   4274720   4288333   4302411   4316926   4331789  
  4100.000000   4346943   4362297   4377805   4393408   4409093  
  4090.000000   4424848   4440685   4456613   4472639   4488768  
  4080.000000   4504981   4521277   4537616   4553989   4570333  
  4070.000000   4586619   4602748   4618673   4634278   4649528  
  4060.000000   4664324   4678662   4692463   4705747   4718443  
  4050.000000   4730600   4742176   4753269   4763866   4774077  
  4040.000000   4783854   4793248   4802130   4810489   4818170  
  4030.000000   4825179   4831405   4836898   4841586   4845519  
  4020.000000   4848605   4850905   4852403   4853198   4853269  
  4010.000000   4852775   4851804   4850384   4848300   4845602  
  4000.000000   4842586  
##END= 
