##TITLE= Sample 008 By ssteindl date Montag, November 26 2018
##JCAMP-DX= 4.24
##DATA TYPE= INFRARED SPECTRUM
##ORIGIN= Exported PE Spectrum Data File
##OWNER= Sandra Steindl
##DATE= 18/11/26
##TIME= 13:36:14.00
##SPECTROMETER/DATA SYSTEM= PERKIN-ELMER Frontier FT-IR/NIR IR
##INSTRUMENT PARAMETERS=
  APODIZATION=stark
  DETECTOR=INGAAS
##RESOLUTION= 16.000000
##DELTAX= -2.000000
##XUNITS= 1/CM
##YUNITS= A
##XFACTOR= 1.00
##YFACTOR= 0.00000011920928955078
##FIRSTX= 10000.00
##LASTX= 4000.00
##NPOINTS= 3001
##FIRSTY= 0.232222
##MAXY= 0.596069
##MINY= 0.205586
##XYDATA= (X++(Y..Y))
 10000.000000   1948016   1945807   1942823   1938326   1932868  
  9990.000000   1927409   1922252   1917217   1912490   1908768  
  9980.000000   1906614   1906331   1907914   1911122   1915433  
  9970.000000   1920255   1925167   1929784   1933727   1936325  
  9960.000000   1936804   1934280   1928305   1919062   1907638  
  9950.000000   1895845   1885756   1879204   1877166   1879708  
  9940.000000   1885937   1894520   1903962   1912997   1920654  
  9930.000000   1926223   1929233   1929336   1926516   1921055  
  9920.000000   1913766   1905783   1898440   1892877   1889750  
  9910.000000   1889166   1890647   1893549   1897137   1900962  
  9900.000000   1904694   1908149   1911052   1913006   1913556  
  9890.000000   1912284   1909096   1904170   1898125   1891661  
  9880.000000   1885559   1880333   1876263   1873349   1871393  
  9870.000000   1870174   1869475   1869270   1869656   1870945  
  9860.000000   1873484   1877616   1883421   1890622   1898505  
  9850.000000   1905985   1911936   1915388   1915951   1913759  
  9840.000000   1909513   1904078   1898258   1892531   1887054  
  9830.000000   1881836   1876943   1872743   1869813   1868869  
  9820.000000   1870290   1874015   1879305   1885061   1890098  
  9810.000000   1893585   1895275   1895426   1894649   1893463  
  9800.000000   1892178   1890726   1888888   1886441   1883379  
  9790.000000   1879976   1876673   1873964   1872151   1871345  
  9780.000000   1871424   1872216   1873537   1875229   1877086  
  9770.000000   1878738   1879716   1879507   1877838   1874813  
  9760.000000   1870975   1867179   1864277   1862892   1863175  
  9750.000000   1864892   1867531   1870576   1873645   1876524  
  9740.000000   1879052   1880933   1881664   1880575   1877144  
  9730.000000   1871227   1863378   1854708   1846724   1840781  
  9720.000000   1837740   1837680   1839926   1843359   1846774  
  9710.000000   1849366   1850898   1851766   1852728   1854590  
  9700.000000   1857906   1862743   1868729   1875074   1880874  
  9690.000000   1885247   1887615   1887784   1885979   1882814  
  9680.000000   1879084   1875672   1873264   1872287   1872741  
  9670.000000   1874291   1876286   1878009   1878768   1878138  
  9660.000000   1875975   1872480   1868113   1863483   1859223  
  9650.000000   1855822   1853513   1852212   1851552   1851057  
  9640.000000   1850303   1849147   1847766   1846626   1846278  
  9630.000000   1847092   1849044   1851604   1853885   1854899  
  9620.000000   1853952   1850901   1846244   1840969   1836205  
  9610.000000   1832904   1831550   1832094   1834035   1836580  
  9600.000000   1838904   1840276   1840221   1838516   1835207  
  9590.000000   1830587   1825158   1819614   1814750   1811324  
  9580.000000   1809912   1810714   1813543   1817795   1822643  
  9570.000000   1827180   1830609   1832383   1832264   1830378  
  9560.000000   1827185   1823447   1820130   1818223   1818523  
  9550.000000   1821361   1826434   1832777   1838979   1843533  
  9540.000000   1845276   1843702   1839128   1832565   1825422  
  9530.000000   1819086   1814548   1812241   1812027   1813458  
  9520.000000   1815951   1819054   1822424   1825866   1829152  
  9510.000000   1832024   1834146   1835180   1834910   1833267  
  9500.000000   1830446   1826777   1822712   1818672   1814985  
  9490.000000   1811889   1809488   1807861   1806998   1806886  
  9480.000000   1807420   1808433   1809665   1810774   1811415  
  9470.000000   1811249   1810094   1807875   1804773   1801089  
  9460.000000   1797313   1793952   1791495   1790293   1790489  
  9450.000000   1792050   1794744   1798291   1802351   1806678  
  9440.000000   1811056   1815346   1819400   1823024   1825971  
  9430.000000   1827924   1828619   1827843   1825572   1821928  
  9420.000000   1817234   1811935   1806555   1801613   1797507  
  9410.000000   1794510   1792669   1791911   1791999   1792703  
  9400.000000   1793773   1795073   1796529   1798138   1799892  
  9390.000000   1801718   1803461   1804886   1805757   1805885  
  9380.000000   1805197   1803724   1801623   1799120   1796504  
  9370.000000   1794026   1791850   1789995   1788304   1786519  
  9360.000000   1784320   1781490   1777994   1774111   1770406  
  9350.000000   1767603   1766355   1766946   1769175   1772307  
  9340.000000   1775329   1777198   1777237   1775315   1771937  
  9330.000000   1768042   1764698   1762743   1762584   1764149  
  9320.000000   1767028   1770629   1774347   1777661   1780171  
  9310.000000   1781615   1781849   1780889   1778952   1776468  
  9300.000000   1774034   1772228   1771438   1771670   1772564  
  9290.000000   1773532   1774004   1773671   1772549   1771004  
  9280.000000   1769521   1768546   1768277   1768633   1769368  
  9270.000000   1770204   1771005   1771756   1772499   1773179  
  9260.000000   1773594   1773456   1772536   1770835   1768662  
  9250.000000   1766599   1765303   1765247   1766496   1768661  
  9240.000000   1771068   1773018   1774055   1774078   1773292  
  9230.000000   1772061   1770695   1769360   1768052   1766744  
  9220.000000   1765533   1764715   1764703   1765804   1767995  
  9210.000000   1770849   1773611   1775443   1775702   1774190  
  9200.000000   1771257   1767642   1764245   1761799   1760697  
  9190.000000   1760932   1762149   1763854   1765537   1766875  
  9180.000000   1767734   1768193   1768447   1768753   1769333  
  9170.000000   1770270   1771448   1772523   1773031   1772478  
  9160.000000   1770555   1767294   1763137   1758856   1755284  
  9150.000000   1753100   1752580   1753556   1755453   1757553  
  9140.000000   1759211   1760065   1760030   1759260   1758002  
  9130.000000   1756483   1754868   1753235   1751671   1750244  
  9120.000000   1749041   1748023   1747040   1745810   1744087  
  9110.000000   1741756   1738961   1736114   1733800   1732555  
  9100.000000   1732657   1734030   1736310   1739010   1741727  
  9090.000000   1744280   1746750   1749338   1752203   1755284  
  9080.000000   1758289   1760777   1762347   1762810   1762274  
  9070.000000   1761117   1759846   1758919   1758593   1758910  
  9060.000000   1759704   1760692   1761503   1761797   1761287  
  9050.000000   1759822   1757390   1754212   1750742   1747605  
  9040.000000   1745427   1744653   1745394   1747342   1749834  
  9030.000000   1752080   1753409   1753516   1752508   1750869  
  9020.000000   1749259   1748288   1748322   1749368   1751127  
  9010.000000   1753086   1754707   1755536   1755320   1754058  
  9000.000000   1751981   1749510   1747108   1745223   1744137  
  8990.000000   1743921   1744405   1745253   1746114   1746702  
  8980.000000   1746880   1746643   1746063   1745181   1743958  
  8970.000000   1742308   1740224   1737862   1735591   1733925  
  8960.000000   1733366   1734187   1736281   1739155   1742114  
  8950.000000   1744465   1745782   1745980   1745317   1744189  
  8940.000000   1742960   1741823   1740830   1740001   1739454  
  8930.000000   1739454   1740328   1742313   1745344   1749003  
  8920.000000   1752568   1755282   1756629   1756518   1755318  
  8910.000000   1753641   1752114   1751081   1750541   1750205  
  8900.000000   1749729   1748941   1747927   1747039   1746658  
  8890.000000   1747056   1748217   1749905   1751774   1753537  
  8880.000000   1755065   1756344   1757396   1758121   1758290  
  8870.000000   1757600   1755878   1753247   1750193   1747469  
  8860.000000   1745832   1745790   1747384   1750185   1753437  
  8850.000000   1756350   1758355   1759236   1759117   1758281  
  8840.000000   1757028   1755539   1753903   1752183   1750541  
  8830.000000   1749262   1748712   1749191   1750767   1753219  
  8820.000000   1756048   1758669   1760566   1761490   1761495  
  8810.000000   1760883   1760067   1759390   1759048   1759026  
  8800.000000   1759174   1759266   1759110   1758604   1757754  
  8790.000000   1756674   1755538   1754578   1753999   1753968  
  8780.000000   1754533   1755614   1757018   1758471   1759718  
  8770.000000   1760571   1760967   1760953   1760651   1760192  
  8760.000000   1759688   1759205   1758807   1758566   1758584  
  8750.000000   1758956   1759717   1760795   1762005   1763104  
  8740.000000   1763873   1764210   1764168   1763929   1763737  
  8730.000000   1763776   1764120   1764687   1765325   1765871  
  8720.000000   1766252   1766498   1766712   1767006   1767435  
  8710.000000   1767989   1768631   1769337   1770155   1771174  
  8700.000000   1772477   1774058   1775770   1777350   1778506  
  8690.000000   1779064   1779062   1778777   1778640   1779069  
  8680.000000   1780311   1782320   1784775   1787167   1788999  
  8670.000000   1789931   1789903   1789113   1787938   1786805  
  8660.000000   1786068   1785965   1786583   1787919   1789880  
  8650.000000   1792333   1795084   1797906   1800557   1802808  
  8640.000000   1804484   1805492   1805847   1805617   1804928  
  8630.000000   1803893   1802657   1801372   1800239   1799484  
  8620.000000   1799332   1799943   1801330   1803359   1805732  
  8610.000000   1808111   1810193   1811836   1813088   1814162  
  8600.000000   1815348   1816873   1818834   1821122   1823486  
  8590.000000   1825586   1827128   1827926   1827972   1827414  
  8580.000000   1826526   1825635   1825049   1824998   1825588  
  8570.000000   1826794   1828463   1830367   1832237   1833862  
  8560.000000   1835115   1836018   1836705   1837387   1838259  
  8550.000000   1839429   1840875   1842431   1843861   1844918  
  8540.000000   1845445   1845402   1844884   1844086   1843237  
  8530.000000   1842550   1842160   1842133   1842462   1843103  
  8520.000000   1843988   1845046   1846215   1847429   1848625  
  8510.000000   1849732   1850693   1851454   1851993   1852316  
  8500.000000   1852482   1852587   1852770   1853191   1854007  
  8490.000000   1855328   1857176   1859464   1861997   1864508  
  8480.000000   1866714   1868391   1869439   1869903   1869947  
  8470.000000   1869800   1869689   1869774   1870113   1870683  
  8460.000000   1871408   1872218   1873057   1873906   1874744  
  8450.000000   1875540   1876214   1876672   1876837   1876692  
  8440.000000   1876322   1875884   1875576   1875547   1875842  
  8430.000000   1876377   1876970   1877423   1877609   1877540  
  8420.000000   1877373   1877346   1877683   1878483   1879681  
  8410.000000   1881040   1882248   1883025   1883244   1882965  
  8400.000000   1882415   1881925   1881801   1882264   1883346  
  8390.000000   1884950   1886868   1888885   1890809   1892495  
  8380.000000   1893848   1894778   1895208   1895027   1894144  
  8370.000000   1892502   1890162   1887302   1884222   1881306  
  8360.000000   1878941   1877484   1877138   1877964   1879805  
  8350.000000   1882380   1885286   1888110   1890477   1892110  
  8340.000000   1892872   1892747   1891845   1890322   1888397  
  8330.000000   1886273   1884169   1882259   1880688   1879545  
  8320.000000   1878854   1878587   1878636   1878890   1879220  
  8310.000000   1879565   1879913   1880310   1880826   1881502  
  8300.000000   1882342   1883261   1884126   1884767   1885049  
  8290.000000   1884899   1884337   1883467   1882453   1881490  
  8280.000000   1880746   1880337   1880280   1880510   1880875  
  8270.000000   1881189   1881263   1880974   1880294   1879310  
  8260.000000   1878188   1877122   1876252   1875626   1875174  
  8250.000000   1874746   1874166   1873335   1872264   1871099  
  8240.000000   1870043   1869286   1868906   1868837   1868870  
  8230.000000   1868721   1868134   1866952   1865191   1863006  
  8220.000000   1860646   1858369   1856373   1854766   1853557  
  8210.000000   1852705   1852132   1851788   1851625   1851620  
  8200.000000   1851726   1851878   1851975   1851899   1851536  
  8190.000000   1850783   1849595   1847959   1845944   1843654  
  8180.000000   1841248   1838893   1836742   1834913   1833462  
  8170.000000   1832400   1831682   1831261   1831074   1831086  
  8160.000000   1831254   1831539   1831871   1832162   1832311  
  8150.000000   1832225   1831862   1831221   1830364   1829359  
  8140.000000   1828271   1827115   1825876   1824512   1822994  
  8130.000000   1821345   1819631   1817976   1816495   1815299  
  8120.000000   1814435   1813916   1813703   1813741   1813957  
  8110.000000   1814252   1814507   1814561   1814248   1813417  
  8100.000000   1811999   1810031   1807682   1805224   1802967  
  8090.000000   1801189   1800053   1799588   1799670   1800090  
  8080.000000   1800589   1800934   1800949   1800545   1799719  
  8070.000000   1798530   1797096   1795544   1794009   1792578  
  8060.000000   1791306   1790181   1789157   1788180   1787215  
  8050.000000   1786289   1785470   1784867   1784560   1784579  
  8040.000000   1784861   1785275   1785657   1785858   1785805  
  8030.000000   1785484   1784951   1784252   1783418   1782412  
  8020.000000   1781188   1779696   1777966   1776106   1774304  
  8010.000000   1772780   1771713   1771208   1771262   1771794  
  8000.000000   1772673   1773770   1774969   1776183   1777319  
  7990.000000   1778280   1778965   1779286   1779217   1778793  
  7980.000000   1778129   1777361   1776607   1775907   1775210  
  7970.000000   1774406   1773381   1772100   1770633   1769164  
  7960.000000   1767923   1767118   1766838   1767040   1767547  
  7950.000000   1768126   1768563   1768738   1768649   1768394  
  7940.000000   1768117   1767937   1767912   1768008   1768137  
  7930.000000   1768177   1768034   1767655   1767048   1766270  
  7920.000000   1765403   1764550   1763802   1763244   1762929  
  7910.000000   1762878   1763066   1763423   1763841   1764190  
  7900.000000   1764347   1764222   1763784   1763065   1762161  
  7890.000000   1761209   1760368   1759776   1759535   1759677  
  7880.000000   1760163   1760886   1761691   1762415   1762919  
  7870.000000   1763129   1763048   1762753   1762367   1762024  
  7860.000000   1761821   1761800   1761936   1762154   1762362  
  7850.000000   1762478   1762451   1762266   1761932   1761462  
  7840.000000   1760864   1760131   1759261   1758266   1757194  
  7830.000000   1756136   1755218   1754572   1754309   1754483  
  7820.000000   1755068   1755963   1757002   1758001   1758793  
  7810.000000   1759270   1759414   1759284   1759004   1758713  
  7800.000000   1758522   1758480   1758561   1758686   1758754  
  7790.000000   1758690   1758461   1758097   1757649   1757183  
  7780.000000   1756716   1756244   1755715   1755091   1754358  
  7770.000000   1753554   1752755   1752048   1751479   1751028  
  7760.000000   1750599   1750049   1749236   1748076   1746591  
  7750.000000   1744900   1743204   1741715   1740601   1739935  
  7740.000000   1739678   1739702   1739833   1739911   1739832  
  7730.000000   1739575   1739200   1738814   1738537   1738453  
  7720.000000   1738587   1738887   1739250   1739541   1739647  
  7710.000000   1739493   1739072   1738434   1737669   1736876  
  7700.000000   1736132   1735477   1734909   1734404   1733930  
  7690.000000   1733470   1733029   1732639   1732334   1732146  
  7680.000000   1732079   1732113   1732200   1732279   1732295  
  7670.000000   1732206   1731997   1731684   1731309   1730926  
  7660.000000   1730593   1730347   1730193   1730094   1729983  
  7650.000000   1729773   1729396   1728820   1728069   1727217  
  7640.000000   1726370   1725641   1725118   1724853   1724851  
  7630.000000   1725090   1725528   1726118   1726810   1727542  
  7620.000000   1728236   1728796   1729131   1729164   1728878  
  7610.000000   1728310   1727571   1726800   1726147   1725721  
  7600.000000   1725572   1725696   1726031   1726504   1727036  
  7590.000000   1727569   1728060   1728487   1728830   1729073  
  7580.000000   1729202   1729203   1729072   1728809   1728433  
  7570.000000   1727963   1727439   1726897   1726385   1725941  
  7560.000000   1725591   1725336   1725157   1725016   1724881  
  7550.000000   1724740   1724621   1724581   1724699   1725035  
  7540.000000   1725610   1726390   1727305   1728258   1729180  
  7530.000000   1730029   1730817   1731572   1732330   1733096  
  7520.000000   1733851   1734554   1735181   1735730   1736244  
  7510.000000   1736787   1737416   1738158   1739000   1739897  
  7500.000000   1740803   1741693   1742585   1743520   1744537  
  7490.000000   1745641   1746789   1747900   1748892   1749720  
  7480.000000   1750415   1751073   1751823   1752781   1753998  
  7470.000000   1755443   1757013   1758569   1759998   1761232  
  7460.000000   1762268   1763136   1763885   1764549   1765149  
  7450.000000   1765708   1766275   1766937   1767818   1769036  
  7440.000000   1770662   1772678   1774968   1777345   1779602  
  7430.000000   1781572   1783172   1784422   1785436   1786363  
  7420.000000   1787353   1788495   1789819   1791288   1792828  
  7410.000000   1794356   1795804   1797145   1798381   1799551  
  7400.000000   1800704   1801897   1803172   1804547   1806013  
  7390.000000   1807536   1809069   1810561   1811982   1813324  
  7380.000000   1814612   1815884   1817183   1818531   1819922  
  7370.000000   1821327   1822703   1824019   1825275   1826507  
  7360.000000   1827782   1829175   1830740   1832482   1834351  
  7350.000000   1836242   1838028   1839593   1840884   1841918  
  7340.000000   1842789   1843632   1844589   1845763   1847188  
  7330.000000   1848838   1850631   1852479   1854296   1856037  
  7320.000000   1857690   1859266   1860778   1862218   1863556  
  7310.000000   1864748   1865757   1866577   1867241   1867827  
  7300.000000   1868429   1869147   1870046   1871149   1872419  
  7290.000000   1873776   1875110   1876315   1877304   1878041  
  7280.000000   1878540   1878872   1879140   1879461   1879928  
  7270.000000   1880590   1881437   1882408   1883414   1884362  
  7260.000000   1885195   1885893   1886483   1887007   1887520  
  7250.000000   1888051   1888627   1889249   1889940   1890719  
  7240.000000   1891628   1892701   1893961   1895398   1896987  
  7230.000000   1898690   1900490   1902386   1904410   1906580  
  7220.000000   1908904   1911329   1913781   1916144   1918335  
  7210.000000   1920304   1922088   1923773   1925488   1927340  
  7200.000000   1929398   1931662   1934091   1936622   1939212  
  7190.000000   1941844   1944541   1947327   1950229   1953230  
  7180.000000   1956295   1959358   1962375   1965309   1968174  
  7170.000000   1970991   1973818   1976688   1979646   1982699  
  7160.000000   1985858   1989108   1992443   1995844   1999307  
  7150.000000   2002828   2006427   2010130   2013990   2018044  
  7140.000000   2022329   2026824   2031489   2036227   2040956  
  7130.000000   2045585   2050090   2054469   2058791   2063126  
  7120.000000   2067568   2072174   2076992   2082020   2087258  
  7110.000000   2092671   2098240   2103919   2109678   2115467  
  7100.000000   2121259   2127028   2132783   2138538   2144333  
  7090.000000   2150189   2156126   2162131   2168187   2174261  
  7080.000000   2180335   2186396   2192446   2198485   2204518  
  7070.000000   2210541   2216552   2222550   2228544   2234541  
  7060.000000   2240548   2246549   2252518   2258412   2264200  
  7050.000000   2269872   2275452   2280995   2286570   2292233  
  7040.000000   2298010   2303894   2309845   2315820   2321777  
  7030.000000   2327697   2333571   2339401   2345182   2350908  
  7020.000000   2356565   2362156   2367688   2373182   2378644  
  7010.000000   2384068   2389409   2394614   2399623   2404414  
  7000.000000   2408999   2413441   2417808   2422171   2426545  
  6990.000000   2430923   2435252   2439502   2443653   2447742  
  6980.000000   2451811   2455915   2460056   2464205   2468273  
  6970.000000   2472181   2475852   2479272   2482461   2485485  
  6960.000000   2488395   2491241   2494026   2496750   2499391  
  6950.000000   2501952   2504432   2506851   2509203   2511485  
  6940.000000   2513667   2515740   2517698   2519575   2521413  
  6930.000000   2523270   2525173   2527127   2529094   2531022  
  6920.000000   2532848   2534535   2536058   2537429   2538666  
  6910.000000   2539812   2540910   2542017   2543187   2544468  
  6900.000000   2545874   2547383   2548917   2550374   2551644  
  6890.000000   2552661   2553416   2553980   2554469   2555012  
  6880.000000   2555703   2556576   2557599   2558698   2559781  
  6870.000000   2560772   2561630   2562348   2562942   2563440  
  6860.000000   2563869   2564263   2564651   2565069   2565543  
  6850.000000   2566089   2566702   2567366   2568054   2568755  
  6840.000000   2569473   2570230   2571043   2571910   2572790  
  6830.000000   2573610   2574286   2574759   2575014   2575101  
  6820.000000   2575109   2575145   2575287   2575567   2575963  
  6810.000000   2576427   2576901   2577352   2577766   2578152  
  6800.000000   2578511   2578832   2579079   2579213   2579202  
  6790.000000   2579042   2578755   2578383   2577970   2577551  
  6780.000000   2577145   2576763   2576412   2576109   2575868  
  6770.000000   2575695   2575574   2575467   2575322   2575097  
  6760.000000   2574772   2574365   2573925   2573508   2573157  
  6750.000000   2572880   2572655   2572442   2572204   2571931  
  6740.000000   2571633   2571342   2571083   2570861   2570654  
  6730.000000   2570418   2570109   2569698   2569183   2568589  
  6720.000000   2567956   2567332   2566750   2566235   2565794  
  6710.000000   2565429   2565129   2564882   2564663   2564445  
  6700.000000   2564197   2563899   2563534   2563098   2562586  
  6690.000000   2561994   2561307   2560511   2559592   2558562  
  6680.000000   2557451   2556317   2555211   2554180   2553230  
  6670.000000   2552342   2551466   2550554   2549567   2548496  
  6660.000000   2547346   2546134   2544869   2543553   2542179  
  6650.000000   2540755   2539304   2537879   2536534   2535322  
  6640.000000   2534258   2533325   2532469   2531626   2530731  
  6630.000000   2529740   2528629   2527387   2526009   2524492  
  6620.000000   2522837   2521067   2519225   2517384   2515615  
  6610.000000   2513982   2512500   2511150   2509868   2508589  
  6600.000000   2507261   2505874   2504450   2503032   2501655  
  6590.000000   2500328   2499031   2497723   2496368   2494946  
  6580.000000   2493467   2491958   2490451   2488962   2487489  
  6570.000000   2486013   2484512   2482976   2481411   2479838  
  6560.000000   2478287   2476781   2475335   2473950   2472624  
  6550.000000   2471354   2470134   2468960   2467822   2466700  
  6540.000000   2465576   2464431   2463264   2462084   2460911  
  6530.000000   2459762   2458647   2457560   2456490   2455427  
  6520.000000   2454374   2453345   2452365   2451449   2450594  
  6510.000000   2449772   2448940   2448052   2447082   2446032  
  6500.000000   2444932   2443828   2442762   2441756   2440806  
  6490.000000   2439887   2438968   2438024   2437048   2436046  
  6480.000000   2435038   2434042   2433079   2432160   2431298  
  6470.000000   2430496   2429757   2429068   2428404   2427728  
  6460.000000   2427000   2426191   2425295   2424336   2423359  
  6450.000000   2422421   2421571   2420832   2420202   2419648  
  6440.000000   2419127   2418586   2417984   2417290   2416491  
  6430.000000   2415586   2414594   2413550   2412508   2411528  
  6420.000000   2410673   2409989   2409497   2409187   2409024  
  6410.000000   2408958   2408937   2408916   2408869   2408780  
  6400.000000   2408649   2408474   2408261   2408014   2407741  
  6390.000000   2407446   2407136   2406812   2406474   2406122  
  6380.000000   2405758   2405391   2405036   2404707   2404407  
  6370.000000   2404129   2403847   2403531   2403158   2402722  
  6360.000000   2402242   2401753   2401295   2400892   2400543  
  6350.000000   2400225   2399900   2399537   2399118   2398650  
  6340.000000   2398147   2397631   2397105   2396565   2395994  
  6330.000000   2395384   2394734   2394062   2393390   2392736  
  6320.000000   2392099   2391461   2390790   2390061   2389264  
  6310.000000   2388414   2387541   2386677   2385838   2385020  
  6300.000000   2384194   2383330   2382399   2381400   2380338  
  6290.000000   2379238   2378113   2376973   2375807   2374605  
  6280.000000   2373353   2372053   2370710   2369335   2367930  
  6270.000000   2366492   2365008   2363470   2361876   2360243  
  6260.000000   2358593   2356953   2355339   2353753   2352176  
  6250.000000   2350591   2348975   2347322   2345635   2343929  
  6240.000000   2342219   2340521   2338841   2337184   2335551  
  6230.000000   2333939   2332339   2330735   2329104   2327424  
  6220.000000   2325680   2323873   2322026   2320172   2318352  
  6210.000000   2316592   2314906   2313286   2311718   2310189  
  6200.000000   2308700   2307257   2305871   2304537   2303234  
  6190.000000   2301918   2300543   2299077   2297516   2295889  
  6180.000000   2294249   2292650   2291132   2289707   2288361  
  6170.000000   2287068   2285806   2284568   2283363   2282207  
  6160.000000   2281108   2280062   2279044   2278020   2276960  
  6150.000000   2275846   2274680   2273471   2272236   2270983  
  6140.000000   2269717   2268436   2267140   2265841   2264557  
  6130.000000   2263312   2262121   2260992   2259918   2258884  
  6120.000000   2257871   2256867   2255863   2254854   2253838  
  6110.000000   2252800   2251735   2250632   2249495   2248338  
  6100.000000   2247192   2246090   2245066   2244136   2243309  
  6090.000000   2242578   2241933   2241360   2240855   2240411  
  6080.000000   2240030   2239704   2239429   2239189   2238981  
  6070.000000   2238788   2238616   2238455   2238319   2238209  
  6060.000000   2238142   2238126   2238184   2238322   2238558  
  6050.000000   2238888   2239314   2239822   2240414   2241085  
  6040.000000   2241853   2242730   2243741   2244887   2246171  
  6030.000000   2247565   2249048   2250580   2252140   2253703  
  6020.000000   2255269   2256830   2258394   2259959   2261540  
  6010.000000   2263141   2264787   2266488   2268268   2270124  
  6000.000000   2272056   2274038   2276052   2278070   2280090  
  5990.000000   2282116   2284174   2286289   2288496   2290811  
  5980.000000   2293254   2295818   2298502   2301283   2304144  
  5970.000000   2307045   2309961   2312856   2315720   2318549  
  5960.000000   2321373   2324221   2327139   2330147   2333260  
  5950.000000   2336459   2339726   2343030   2346360   2349717  
  5940.000000   2353118   2356582   2360120   2363730   2367395  
  5930.000000   2371085   2374772   2378431   2382045   2385604  
  5920.000000   2389095   2392504   2395815   2399013   2402090  
  5910.000000   2405050   2407903   2410667   2413358   2415992  
  5900.000000   2418580   2421143   2423695   2426267   2428875  
  5890.000000   2431538   2434248   2436992   2439738   2442460  
  5880.000000   2445132   2447748   2450303   2452796   2455221  
  5870.000000   2457566   2459813   2461954   2463993   2465952  
  5860.000000   2467868   2469779   2471715   2473692   2475715  
  5850.000000   2477784   2479900   2482074   2484319   2486646  
  5840.000000   2489053   2491527   2494041   2496569   2499095  
  5830.000000   2501619   2504149   2506698   2509265   2511830  
  5820.000000   2514360   2516815   2519164   2521399   2523532  
  5810.000000   2525592   2527603   2529593   2531553   2533488  
  5800.000000   2535375   2537224   2539024   2540801   2542537  
  5790.000000   2544237   2545845   2547322   2548581   2549563  
  5780.000000   2550185   2550402   2550159   2549443   2548247  
  5770.000000   2546615   2544603   2542321   2539872   2537382  
  5760.000000   2534940   2532630   2530487   2528543   2526795  
  5750.000000   2525243   2523866   2522640   2521523   2520467  
  5740.000000   2519430   2518380   2517323   2516276   2515292  
  5730.000000   2514405   2513648   2513013   2512479   2511997  
  5720.000000   2511531   2511050   2510552   2510042   2509542  
  5710.000000   2509061   2508611   2508188   2507795   2507433  
  5700.000000   2507111   2506837   2506616   2506445   2506313  
  5690.000000   2506209   2506117   2506037   2505959   2505884  
  5680.000000   2505789   2505657   2505449   2505139   2504697  
  5670.000000   2504113   2503375   2502483   2501421   2500177  
  5660.000000   2498732   2497087   2495258   2493293   2491254  
  5650.000000   2489217   2487242   2485378   2483641   2482038  
  5640.000000   2480557   2479186   2477908   2476701   2475539  
  5630.000000   2474390   2473226   2472022   2470778   2469505  
  5620.000000   2468235   2466996   2465815   2464698   2463645  
  5610.000000   2462639   2461667   2460718   2459784   2458858  
  5600.000000   2457935   2457004   2456061   2455106   2454153  
  5590.000000   2453220   2452327   2451480   2450668   2449861  
  5580.000000   2449025   2448127   2447155   2446119   2445044  
  5570.000000   2443963   2442898   2441859   2440842   2439839  
  5560.000000   2438843   2437857   2436885   2435930   2434983  
  5550.000000   2434026   2433033   2431987   2430886   2429746  
  5540.000000   2428598   2427470   2426380   2425327   2424294  
  5530.000000   2423265   2422227   2421184   2420151   2419146  
  5520.000000   2418175   2417233   2416296   2415337   2414332  
  5510.000000   2413271   2412155   2410994   2409795   2408567  
  5500.000000   2407314   2406049   2404788   2403558   2402375  
  5490.000000   2401242   2400132   2399000   2397787   2396455  
  5480.000000   2394985   2393404   2391757   2390109   2388501  
  5470.000000   2386952   2385447   2383953   2382429   2380850  
  5460.000000   2379199   2377474   2375672   2373791   2371825  
  5450.000000   2369778   2367668   2365534   2363424   2361386  
  5440.000000   2359454   2357635   2355918   2354282   2352709  
  5430.000000   2351182   2349695   2348229   2346769   2345280  
  5420.000000   2343750   2342173   2340595   2339074   2337699  
  5410.000000   2336525   2335583   2334836   2334235   2333706  
  5400.000000   2333215   2332745   2332332   2332007   2331815  
  5390.000000   2331756   2331832   2332008   2332282   2332647  
  5380.000000   2333140   2333774   2334582   2335540   2336637  
  5370.000000   2337817   2339072   2340373   2341760   2343240  
  5360.000000   2344870   2346645   2348610   2350746   2353107  
  5350.000000   2355702   2358622   2361892   2365599   2369731  
  5340.000000   2374331   2379340   2384785   2390604   2396832  
  5330.000000   2403406   2410355   2417605   2425192   2433065  
  5320.000000   2441320   2449969   2459165   2468935   2479413  
  5310.000000   2490565   2502451   2514969   2528152   2541915  
  5300.000000   2556335   2571388   2587204   2603792   2621286  
  5290.000000   2639664   2658992   2679158   2700123   2721702  
  5280.000000   2743826   2766360   2789335   2812754   2836756  
  5270.000000   2861389   2886720   2912656   2939056   2965691  
  5260.000000   2992365   3018945   3045403   3071799   3098195  
  5250.000000   3124635   3151029   3177244   3203022   3228199  
  5240.000000   3252599   3276251   3299173   3321543   3343419  
  5230.000000   3364919   3385958   3406496   3426320   3445355  
  5220.000000   3463445   3480646   3496954   3512558   3527515  
  5210.000000   3542000   3555982   3569500   3582392   3594620  
  5200.000000   3606018   3616626   3626392   3635454   3643814  
  5190.000000   3651599   3658758   3665345   3671263   3676555  
  5180.000000   3681157   3685157   3688534   3691388   3693688  
  5170.000000   3695508   3696802   3697644   3698011   3697995  
  5160.000000   3697576   3696817   3695660   3694124   3692134  
  5150.000000   3689721   3686858   3683624   3680035   3676173  
  5140.000000   3672041   3667693   3663111   3658342   3653388  
  5130.000000   3648306   3643101   3637812   3632412   3626898  
  5120.000000   3621231   3615413   3609441   3603359   3597200  
  5110.000000   3591014   3584822   3578644   3572476   3566322  
  5100.000000   3560185   3554084   3548035   3542059   3536161  
  5090.000000   3530340   3524583   3518880   3513219   3507596  
  5080.000000   3502006   3496445   3490899   3485355   3479800  
  5070.000000   3474230   3468646   3463059   3457476   3451899  
  5060.000000   3446312   3440699   3435029   3429287   3423458  
  5050.000000   3417549   3411563   3405513   3399396   3393217  
  5040.000000   3386966   3380651   3374279   3367873   3361451  
  5030.000000   3355032   3348621   3342213   3335798   3329371  
  5020.000000   3322941   3316524   3310160   3303879   3297720  
  5010.000000   3291696   3285822   3280087   3274496   3269033  
  5000.000000   3263716   3258539   3253530   3248686   3244033  
  4990.000000   3239562   3235300   3231231   3227384   3223741  
  4980.000000   3220331   3217131   3214177   3211452   3209008  
  4970.000000   3206842   3205014   3203516   3202396   3201620  
  4960.000000   3201214   3201129   3201388   3201955   3202868  
  4950.000000   3204100   3205695   3207614   3209887   3212468  
  4940.000000   3215386   3218608   3222181   3226083   3230363  
  4930.000000   3234987   3239977   3245282   3250913   3256826  
  4920.000000   3263053   3269573   3276429   3283602   3291115  
  4910.000000   3298926   3307032   3315379   3323954   3332712  
  4900.000000   3341645   3350719   3359923   3369230   3378622  
  4890.000000   3388076   3397568   3407072   3416546   3425952  
  4880.000000   3435228   3444330   3453190   3461779   3470043  
  4870.000000   3477971   3485516   3492679   3499420   3505756  
  4860.000000   3511669   3517206   3522373   3527234   3531796  
  4850.000000   3536109   3540160   3543984   3547562   3550930  
  4840.000000   3554085   3557075   3559905   3562614   3565201  
  4830.000000   3567689   3570070   3572366   3574580   3576738  
  4820.000000   3578853   3580951   3583042   3585146   3587270  
  4810.000000   3589428   3591622   3593859   3596129   3598423  
  4800.000000   3600718   3602996   3605241   3607446   3609613  
  4790.000000   3611753   3613874   3615984   3618079   3620159  
  4780.000000   3622210   3624230   3626211   3628158   3630063  
  4770.000000   3631929   3633742   3635499   3637182   3638790  
  4760.000000   3640310   3641747   3643088   3644331   3645453  
  4750.000000   3646450   3647300   3648013   3648589   3649054  
  4740.000000   3649421   3649714   3649929   3650066   3650104  
  4730.000000   3650032   3649837   3649528   3649116   3648629  
  4720.000000   3648090   3647520   3646926   3646312   3645676  
  4710.000000   3645020   3644357   3643708   3643109   3642593  
  4700.000000   3642198   3641947   3641860   3641936   3642172  
  4690.000000   3642548   3643048   3643645   3644322   3645052  
  4680.000000   3645820   3646601   3647387   3648156   3648906  
  4670.000000   3649619   3650303   3650949   3651576   3652190  
  4660.000000   3652824   3653500   3654261   3655135   3656161  
  4650.000000   3657359   3658745   3660314   3662058   3663947  
  4640.000000   3665959   3668064   3670241   3672473   3674751  
  4630.000000   3677064   3679401   3681744   3684071   3686357  
  4620.000000   3688573   3690693   3692690   3694545   3696233  
  4610.000000   3697743   3699055   3700174   3701098   3701858  
  4600.000000   3702473   3702991   3703436   3703848   3704233  
  4590.000000   3704608   3704959   3705287   3705566   3705789  
  4580.000000   3705925   3705963   3705869   3705632   3705232  
  4570.000000   3704677   3703971   3703149   3702228   3701242  
  4560.000000   3700196   3699097   3697927   3696677   3695331  
  4550.000000   3693894   3692371   3690787   3689163   3687520  
  4540.000000   3685870   3684220   3682576   3680944   3679343  
  4530.000000   3677786   3676306   3674911   3673626   3672440  
  4520.000000   3671369   3670391   3669533   3668786   3668209  
  4510.000000   3667813   3667682   3667834   3668360   3669269  
  4500.000000   3670645   3672475   3674832   3677687   3681105  
  4490.000000   3685053   3689602   3694723   3700496   3706893  
  4480.000000   3713986   3721735   3730188   3739280   3749031  
  4470.000000   3759352   3770240   3781593   3793395   3805548  
  4460.000000   3818034   3830771   3843752   3856910   3870242  
  4450.000000   3883693   3897255   3910885   3924571   3938290  
  4440.000000   3952033   3965799   3979576   3993371   4007158  
  4430.000000   4020938   4034657   4048302   4061785   4075070  
  4420.000000   4088043   4100653   4112776   4124371   4135328  
  4410.000000   4145630   4155194   4164030   4172079   4179379  
  4400.000000   4185905   4191731   4196882   4201475   4205573  
  4390.000000   4209316   4212779   4216089   4219302   4222508  
  4380.000000   4225730   4229022   4232383   4235847   4239415  
  4370.000000   4243118   4246974   4251015   4255257   4259718  
  4360.000000   4264391   4269263   4274294   4279451   4284662  
  4350.000000   4289894   4295063   4300160   4305122   4309985  
  4340.000000   4314719   4319370   4323871   4328148   4331967  
  4330.000000   4335041   4336965   4337379   4335975   4332672  
  4320.000000   4327591   4321131   4313832   4306336   4299198  
  4310.000000   4292861   4287530   4283256   4279912   4277334  
  4300.000000   4275327   4273756   4272528   4271591   4270924  
  4290.000000   4270489   4270276   4270238   4270376   4270666  
  4280.000000   4271125   4271746   4272526   4273453   4274496  
  4270.000000   4275640   4276842   4278071   4279239   4280227  
  4260.000000   4280837   4280839   4279980   4278065   4274982  
  4250.000000   4270777   4265620   4259820   4253727   4247714  
  4240.000000   4242062   4236979   4232526   4228687   4225348  
  4230.000000   4222380   4219636   4216997   4214374   4211708  
  4220.000000   4208984   4206192   4203376   4200562   4197829  
  4210.000000   4195219   4192818   4190656   4188785   4187198  
  4200.000000   4185901   4184850   4184023   4183363   4182855  
  4190.000000   4182450   4182153   4181931   4181806   4181750  
  4180.000000   4181798   4181929   4182196   4182600   4183223  
  4170.000000   4184094   4185317   4186928   4189019   4191596  
  4160.000000   4194711   4198324   4202453   4207034   4212081  
  4150.000000   4217536   4223428   4229706   4236409   4243486  
  4140.000000   4250978   4258838   4267109   4275751   4284808  
  4130.000000   4294235   4304066   4314247   4324805   4335698  
  4120.000000   4346967   4358595   4370643   4383112   4396061  
  4110.000000   4409476   4423386   4437745   4452538   4467687  
  4100.000000   4483149   4498836   4514703   4530685   4546763  
  4090.000000   4562915   4579151   4595475   4611899   4628434  
  4080.000000   4645069   4661806   4678606   4695454   4712272  
  4070.000000   4729017   4745576   4761895   4777864   4793463  
  4060.000000   4808616   4823346   4837590   4851375   4864619  
  4050.000000   4877345   4889473   4901061   4912057   4922549  
  4040.000000   4932474   4941891   4950690   4958894   4966382  
  4030.000000   4973197   4979251   4984607   4989187   4993030  
  4020.000000   4996022   4998210   4999565   5000185   5000051  
  4010.000000   4999328   4998104   4996409   4994029   4991019  
  4000.000000   4987685  
##END= 
