##TITLE= Sample 002 By ssteindl date Montag, November 26 2018
##JCAMP-DX= 4.24
##DATA TYPE= INFRARED SPECTRUM
##ORIGIN= Exported PE Spectrum Data File
##OWNER= Sandra Steindl
##DATE= 18/11/26
##TIME= 14:04:35.00
##SPECTROMETER/DATA SYSTEM= PERKIN-ELMER Frontier FT-IR/NIR IR
##INSTRUMENT PARAMETERS=
  APODIZATION=stark
  DETECTOR=INGAAS
##RESOLUTION= 16.000000
##DELTAX= -2.000000
##XUNITS= 1/CM
##YUNITS= A
##XFACTOR= 1.00
##YFACTOR= 0.00000011920928955078
##FIRSTX= 10000.00
##LASTX= 4000.00
##NPOINTS= 3001
##FIRSTY= 0.220093
##MAXY= 0.607657
##MINY= 0.195325
##XYDATA= (X++(Y..Y))
 10000.000000   1846274   1844023   1841554   1838717   1835853  
  9990.000000   1833691   1832971   1834193   1837504   1842518  
  9980.000000   1848276   1853413   1856667   1857212   1854989  
  9970.000000   1850663   1845438   1840591   1837081   1835276  
  9960.000000   1834993   1835719   1836931   1838332   1839840  
  9950.000000   1841502   1843203   1844652   1845387   1845099  
  9940.000000   1843832   1842118   1840777   1840555   1841727  
  9930.000000   1843875   1846053   1847126   1846324   1843522  
  9920.000000   1839284   1834551   1830160   1826507   1823426  
  9910.000000   1820492   1817398   1814352   1812073   1811541  
  9900.000000   1813394   1817547   1822972   1828055   1831195  
  9890.000000   1831406   1828777   1824259   1819320   1815154  
  9880.000000   1812292   1810407   1808639   1806139   1802562  
  9870.000000   1798360   1794578   1792497   1792999   1796281  
  9860.000000   1801680   1807968   1813736   1817797   1819529  
  9850.000000   1818821   1816057   1811824   1806802   1801643  
  9840.000000   1796931   1793149   1790635   1789512   1789713  
  9830.000000   1790971   1792897   1795032   1796863   1797917  
  9820.000000   1797788   1796271   1793473   1789869   1786313  
  9810.000000   1783840   1783416   1785569   1790164   1796324  
  9800.000000   1802680   1807761   1810486   1810481   1808141  
  9790.000000   1804443   1800516   1797326   1795364   1794732  
  9780.000000   1795208   1796534   1798469   1800832   1803375  
  9770.000000   1805681   1807181   1807226   1805336   1801323  
  9760.000000   1795436   1788231   1780485   1772974   1766423  
  9750.000000   1761484   1758737   1758695   1761590   1767267  
  9740.000000   1774959   1783396   1791034   1796506   1799088  
  9730.000000   1798879   1796784   1794041   1791792   1790579  
  9720.000000   1790306   1790360   1790066   1789066   1787467  
  9710.000000   1785797   1784584   1784125   1784224   1784385  
  9700.000000   1784044   1782928   1781187   1779300   1777789  
  9690.000000   1776891   1776434   1775932   1774927   1773294  
  9680.000000   1771389   1769880   1769378   1770075   1771549  
  9670.000000   1772957   1773391   1772382   1770120   1767434  
  9660.000000   1765397   1764833   1765918   1768076   1770230  
  9650.000000   1771237   1770371   1767545   1763280   1758382  
  9640.000000   1753610   1749420   1745961   1743222   1741201  
  9630.000000   1739990   1739688   1740258   1741393   1742576  
  9620.000000   1743244   1743071   1742151   1740970   1740218  
  9610.000000   1740378   1741531   1743170   1744500   1744688  
  9600.000000   1743330   1740580   1737137   1733944   1731795  
  9590.000000   1731108   1731790   1733469   1735679   1738152  
  9580.000000   1740835   1743810   1747077   1750389   1753248  
  9570.000000   1755021   1755208   1753602   1750441   1746262  
  9560.000000   1741801   1737714   1734472   1732291   1731148  
  9550.000000   1730929   1731450   1732582   1734181   1736132  
  9540.000000   1738274   1740478   1742615   1744630   1746475  
  9530.000000   1748098   1749397   1750222   1750442   1749992  
  9520.000000   1748933   1747415   1745610   1743612   1741387  
  9510.000000   1738799   1735700   1732055   1728001   1723875  
  9500.000000   1720076   1716991   1714819   1713577   1713116  
  9490.000000   1713239   1713805   1714722   1715942   1717308  
  9480.000000   1718565   1719316   1719218   1718063   1715985  
  9470.000000   1713406   1711009   1709464   1709251   1710478  
  9460.000000   1712892   1715984   1719181   1722023   1724254  
  9450.000000   1725839   1726892   1727593   1728107   1728573  
  9440.000000   1729087   1729725   1730538   1731534   1732656  
  9430.000000   1733784   1734746   1735389   1735590   1735316  
  9420.000000   1734560   1733365   1731748   1729770   1727530  
  9410.000000   1725249   1723207   1721730   1721017   1721089  
  9400.000000   1721690   1722371   1722588   1721896   1720087  
  9390.000000   1717255   1713738   1709982   1706375   1703145  
  9380.000000   1700348   1697929   1695832   1694062   1692693  
  9370.000000   1691794   1691338   1691155   1690950   1690403  
  9360.000000   1689287   1687564   1685436   1683265   1681487  
  9350.000000   1680410   1680144   1680529   1681232   1681828  
  9340.000000   1681949   1681348   1679989   1678030   1675813  
  9330.000000   1673747   1672224   1671494   1671627   1672492  
  9320.000000   1673801   1675184   1676300   1676961   1677189  
  9310.000000   1677206   1677325   1677811   1678787   1680160  
  9300.000000   1681666   1682924   1683587   1683425   1682432  
  9290.000000   1680797   1678853   1676971   1675467   1674536  
  9280.000000   1674216   1674413   1674928   1675555   1676119  
  9270.000000   1676550   1676866   1677182   1677628   1678305  
  9260.000000   1679195   1680160   1680963   1681353   1681159  
  9250.000000   1680336   1678999   1677345   1675597   1673883  
  9240.000000   1672223   1670516   1668631   1666470   1664061  
  9230.000000   1661585   1659341   1657668   1656820   1656922  
  9220.000000   1657944   1659742   1662106   1664791   1667565  
  9210.000000   1670210   1672553   1674451   1675814   1676626  
  9200.000000   1676960   1676972   1676858   1676802   1676926  
  9190.000000   1677267   1677747   1678201   1678396   1678105  
  9180.000000   1677159   1675487   1673135   1670263   1667132  
  9170.000000   1664064   1661363   1659268   1657887   1657232  
  9160.000000   1657208   1657701   1658580   1659752   1661137  
  9150.000000   1662650   1664175   1665518   1666471   1666811  
  9140.000000   1666425   1665293   1663550   1661410   1659154  
  9130.000000   1657032   1655231   1653867   1652991   1652640  
  9120.000000   1652808   1653474   1654527   1655811   1657101  
  9110.000000   1658177   1658852   1659033   1658753   1658120  
  9100.000000   1657302   1656410   1655498   1654519   1653393  
  9090.000000   1652049   1650484   1648797   1647153   1645759  
  9080.000000   1644796   1644379   1644531   1645172   1646147  
  9070.000000   1647228   1648174   1648761   1648845   1648394  
  9060.000000   1647523   1646498   1645697   1645499   1646162  
  9050.000000   1647738   1650034   1652649   1655056   1656772  
  9040.000000   1657499   1657197   1656081   1654527   1652947  
  9030.000000   1651652   1650755   1650179   1649727   1649195  
  9020.000000   1648475   1647605   1646761   1646177   1646023  
  9010.000000   1646326   1646910   1647466   1647646   1647236  
  9000.000000   1646265   1645032   1644026   1643782   1644674  
  8990.000000   1646758   1649684   1652794   1655322   1656619  
  8980.000000   1656380   1654711   1652124   1649319   1646956  
  8970.000000   1645439   1644827   1644865   1645130   1645228  
  8960.000000   1644965   1644415   1643858   1643670   1644130  
  8950.000000   1645329   1647096   1649080   1650872   1652135  
  8940.000000   1652723   1652690   1652274   1651785   1651485  
  8930.000000   1651518   1651852   1652333   1652737   1652868  
  8920.000000   1652625   1652031   1651212   1650324   1649482  
  8910.000000   1648713   1647952   1647071   1645960   1644592  
  8900.000000   1643068   1641610   1640483   1639935   1640092  
  8890.000000   1640944   1642320   1643965   1645621   1647077  
  8880.000000   1648223   1649005   1649434   1649488   1649124  
  8870.000000   1648266   1646886   1645041   1642941   1640900  
  8860.000000   1639310   1638507   1638685   1639813   1641619  
  8850.000000   1643676   1645512   1646774   1647329   1647312  
  8840.000000   1647074   1647064   1647685   1649140   1651389  
  8830.000000   1654123   1656915   1659283   1660886   1661532  
  8820.000000   1661252   1660227   1658727   1657070   1655544  
  8810.000000   1654443   1654019   1654527   1656134   1658894  
  8800.000000   1662639   1666999   1671407   1675221   1677865  
  8790.000000   1678963   1678462   1676610   1673917   1670973  
  8780.000000   1668344   1666435   1665460   1665437   1666217  
  8770.000000   1667575   1669228   1670933   1672464   1673692  
  8760.000000   1674566   1675137   1675532   1675888   1676340  
  8750.000000   1676908   1677548   1678103   1678416   1678355  
  8740.000000   1677903   1677163   1676333   1675666   1675387  
  8730.000000   1675673   1676603   1678178   1680311   1682847  
  8720.000000   1685577   1688239   1690566   1692304   1693317  
  8710.000000   1693590   1693300   1692717   1692171   1691915  
  8700.000000   1692083   1692662   1693532   1694570   1695696  
  8690.000000   1696966   1698498   1700451   1702891   1705754  
  8680.000000   1708830   1711806   1714372   1716281   1717426  
  8670.000000   1717817   1717576   1716875   1715921   1714929  
  8660.000000   1714115   1713689   1713806   1714546   1715839  
  8650.000000   1717485   1719171   1720592   1721534   1721965  
  8640.000000   1722037   1722014   1722173   1722670   1723499  
  8630.000000   1724483   1725386   1726008   1726308   1726408  
  8620.000000   1726563   1727037   1727994   1729430   1731169  
  8610.000000   1732952   1734531   1735786   1736762   1737650  
  8600.000000   1738702   1740124   1741993   1744220   1746573  
  8590.000000   1748748   1750457   1751505   1751844   1751580  
  8580.000000   1750941   1750236   1749764   1749763   1750346  
  8570.000000   1751489   1753029   1754710   1756238   1757361  
  8560.000000   1757944   1757990   1757650   1757159   1756797  
  8550.000000   1756779   1757230   1758126   1759350   1760718  
  8540.000000   1762061   1763285   1764408   1765561   1766939  
  8530.000000   1768731   1771049   1773868   1777015   1780200  
  8520.000000   1783098   1785436   1787080   1788072   1788619  
  8510.000000   1789014   1789549   1790406   1791613   1793032  
  8500.000000   1794424   1795528   1796163   1796297   1796049  
  8490.000000   1795679   1795477   1795716   1796550   1798010  
  8480.000000   1799988   1802295   1804711   1807029   1809087  
  8470.000000   1810784   1812076   1812976   1813539   1813858  
  8460.000000   1814050   1814249   1814577   1815124   1815908  
  8450.000000   1816893   1817975   1819044   1819983   1820729  
  8440.000000   1821257   1821598   1821795   1821886   1821898  
  8430.000000   1821835   1821716   1821562   1821422   1821346  
  8420.000000   1821367   1821489   1821664   1821839   1821969  
  8410.000000   1822084   1822286   1822736   1823587   1824910  
  8400.000000   1826635   1828528   1830238   1831403   1831781  
  8390.000000   1831331   1830241   1828886   1827700   1827058  
  8380.000000   1827126   1827852   1828977   1830152   1831041  
  8370.000000   1831421   1831227   1830538   1829515   1828325  
  8360.000000   1827084   1825847   1824631   1823453   1822359  
  8350.000000   1821440   1820803   1820551   1820711   1821243  
  8340.000000   1822006   1822828   1823517   1823930   1823991  
  8330.000000   1823694   1823099   1822273   1821290   1820179  
  8320.000000   1818954   1817605   1816137   1814584   1813027  
  8310.000000   1811585   1810384   1809540   1809109   1809094  
  8300.000000   1809433   1810026   1810762   1811534   1812260  
  8290.000000   1812872   1813322   1813554   1813525   1813207  
  8280.000000   1812617   1811827   1810969   1810198   1809661  
  8270.000000   1809446   1809544   1809853   1810187   1810354  
  8260.000000   1810200   1809683   1808866   1807913   1807024  
  8250.000000   1806385   1806102   1806170   1806476   1806831  
  8240.000000   1807032   1806912   1806382   1805449   1804203  
  8230.000000   1802801   1801407   1800183   1799227   1798586  
  8220.000000   1798231   1798096   1798072   1798054   1797933  
  8210.000000   1797628   1797080   1796253   1795140   1793747  
  8200.000000   1792107   1790257   1788256   1786162   1784038  
  8190.000000   1781955   1779986   1778226   1776767   1775704  
  8180.000000   1775081   1774895   1775051   1775387   1775686  
  8170.000000   1775725   1775334   1774434   1773078   1771411  
  8160.000000   1769645   1767979   1766550   1765401   1764484  
  8150.000000   1763697   1762929   1762113   1761237   1760346  
  8140.000000   1759491   1758705   1757967   1757208   1756341  
  8130.000000   1755289   1754031   1752602   1751086   1749588  
  8120.000000   1748193   1746955   1745878   1744948   1744140  
  8110.000000   1743438   1742826   1742270   1741697   1740986  
  8100.000000   1739989   1738569   1736654   1734287   1731640  
  8090.000000   1728987   1726638   1724845   1723731   1723245  
  8080.000000   1723184   1723253   1723158   1722687   1721763  
  8070.000000   1720446   1718905   1717340   1715941   1714820  
  8060.000000   1714019   1713498   1713180   1712965   1712771  
  8050.000000   1712538   1712242   1711898   1711541   1711230  
  8040.000000   1711014   1710930   1710982   1711134   1711319  
  8030.000000   1711453   1711460   1711283   1710901   1710322  
  8020.000000   1709567   1708667   1707646   1706534   1705368  
  8010.000000   1704205   1703115   1702169   1701413   1700854  
  8000.000000   1700446   1700106   1699732   1699242   1698591  
  7990.000000   1697781   1696857   1695878   1694908   1693988  
  7980.000000   1693156   1692434   1691852   1691432   1691189  
  7970.000000   1691113   1691156   1691252   1691325   1691330  
  7960.000000   1691266   1691181   1691150   1691234   1691440  
  7950.000000   1691707   1691916   1691926   1691637   1691019  
  7940.000000   1690137   1689124   1688139   1687302   1686660  
  7930.000000   1686177   1685756   1685291   1684719   1684050  
  7920.000000   1683372   1682813   1682498   1682491   1682766  
  7910.000000   1683206   1683640   1683895   1683866   1683541  
  7900.000000   1683027   1682491   1682119   1682033   1682245  
  7890.000000   1682652   1683069   1683305   1683242   1682887  
  7880.000000   1682379   1681943   1681798   1682076   1682751  
  7870.000000   1683646   1684484   1684982   1684960   1684401  
  7860.000000   1683458   1682404   1681530   1681059   1681074  
  7850.000000   1681510   1682189   1682890   1683421   1683656  
  7840.000000   1683563   1683169   1682540   1681746   1680853  
  7830.000000   1679918   1679005   1678192   1677564   1677200  
  7820.000000   1677146   1677403   1677909   1678557   1679208  
  7810.000000   1679726   1680000   1679972   1679640   1679057  
  7800.000000   1678322   1677545   1676832   1676257   1675845  
  7790.000000   1675580   1675399   1675227   1674988   1674635  
  7780.000000   1674150   1673549   1672862   1672122   1671350  
  7770.000000   1670541   1669684   1668759   1667759   1666704  
  7760.000000   1665638   1664637   1663778   1663146   1662794  
  7750.000000   1662745   1662969   1663393   1663903   1664356  
  7740.000000   1664614   1664547   1664076   1663169   1661864  
  7730.000000   1660253   1658486   1656739   1655199   1654024  
  7720.000000   1653318   1653107   1653326   1653833   1654435  
  7710.000000   1654937   1655186   1655115   1654755   1654219  
  7700.000000   1653671   1653268   1653125   1653274   1653673  
  7690.000000   1654216   1654773   1655216   1655447   1655409  
  7680.000000   1655082   1654477   1653629   1652598   1651463  
  7670.000000   1650316   1649254   1648351   1647652   1647151  
  7660.000000   1646806   1646552   1646328   1646106   1645892  
  7650.000000   1645724   1645648   1645694   1645860   1646108  
  7640.000000   1646390   1646651   1646869   1647039   1647185  
  7630.000000   1647311   1647408   1647421   1647281   1646918  
  7620.000000   1646308   1645489   1644568   1643706   1643072  
  7610.000000   1642802   1642960   1643518   1644368   1645350  
  7600.000000   1646298   1647072   1647585   1647807   1647758  
  7590.000000   1647495   1647100   1646665   1646285   1646048  
  7580.000000   1646024   1646247   1646712   1647362   1648099  
  7570.000000   1648798   1649342   1649644   1649678   1649473  
  7560.000000   1649107   1648679   1648296   1648040   1647977  
  7550.000000   1648147   1648573   1649252   1650158   1651232  
  7540.000000   1652382   1653496   1654467   1655215   1655729  
  7530.000000   1656058   1656318   1656630   1657106   1657782  
  7520.000000   1658636   1659577   1660497   1661307   1661974  
  7510.000000   1662531   1663064   1663672   1664443   1665418  
  7500.000000   1666595   1667920   1669326   1670732   1672075  
  7490.000000   1673305   1674401   1675360   1676212   1677012  
  7480.000000   1677844   1678789   1679920   1681270   1682832  
  7470.000000   1684548   1686343   1688130   1689860   1691510  
  7460.000000   1693099   1694655   1696209   1697773   1699349  
  7450.000000   1700929   1702524   1704170   1705929   1707862  
  7440.000000   1710010   1712353   1714814   1717256   1719527  
  7430.000000   1721487   1723061   1724256   1725172   1725960  
  7420.000000   1726798   1727833   1729159   1730803   1732724  
  7410.000000   1734850   1737095   1739393   1741697   1743987  
  7400.000000   1746248   1748466   1750621   1752688   1754653  
  7390.000000   1756517   1758308   1760065   1761824   1763601  
  7380.000000   1765380   1767122   1768783   1770340   1771805  
  7370.000000   1773231   1774686   1776228   1777873   1779582  
  7360.000000   1781276   1782874   1784326   1785649   1786921  
  7350.000000   1788271   1789823   1791651   1793738   1795991  
  7340.000000   1798265   1800414   1802336   1803988   1805391  
  7330.000000   1806601   1807684   1808696   1809685   1810697  
  7320.000000   1811778   1812988   1814385   1816021   1817905  
  7310.000000   1820010   1822254   1824532   1826719   1828704  
  7300.000000   1830405   1831773   1832806   1833542   1834068  
  7290.000000   1834500   1834964   1835570   1836374   1837377  
  7280.000000   1838509   1839676   1840773   1841749   1842601  
  7270.000000   1843395   1844211   1845114   1846114   1847153  
  7260.000000   1848137   1848956   1849559   1849951   1850222  
  7250.000000   1850498   1850909   1851544   1852440   1853575  
  7240.000000   1854909   1856396   1858020   1859769   1861643  
  7230.000000   1863603   1865600   1867550   1869400   1871115  
  7220.000000   1872736   1874333   1876018   1877876   1879975  
  7210.000000   1882321   1884895   1887645   1890532   1893519  
  7200.000000   1896591   1899723   1902894   1906055   1909170  
  7190.000000   1912192   1915119   1917954   1920745   1923526  
  7180.000000   1926341   1929201   1932122   1935114   1938217  
  7170.000000   1941488   1945010   1948831   1952969   1957350  
  7160.000000   1961851   1966291   1970518   1974419   1977994  
  7150.000000   1981318   1984562   1987908   1991545   1995573  
  7140.000000   2000018   2004803   2009814   2014915   2020019  
  7130.000000   2025078   2030119   2035184   2040353   2045662  
  7120.000000   2051146   2056777   2062529   2068337   2074161  
  7110.000000   2079953   2085707   2091421   2097136   2102898  
  7100.000000   2108782   2114853   2121173   2127755   2134575  
  7090.000000   2141551   2148582   2155550   2162376   2169017  
  7080.000000   2175495   2181863   2188201   2194570   2201014  
  7070.000000   2207540   2214143   2220805   2227523   2234291  
  7060.000000   2241108   2247956   2254804   2261616   2268363  
  7050.000000   2275044   2281689   2288353   2295089   2301925  
  7040.000000   2308845   2315796   2322700   2329495   2336141  
  7030.000000   2342643   2349024   2355320   2361543   2367686  
  7020.000000   2373724   2379641   2385436   2391143   2396801  
  7010.000000   2402456   2408114   2413762   2419352   2424850  
  7000.000000   2430225   2435495   2440682   2445828   2450938  
  6990.000000   2456008   2460997   2465873   2470606   2475206  
  6980.000000   2479678   2484043   2488278   2492359   2496225  
  6970.000000   2499855   2503247   2506470   2509607   2512766  
  6960.000000   2515997   2519314   2522650   2525923   2529032  
  6950.000000   2531930   2534597   2537075   2539406   2541650  
  6940.000000   2543830   2545975   2548085   2550177   2552251  
  6930.000000   2554318   2556353   2558328   2560185   2561885  
  6920.000000   2563401   2564755   2565991   2567179   2568366  
  6910.000000   2569582   2570815   2572038   2573217   2574345  
  6900.000000   2575431   2576512   2577618   2578768   2579953  
  6890.000000   2581146   2582312   2583425   2584472   2585456  
  6880.000000   2586381   2587251   2588060   2588806   2589491  
  6870.000000   2590140   2590789   2591485   2592259   2593121  
  6860.000000   2594047   2594992   2595897   2596717   2597427  
  6850.000000   2598032   2598561   2599060   2599572   2600138  
  6840.000000   2600772   2601475   2602216   2602951   2603624  
  6830.000000   2604191   2604621   2604924   2605132   2605304  
  6820.000000   2605492   2605732   2606020   2606321   2606580  
  6810.000000   2606747   2606790   2606713   2606542   2606325  
  6800.000000   2606100   2605905   2605758   2605677   2605670  
  6790.000000   2605743   2605886   2606072   2606247   2606344  
  6780.000000   2606294   2606057   2605627   2605042   2604370  
  6770.000000   2603688   2603057   2602511   2602057   2601684  
  6760.000000   2601372   2601109   2600878   2600666   2600449  
  6750.000000   2600201   2599898   2599535   2599128   2598711  
  6740.000000   2598318   2597969   2597654   2597336   2596964  
  6730.000000   2596499   2595931   2595286   2594610   2593953  
  6720.000000   2593337   2592756   2592177   2591566   2590906  
  6710.000000   2590218   2589542   2588925   2588391   2587932  
  6700.000000   2587500   2587036   2586482   2585815   2585043  
  6690.000000   2584203   2583332   2582463   2581602   2580745  
  6680.000000   2579873   2578977   2578053   2577103   2576123  
  6670.000000   2575104   2574026   2572874   2571642   2570347  
  6660.000000   2569019   2567701   2566427   2565219   2564079  
  6650.000000   2562999   2561962   2560952   2559948   2558929  
  6640.000000   2557858   2556701   2555424   2554016   2552493  
  6630.000000   2550900   2549294   2547727   2546221   2544766  
  6620.000000   2543320   2541839   2540289   2538676   2537032  
  6610.000000   2535411   2533857   2532390   2530991   2529619  
  6600.000000   2528225   2526775   2525267   2523726   2522195  
  6590.000000   2520717   2519312   2517978   2516684   2515385  
  6580.000000   2514030   2512578   2511005   2509306   2507501  
  6570.000000   2505625   2503729   2501865   2500079   2498398  
  6560.000000   2496826   2495345   2493926   2492534   2491149  
  6550.000000   2489763   2488387   2487038   2485738   2484497  
  6540.000000   2483318   2482193   2481111   2480056   2479018  
  6530.000000   2477986   2476955   2475922   2474892   2473872  
  6520.000000   2472875   2471904   2470953   2470000   2469017  
  6510.000000   2467974   2466854   2465667   2464448   2463248  
  6500.000000   2462119   2461095   2460182   2459357   2458577  
  6490.000000   2457800   2456993   2456140   2455236   2454283  
  6480.000000   2453277   2452212   2451089   2449916   2448725  
  6470.000000   2447559   2446462   2445460   2444551   2443701  
  6460.000000   2442856   2441965   2441000   2439965   2438897  
  6450.000000   2437843   2436851   2435944   2435120   2434354  
  6440.000000   2433617   2432881   2432140   2431401   2430684  
  6430.000000   2430009   2429395   2428840   2428336   2427858  
  6420.000000   2427379   2426873   2426323   2425726   2425099  
  6410.000000   2424468   2423868   2423322   2422841   2422409  
  6400.000000   2421998   2421571   2421108   2420608   2420093  
  6390.000000   2419600   2419161   2418793   2418488   2418219  
  6380.000000   2417954   2417669   2417358   2417031   2416705  
  6370.000000   2416390   2416079   2415758   2415411   2415032  
  6360.000000   2414637   2414254   2413912   2413623   2413369  
  6350.000000   2413113   2412804   2412409   2411918   2411354  
  6340.000000   2410758   2410172   2409614   2409079   2408533  
  6330.000000   2407944   2407281   2406545   2405749   2404924  
  6320.000000   2404090   2403258   2402415   2401542   2400615  
  6310.000000   2399624   2398567   2397455   2396296   2395104  
  6300.000000   2393879   2392631   2391366   2390102   2388852  
  6290.000000   2387626   2386419   2385213   2383976   2382678  
  6280.000000   2381291   2379803   2378211   2376534   2374791  
  6270.000000   2373013   2371231   2369480   2367791   2366187  
  6260.000000   2364668   2363217   2361788   2360332   2358798  
  6250.000000   2357157   2355406   2353572   2351693   2349816  
  6240.000000   2347973   2346182   2344446   2342755   2341091  
  6230.000000   2339435   2337755   2336022   2334201   2332272  
  6220.000000   2330231   2328106   2325945   2323809   2321750  
  6210.000000   2319796   2317941   2316154   2314394   2312632  
  6200.000000   2310863   2309109   2307403   2305776   2304237  
  6190.000000   2302772   2301348   2299925   2298478   2296993  
  6180.000000   2295474   2293933   2292379   2290821   2289262  
  6170.000000   2287710   2286178   2284682   2283236   2281841  
  6160.000000   2280483   2279136   2277769   2276362   2274915  
  6150.000000   2273441   2271967   2270515   2269094   2267701  
  6140.000000   2266325   2264957   2263598   2262258   2260951  
  6130.000000   2259685   2258453   2257235   2256012   2254768  
  6120.000000   2253506   2252243   2251006   2249813   2248674  
  6110.000000   2247574   2246499   2245429   2244366   2243323  
  6100.000000   2242333   2241421   2240611   2239903   2239291  
  6090.000000   2238761   2238305   2237915   2237597   2237340  
  6080.000000   2237138   2236960   2236784   2236579   2236343  
  6070.000000   2236074   2235798   2235530   2235301   2235120  
  6060.000000   2235011   2234981   2235060   2235264   2235622  
  6050.000000   2236133   2236795   2237575   2238450   2239382  
  6040.000000   2240364   2241387   2242470   2243618   2244848  
  6030.000000   2246156   2247551   2249028   2250607   2252296  
  6020.000000   2254112   2256047   2258084   2260175   2262279  
  6010.000000   2264347   2266362   2268317   2270236   2272136  
  6000.000000   2274045   2275967   2277916   2279891   2281913  
  5990.000000   2283996   2286171   2288445   2290825   2293284  
  5980.000000   2295803   2298351   2300928   2303543   2306233  
  5970.000000   2309023   2311941   2314978   2318119   2321324  
  5960.000000   2324573   2327839   2331130   2334444   2337795  
  5950.000000   2341173   2344576   2347980   2351383   2354785  
  5940.000000   2358209   2361681   2365234   2368890   2372657  
  5930.000000   2376529   2380488   2384509   2388559   2392597  
  5920.000000   2396576   2400444   2404152   2407665   2410972  
  5910.000000   2414085   2417039   2419878   2422645   2425378  
  5900.000000   2428100   2430841   2433619   2436466   2439402  
  5890.000000   2442449   2445592   2448805   2452029   2455203  
  5880.000000   2458263   2461171   2463906   2466469   2468876  
  5870.000000   2471149   2473311   2475384   2477395   2479373  
  5860.000000   2481348   2483348   2485392   2487493   2489653  
  5850.000000   2491879   2494178   2496566   2499050   2501632  
  5840.000000   2504293   2506995   2509691   2512335   2514901  
  5830.000000   2517383   2519800   2522180   2524549   2526916  
  5820.000000   2529273   2531602   2533880   2536093   2538231  
  5810.000000   2540300   2542293   2544217   2546056   2547822  
  5800.000000   2549507   2551149   2552756   2554369   2555978  
  5790.000000   2557581   2559115   2560526   2561715   2562612  
  5780.000000   2563121   2563187   2562747   2561791   2560326  
  5770.000000   2558426   2556191   2553770   2551300   2548919  
  5760.000000   2546697   2544675   2542827   2541126   2539527  
  5750.000000   2538021   2536608   2535306   2534130   2533075  
  5740.000000   2532123   2531236   2530390   2529556   2528736  
  5730.000000   2527931   2527158   2526418   2525721   2525060  
  5720.000000   2524446   2523888   2523410   2523023   2522736  
  5710.000000   2522535   2522397   2522289   2522184   2522067  
  5700.000000   2521935   2521794   2521644   2521485   2521305  
  5690.000000   2521099   2520864   2520612   2520356   2520115  
  5680.000000   2519885   2519655   2519385   2519040   2518575  
  5670.000000   2517967   2517194   2516250   2515124   2513813  
  5660.000000   2512309   2510628   2508795   2506865   2504900  
  5650.000000   2502964   2501097   2499323   2497630   2496002  
  5640.000000   2494414   2492860   2491341   2489867   2488448  
  5630.000000   2487083   2485765   2484478   2483214   2481968  
  5620.000000   2480752   2479572   2478440   2477350   2476297  
  5610.000000   2475266   2474248   2473241   2472250   2471283  
  5600.000000   2470346   2469438   2468553   2467686   2466834  
  5590.000000   2465997   2465171   2464349   2463513   2462637  
  5580.000000   2461699   2460686   2459604   2458479   2457342  
  5570.000000   2456217   2455114   2454020   2452910   2451763  
  5560.000000   2450566   2449332   2448082   2446847   2445643  
  5550.000000   2444477   2443336   2442206   2441079   2439959  
  5540.000000   2438857   2437787   2436746   2435721   2434683  
  5530.000000   2433607   2432480   2431311   2430124   2428950  
  5520.000000   2427811   2426713   2425643   2424579   2423493  
  5510.000000   2422368   2421193   2419967   2418685   2417344  
  5500.000000   2415940   2414479   2412976   2411465   2409973  
  5490.000000   2408526   2407123   2405746   2404359   2402934  
  5480.000000   2401455   2399931   2398385   2396849   2395337  
  5470.000000   2393848   2392361   2390848   2389283   2387657  
  5460.000000   2385968   2384221   2382416   2380547   2378601  
  5450.000000   2376575   2374476   2372333   2370182   2368059  
  5440.000000   2365986   2363970   2362008   2360098   2358250  
  5430.000000   2356478   2354802   2353215   2351700   2350210  
  5420.000000   2348711   2347175   2345629   2344117   2342720  
  5410.000000   2341490   2340457   2339586   2338834   2338131  
  5400.000000   2337459   2336811   2336240   2335782   2335485  
  5390.000000   2335344   2335349   2335454   2335653   2335944  
  5380.000000   2336378   2336985   2337813   2338845   2340064  
  5370.000000   2341402   2342832   2344308   2345856   2347470  
  5360.000000   2349209   2351065   2353090   2355270   2357673  
  5350.000000   2360314   2363296   2366646   2370450   2374686  
  5340.000000   2379384   2384476   2389984   2395853   2402134  
  5330.000000   2408786   2415860   2423295   2431129   2439300  
  5320.000000   2447893   2456900   2466469   2476624   2487515  
  5310.000000   2499119   2511520   2524626   2538482   2552997  
  5300.000000   2568242   2584176   2600914   2618446   2636892  
  5290.000000   2656219   2676490   2697597   2719514   2742074  
  5280.000000   2765227   2788854   2812992   2837637   2862910  
  5270.000000   2888832   2915437   2942604   2970173   2997910  
  5260.000000   3025622   3053192   3080601   3107915   3135196  
  5250.000000   3162486   3189689   3216673   3243179   3269050  
  5240.000000   3294100   3318356   3341809   3364626   3386846  
  5230.000000   3408596   3429804   3450475   3470432   3489641  
  5220.000000   3507956   3525433   3542037   3557926   3573119  
  5210.000000   3587772   3601839   3615368   3628205   3640329  
  5200.000000   3651583   3662015   3671573   3680403   3688510  
  5190.000000   3696032   3702925   3709254   3714920   3719966  
  5180.000000   3724316   3728054   3731144   3733681   3735627  
  5170.000000   3737051   3737906   3738270   3738121   3737560  
  5160.000000   3736577   3735249   3733526   3731431   3728891  
  5150.000000   3725934   3722527   3718744   3714597   3710168  
  5140.000000   3705460   3700524   3695343   3689963   3684384  
  5130.000000   3678672   3672844   3666953   3660993   3654977  
  5120.000000   3648872   3642681   3636389   3630024   3623598  
  5110.000000   3617146   3610679   3604210   3597737   3591265  
  5100.000000   3584799   3578356   3571948   3565589   3559278  
  5090.000000   3553010   3546773   3540562   3534376   3528229  
  5080.000000   3522128   3516083   3510083   3504111   3498139  
  5070.000000   3492145   3486108   3480028   3473907   3467756  
  5060.000000   3461577   3455369   3449120   3442821   3436461  
  5050.000000   3430043   3423571   3417059   3410514   3403946  
  5040.000000   3397358   3390753   3384132   3377499   3370861  
  5030.000000   3364226   3357606   3351011   3344458   3337961  
  5020.000000   3331549   3325237   3319051   3312993   3307076  
  5010.000000   3301280   3295606   3290031   3284566   3279203  
  5000.000000   3273974   3268883   3263970   3259236   3254722  
  4990.000000   3250424   3246386   3242604   3239123   3235929  
  4980.000000   3233054   3230464   3228175   3226143   3224395  
  4970.000000   3222904   3221723   3220843   3220325   3220151  
  4960.000000   3220362   3220918   3221848   3223110   3224744  
  4950.000000   3226721   3229088   3231816   3234939   3238407  
  4940.000000   3242241   3246386   3250868   3255644   3260757  
  4930.000000   3266174   3271935   3278005   3284412   3291117  
  4920.000000   3298143   3305457   3313083   3320991   3329201  
  4910.000000   3337677   3346431   3355428   3364671   3374128  
  4900.000000   3383795   3393644   3403658   3413806   3424057  
  4890.000000   3434376   3444718   3455040   3465278   3475385  
  4880.000000   3485287   3494948   3504302   3513337   3522003  
  4870.000000   3530302   3538189   3545669   3552697   3559286  
  4860.000000   3565404   3571088   3576328   3581179   3585643  
  4850.000000   3589783   3593602   3597164   3600476   3603600  
  4840.000000   3606544   3609359   3612044   3614633   3617120  
  4830.000000   3619532   3621868   3624161   3626415   3628655  
  4820.000000   3630879   3633093   3635279   3637432   3639535  
  4810.000000   3641583   3643571   3645503   3647380   3649213  
  4800.000000   3651011   3652791   3654569   3656368   3658202  
  4790.000000   3660080   3661997   3663942   3665894   3667838  
  4780.000000   3669757   3671652   3673522   3675372   3677197  
  4770.000000   3678993   3680739   3682424   3684025   3685540  
  4760.000000   3686958   3688285   3689509   3690633   3691635  
  4750.000000   3692511   3693242   3693835   3694290   3694632  
  4740.000000   3694871   3695034   3695120   3695140   3695078  
  4730.000000   3694931   3694683   3694336   3693893   3693373  
  4720.000000   3692794   3692185   3691566   3690955   3690358  
  4710.000000   3689776   3689208   3688650   3688110   3687600  
  4700.000000   3687147   3686777   3686522   3686401   3686433  
  4690.000000   3686620   3686961   3687445   3688064   3688795  
  4680.000000   3689619   3690496   3691394   3692260   3693061  
  4670.000000   3693759   3694350   3694833   3695241   3695605  
  4660.000000   3695976   3696391   3696898   3697529   3698321  
  4650.000000   3699299   3700486   3701889   3703511   3705336  
  4640.000000   3707340   3709488   3711746   3714075   3716439  
  4630.000000   3718802   3721132   3723400   3725584   3727669  
  4620.000000   3729648   3731519   3733275   3734912   3736404  
  4610.000000   3737735   3738869   3739804   3740531   3741088  
  4600.000000   3741503   3741838   3742120   3742388   3742631  
  4590.000000   3742844   3742985   3743033   3742947   3742718  
  4580.000000   3742324   3741771   3741051   3740182   3739167  
  4570.000000   3738034   3736800   3735497   3734140   3732749  
  4560.000000   3731321   3729859   3728347   3726786   3725168  
  4550.000000   3723497   3721777   3720013   3718208   3716367  
  4540.000000   3714502   3712626   3710771   3708964   3707244  
  4530.000000   3705624   3704128   3702740   3701469   3700291  
  4520.000000   3699228   3698278   3697496   3696892   3696536  
  4510.000000   3696430   3696637   3697145   3698027   3699273  
  4500.000000   3700974   3703128   3705824   3709046   3712869  
  4490.000000   3717256   3722276   3727892   3734182   3741118  
  4480.000000   3748775   3757112   3766179   3775905   3786309  
  4470.000000   3797299   3808877   3820954   3833528   3846520  
  4460.000000   3859926   3873667   3887726   3902012   3916490  
  4450.000000   3931066   3945701   3960333   3974949   3989541  
  4440.000000   4004131   4018749   4033408   4048127   4062869  
  4430.000000   4077615   4092275   4106808   4121099   4135112  
  4420.000000   4148732   4161937   4174621   4186772   4198289  
  4410.000000   4209169   4219315   4228727   4237317   4245104  
  4400.000000   4252030   4258155   4263479   4268115   4272120  
  4390.000000   4275642   4278764   4281633   4284320   4286937  
  4380.000000   4289524   4292154   4294840   4297632   4300545  
  4370.000000   4303622   4306893   4310400   4314172   4318231  
  4360.000000   4322577   4327198   4332054   4337107   4342281  
  4350.000000   4347535   4352780   4357995   4363111   4368147  
  4340.000000   4373061   4377879   4382522   4386907   4390801  
  4330.000000   4393927   4395902   4396389   4395107   4391986  
  4320.000000   4387153   4380999   4374047   4366924   4360170  
  4310.000000   4354224   4349289   4345420   4342492   4340338  
  4300.000000   4338753   4337589   4336740   4336147   4335790  
  4290.000000   4335641   4335703   4335946   4336381   4336988  
  4280.000000   4337774   4338726   4339825   4341044   4342341  
  4270.000000   4343688   4345032   4346325   4347463   4348316  
  4260.000000   4348680   4348346   4347095   4344789   4341381  
  4250.000000   4336978   4331789   4326131   4320326   4314692  
  4240.000000   4309439   4304708   4300513   4296819   4293519  
  4230.000000   4290514   4287692   4284961   4282251   4279502  
  4220.000000   4276693   4273803   4270870   4267923   4265053  
  4210.000000   4262319   4259820   4257598   4255707   4254140  
  4200.000000   4252890   4251903   4251139   4250525   4250028  
  4190.000000   4249588   4249207   4248854   4248572   4248353  
  4180.000000   4248258   4248283   4248488   4248864   4249476  
  4170.000000   4250332   4251522   4253080   4255114   4257654  
  4160.000000   4260781   4264472   4268752   4273545   4278841  
  4150.000000   4284548   4290671   4297142   4303997   4311193  
  4140.000000   4318789   4326753   4335146   4343931   4353158  
  4130.000000   4362780   4372836   4383275   4394138   4405390  
  4120.000000   4417084   4429205   4441814   4454899   4468506  
  4110.000000   4482606   4497214   4512274   4527768   4543613  
  4100.000000   4559763   4576130   4592672   4609328   4626087  
  4090.000000   4642938   4659893   4676960   4694137   4711416  
  4080.000000   4728765   4746168   4763574   4780974   4798304  
  4070.000000   4815545   4832598   4849419   4865888   4881969  
  4060.000000   4897562   4912677   4927243   4941302   4954789  
  4050.000000   4967758   4980148   4992036   5003373   5014240  
  4040.000000   5024564   5034390   5043592   5052183   5060033  
  4030.000000   5067182   5073541   5079186   5084057   5088212  
  4020.000000   5091555   5094142   5095944   5097043   5097394  
  4010.000000   5097138   5096347   5095042   5093008   5090315  
  4000.000000   5087286  
##END= 
