##TITLE= Sample 003 By ssteindl date Montag, November 26 2018
##JCAMP-DX= 4.24
##DATA TYPE= INFRARED SPECTRUM
##ORIGIN= Exported PE Spectrum Data File
##OWNER= Sandra Steindl
##DATE= 18/11/26
##TIME= 14:05:44.00
##SPECTROMETER/DATA SYSTEM= PERKIN-ELMER Frontier FT-IR/NIR IR
##INSTRUMENT PARAMETERS=
  APODIZATION=stark
  DETECTOR=INGAAS
##RESOLUTION= 16.000000
##DELTAX= -2.000000
##XUNITS= 1/CM
##YUNITS= A
##XFACTOR= 1.00
##YFACTOR= 0.00000011920928955078
##FIRSTX= 10000.00
##LASTX= 4000.00
##NPOINTS= 3001
##FIRSTY= 0.226247
##MAXY= 0.615778
##MINY= 0.201213
##XYDATA= (X++(Y..Y))
 10000.000000   1897897   1900639   1903343   1905837   1907701  
  9990.000000   1908562   1908298   1907248   1906114   1905747  
  9980.000000   1906789   1909349   1912840   1916142   1917950  
  9970.000000   1917318   1913954   1908475   1902096   1896380  
  9960.000000   1892608   1891579   1893318   1897247   1902302  
  9950.000000   1907218   1910776   1911956   1910163   1905231  
  9940.000000   1897549   1887919   1877464   1867354   1858600  
  9930.000000   1851879   1847474   1845380   1845384   1847243  
  9920.000000   1850672   1855340   1860783   1866312   1871128  
  9910.000000   1874356   1875391   1873960   1870368   1865346  
  9900.000000   1860004   1855531   1852987   1853097   1856072  
  9890.000000   1861608   1868846   1876585   1883457   1888276  
  9880.000000   1890290   1889385   1886058   1881265   1876110  
  9870.000000   1871536   1868146   1866118   1865348   1865583  
  9860.000000   1866528   1867913   1869345   1870372   1870394  
  9850.000000   1868952   1865899   1861648   1857153   1853631  
  9840.000000   1852137   1853041   1855849   1859249   1861661  
  9830.000000   1861787   1859181   1854364   1848595   1843330  
  9820.000000   1839656   1837968   1837991   1839101   1840750  
  9810.000000   1842734   1845199   1848384   1852262   1856362  
  9800.000000   1859840   1861834   1861911   1860283   1857803  
  9790.000000   1855525   1854277   1854254   1854992   1855670  
  9780.000000   1855544   1854413   1852663   1851143   1850634  
  9770.000000   1851501   1853450   1855715   1857428   1858023  
  9760.000000   1857475   1856178   1854691   1853349   1852105  
  9750.000000   1850594   1848414   1845488   1842204   1839398  
  9740.000000   1837924   1838349   1840546   1843812   1847058  
  9730.000000   1849321   1850100   1849461   1847910   1845950  
  9720.000000   1843832   1841325   1837921   1833094   1826727  
  9710.000000   1819272   1811740   1805380   1801241   1799868  
  9700.000000   1801094   1804243   1808319   1812411   1815873  
  9690.000000   1818429   1820110   1821065   1821476   1821389  
  9680.000000   1820842   1819776   1818269   1816385   1814319  
  9670.000000   1812193   1810102   1808053   1806006   1804011  
  9660.000000   1802217   1801007   1800860   1802307   1805676  
  9650.000000   1810978   1817744   1825102   1831929   1837168  
  9640.000000   1840120   1840633   1839101   1836293   1833044  
  9630.000000   1829999   1827462   1825400   1823614   1821860  
  9620.000000   1819978   1817873   1815444   1812548   1808964  
  9610.000000   1804561   1799414   1793979   1789064   1785695  
  9600.000000   1784757   1786693   1791227   1797438   1804010  
  9590.000000   1809689   1813663   1815731   1816241   1815749  
  9580.000000   1814768   1813461   1811743   1809347   1806145  
  9570.000000   1802241   1798024   1794009   1790635   1788155  
  9560.000000   1786580   1785820   1785779   1786459   1787887  
  9550.000000   1790012   1792549   1794995   1796751   1797415  
  9540.000000   1797001   1796021   1795345   1795827   1797966  
  9530.000000   1801591   1805899   1809665   1811694   1811225  
  9520.000000   1808184   1803180   1797259   1791590   1787122  
  9510.000000   1784441   1783682   1784653   1786877   1789762  
  9500.000000   1792613   1794803   1795809   1795407   1793714  
  9490.000000   1791204   1788582   1786492   1785317   1784937  
  9480.000000   1784834   1784231   1782457   1779197   1774677  
  9470.000000   1769597   1764944   1761644   1760272   1760869  
  9460.000000   1762952   1765719   1768302   1770073   1770785  
  9450.000000   1770653   1770221   1770215   1771262   1773694  
  9440.000000   1777400   1781771   1785912   1788790   1789640  
  9430.000000   1788067   1784233   1778726   1772394   1766122  
  9420.000000   1760602   1756301   1753432   1752136   1752462  
  9410.000000   1754470   1758018   1762779   1768082   1773089  
  9400.000000   1776935   1778971   1779001   1777228   1774246  
  9390.000000   1770632   1766844   1762979   1758946   1754607  
  9380.000000   1749995   1745464   1741568   1739003   1738268  
  9370.000000   1739577   1742685   1747012   1751781   1756208  
  9360.000000   1759670   1761710   1762108   1760811   1758020  
  9350.000000   1754172   1749960   1746216   1743719   1742974  
  9340.000000   1744011   1746387   1749272   1751758   1753090  
  9330.000000   1752918   1751306   1748612   1745313   1741789  
  9320.000000   1738328   1735054   1732074   1729475   1727383  
  9310.000000   1725911   1725099   1724915   1725245   1726036  
  9300.000000   1727309   1729228   1731933   1735417   1739370  
  9290.000000   1743198   1746186   1747727   1747596   1746005  
  9280.000000   1743554   1740944   1738685   1736877   1735213  
  9270.000000   1733177   1730350   1726661   1722466   1718427  
  9260.000000   1715214   1713239   1712465   1712497   1712760  
  9250.000000   1712794   1712425   1711839   1711470   1711771  
  9240.000000   1712997   1715098   1717764   1720530   1722949  
  9230.000000   1724666   1725538   1725533   1724766   1723373  
  9220.000000   1721556   1719498   1717384   1715344   1713460  
  9210.000000   1711770   1710301   1709144   1708464   1708538  
  9200.000000   1709619   1711861   1715137   1719049   1722977  
  9190.000000   1726248   1728353   1729079   1728609   1727362  
  9180.000000   1725868   1724518   1723513   1722798   1722180  
  9170.000000   1721462   1720546   1719511   1718525   1717817  
  9160.000000   1717549   1717820   1718621   1719892   1721505  
  9150.000000   1723278   1724971   1726286   1726951   1726783  
  9140.000000   1725802   1724224   1722442   1720886   1719896  
  9130.000000   1719586   1719807   1720235   1720508   1720398  
  9120.000000   1719882   1719149   1718497   1718195   1718362  
  9110.000000   1718921   1719643   1720240   1720472   1720225  
  9100.000000   1719529   1718547   1717519   1716720   1716380  
  9090.000000   1716652   1717540   1718898   1720430   1721734  
  9080.000000   1722407   1722167   1720977   1719042   1716763  
  9070.000000   1714587   1712879   1711794   1711237   1710962  
  9060.000000   1710679   1710240   1709644   1709084   1708796  
  9050.000000   1708997   1709770   1710991   1712395   1713587  
  9040.000000   1714214   1713929   1712500   1709833   1706052  
  9030.000000   1701524   1696803   1692659   1689905   1689228  
  9020.000000   1690904   1694734   1700034   1705766   1710747  
  9010.000000   1713971   1714875   1713413   1710021   1705448  
  9000.000000   1700620   1696352   1693217   1691446   1690983  
  8990.000000   1691522   1692588   1693679   1694371   1694428  
  8980.000000   1693790   1692606   1691167   1689797   1688751  
  8970.000000   1688122   1687898   1687946   1688149   1688442  
  8960.000000   1688871   1689551   1690570   1691941   1693547  
  8950.000000   1695167   1696539   1697447   1697827   1697739  
  8940.000000   1697363   1696871   1696387   1695922   1695391  
  8930.000000   1694699   1693791   1692756   1691789   1691200  
  8920.000000   1691284   1692256   1694114   1696644   1699421  
  8910.000000   1701916   1703619   1704152   1703410   1701543  
  8900.000000   1698959   1696151   1693606   1691636   1690360  
  8890.000000   1689677   1689382   1689273   1689241   1689337  
  8880.000000   1689682   1690455   1691752   1693593   1695881  
  8870.000000   1698467   1701204   1703952   1706597   1708980  
  8860.000000   1710903   1712093   1712286   1711328   1709299  
  8850.000000   1706524   1703531   1700903   1699124   1698424  
  8840.000000   1698704   1699610   1700641   1701375   1701555  
  8830.000000   1701206   1700565   1700011   1699926   1700573  
  8820.000000   1702055   1704241   1706841   1709400   1711454  
  8810.000000   1712578   1712564   1711456   1709601   1707571  
  8800.000000   1706022   1705519   1706356   1708466   1711441  
  8790.000000   1714686   1717625   1719892   1721420   1722415  
  8780.000000   1723205   1724085   1725153   1726295   1727264  
  8770.000000   1727827   1727923   1727710   1727519   1727702  
  8760.000000   1728449   1729704   1731132   1732274   1732698  
  8750.000000   1732196   1730860   1729063   1727315   1726082  
  8740.000000   1725625   1725937   1726784   1727816   1728715  
  8730.000000   1729276   1729475   1729403   1729227   1729094  
  8720.000000   1729107   1729300   1729688   1730287   1731145  
  8710.000000   1732328   1733884   1735828   1738105   1740614  
  8700.000000   1743212   1745760   1748149   1750289   1752127  
  8690.000000   1753591   1754615   1755116   1755041   1754395  
  8680.000000   1753277   1751890   1750510   1749451   1748992  
  8670.000000   1749333   1750523   1752456   1754869   1757399  
  8660.000000   1759654   1761299   1762146   1762191   1761650  
  8650.000000   1760891   1760360   1760454   1761418   1763286  
  8640.000000   1765874   1768863   1771892   1774655   1776960  
  8630.000000   1778742   1780030   1780874   1781306   1781321  
  8620.000000   1780932   1780202   1779294   1778455   1777967  
  8610.000000   1778084   1778925   1780472   1782547   1784907  
  8600.000000   1787285   1789481   1791364   1792875   1793987  
  8590.000000   1794681   1794965   1794882   1794561   1794190  
  8580.000000   1794000   1794178   1794816   1795859   1797127  
  8570.000000   1798378   1799400   1800096   1800501   1800766  
  8560.000000   1801072   1801563   1802298   1803248   1804347  
  8550.000000   1805520   1806739   1807994   1809289   1810592  
  8540.000000   1811839   1812941   1813832   1814506   1815035  
  8530.000000   1815548   1816187   1817048   1818174   1819545  
  8520.000000   1821119   1822855   1824712   1826651   1828574  
  8510.000000   1830345   1831793   1832796   1833356   1833641  
  8500.000000   1833966   1834667   1835969   1837843   1839975  
  8490.000000   1841860   1842985   1843046   1842093   1840567  
  8480.000000   1839159   1838571   1839239   1841201   1844074  
  8470.000000   1847222   1849969   1851845   1852728   1852831  
  8460.000000   1852585   1852431   1852672   1853367   1854360  
  8450.000000   1855360   1856095   1856405   1856307   1855971  
  8440.000000   1855650   1855615   1856055   1857057   1858567  
  8430.000000   1860433   1862434   1864339   1865951   1867154  
  8420.000000   1867935   1868377   1868617   1868806   1869056  
  8410.000000   1869417   1869865   1870328   1870716   1870969  
  8400.000000   1871057   1871002   1870839   1870619   1870374  
  8390.000000   1870136   1869917   1869732   1869581   1869459  
  8380.000000   1869345   1869210   1869026   1868786   1868511  
  8370.000000   1868248   1868057   1867979   1868018   1868133  
  8360.000000   1868247   1868286   1868211   1868039   1867842  
  8350.000000   1867717   1867749   1867970   1868344   1868777  
  8340.000000   1869143   1869330   1869277   1868990   1868541  
  8330.000000   1868042   1867624   1867387   1867376   1867574  
  8320.000000   1867897   1868232   1868455   1868491   1868325  
  8310.000000   1868034   1867742   1867592   1867670   1867984  
  8300.000000   1868437   1868861   1869072   1868921   1868358  
  8290.000000   1867421   1866219   1864873   1863478   1862079  
  8280.000000   1860694   1859346   1858096   1857053   1856338  
  8270.000000   1856051   1856202   1856715   1857421   1858142  
  8260.000000   1858736   1859147   1859408   1859592   1859761  
  8250.000000   1859907   1859938   1859709   1859082   1858009  
  8240.000000   1856552   1854892   1853247   1851830   1850752  
  8230.000000   1850020   1849516   1849060   1848446   1847508  
  8220.000000   1846148   1844352   1842177   1839755   1837263  
  8210.000000   1834915   1832916   1831427   1830515   1830137  
  8200.000000   1830136   1830279   1830315   1830035   1829330  
  8190.000000   1828198   1826742   1825102   1823430   1821826  
  8180.000000   1820350   1819011   1817802   1816715   1815753  
  8170.000000   1814935   1814279   1813803   1813499   1813336  
  8160.000000   1813248   1813137   1812885   1812370   1811491  
  8150.000000   1810202   1808538   1806623   1804657   1802868  
  8140.000000   1801445   1800476   1799916   1799592   1799258  
  8130.000000   1798663   1797635   1796119   1794192   1792033  
  8120.000000   1789858   1787880   1786256   1785081   1784385  
  8110.000000   1784143   1784288   1784699   1785217   1785647  
  8100.000000   1785790   1785479   1784634   1783276   1781547  
  8090.000000   1779655   1777844   1776303   1775147   1774385  
  8080.000000   1773946   1773724   1773602   1773508   1773388  
  8070.000000   1773237   1773046   1772819   1772549   1772227  
  8060.000000   1771848   1771399   1770857   1770167   1769254  
  8050.000000   1768025   1766420   1764438   1762174   1759814  
  8040.000000   1757595   1755744   1754406   1753600   1753210  
  8030.000000   1753038   1752867   1752547   1752044   1751438  
  8020.000000   1750886   1750533   1750457   1750612   1750854  
  8010.000000   1750973   1750790   1750208   1749266   1748118  
  8000.000000   1746989   1746097   1745580   1745459   1745624  
  7990.000000   1745891   1746050   1745945   1745519   1744826  
  7980.000000   1744003   1743226   1742627   1742257   1742060  
  7970.000000   1741895   1741594   1741023   1740142   1739017  
  7960.000000   1737805   1736693   1735827   1735269   1734970  
  7950.000000   1734804   1734621   1734304   1733825   1733235  
  7940.000000   1732650   1732184   1731913   1731831   1731870  
  7930.000000   1731922   1731894   1731740   1731482   1731199  
  7920.000000   1730996   1730976   1731201   1731682   1732373  
  7910.000000   1733180   1733980   1734636   1735028   1735071  
  7900.000000   1734736   1734058   1733130   1732080   1731039  
  7890.000000   1730110   1729347   1728758   1728315   1727985  
  7880.000000   1727745   1727589   1727517   1727519   1727560  
  7870.000000   1727577   1727507   1727310   1727000   1726644  
  7860.000000   1726349   1726221   1726323   1726652   1727143  
  7850.000000   1727698   1728222   1728657   1728987   1729229  
  7840.000000   1729397   1729488   1729471   1729308   1728984  
  7830.000000   1728533   1728033   1727591   1727289   1727163  
  7820.000000   1727169   1727223   1727218   1727094   1726843  
  7810.000000   1726525   1726216   1725978   1725805   1725632  
  7800.000000   1725351   1724866   1724136   1723213   1722220  
  7790.000000   1721324   1720662   1720301   1720208   1720262  
  7780.000000   1720293   1720132   1719656   1718812   1717623  
  7770.000000   1716174   1714589   1713009   1711572   1710394  
  7760.000000   1709555   1709083   1708953   1709088   1709374  
  7750.000000   1709682   1709899   1709948   1709798   1709461  
  7740.000000   1708983   1708420   1707832   1707271   1706774  
  7730.000000   1706373   1706082   1705906   1705822   1705798  
  7720.000000   1705780   1705714   1705549   1705251   1704802  
  7710.000000   1704195   1703429   1702505   1701437   1700255  
  7700.000000   1699026   1697849   1696843   1696122   1695753  
  7690.000000   1695732   1695967   1696305   1696573   1696634  
  7680.000000   1696432   1696002   1695454   1694917   1694491  
  7670.000000   1694204   1694015   1693836   1693584   1693215  
  7660.000000   1692757   1692280   1691872   1691584   1691410  
  7650.000000   1691284   1691115   1690830   1690417   1689933  
  7640.000000   1689489   1689210   1689183   1689439   1689940  
  7630.000000   1690609   1691355   1692108   1692823   1693466  
  7620.000000   1694006   1694387   1694547   1694431   1694025  
  7610.000000   1693378   1692599   1691838   1691232   1690872  
  7600.000000   1690774   1690891   1691129   1691395   1691618  
  7590.000000   1691761   1691817   1691786   1691667   1691447  
  7580.000000   1691122   1690706   1690250   1689842   1689588  
  7570.000000   1689587   1689897   1690517   1691387   1692393  
  7560.000000   1693405   1694289   1694942   1695284   1695294  
  7550.000000   1694988   1694452   1693811   1693234   1692888  
  7540.000000   1692918   1693403   1694347   1695668   1697223  
  7530.000000   1698836   1700349   1701646   1702686   1703484  
  7520.000000   1704117   1704677   1705268   1705961   1706801  
  7510.000000   1707784   1708879   1710031   1711187   1712305  
  7500.000000   1713374   1714403   1715423   1716467   1717558  
  7490.000000   1718696   1719872   1721067   1722278   1723516  
  7480.000000   1724809   1726188   1727668   1729244   1730884  
  7470.000000   1732539   1734164   1735721   1737198   1738585  
  7460.000000   1739887   1741085   1742171   1743131   1743990  
  7450.000000   1744795   1745635   1746603   1747787   1749234  
  7440.000000   1750946   1752880   1754976   1757175   1759436  
  7430.000000   1761726   1764016   1766265   1768427   1770450  
  7420.000000   1772313   1774029   1775663   1777298   1779022  
  7410.000000   1780877   1782856   1784899   1786927   1788871  
  7400.000000   1790705   1792455   1794172   1795918   1797728  
  7390.000000   1799608   1801537   1803491   1805455   1807439  
  7380.000000   1809459   1811521   1813601   1815646   1817585  
  7370.000000   1819361   1820950   1822377   1823709   1825029  
  7360.000000   1826406   1827876   1829436   1831058   1832699  
  7350.000000   1834329   1835929   1837504   1839065   1840631  
  7340.000000   1842217   1843839   1845504   1847216   1848959  
  7330.000000   1850707   1852421   1854069   1855634   1857136  
  7320.000000   1858614   1860121   1861688   1863310   1864932  
  7310.000000   1866473   1867850   1869022   1870002   1870857  
  7300.000000   1871670   1872513   1873415   1874360   1875305  
  7290.000000   1876212   1877069   1877899   1878735   1879605  
  7280.000000   1880501   1881392   1882236   1883018   1883765  
  7270.000000   1884544   1885436   1886486   1887675   1888913  
  7260.000000   1890075   1891045   1891782   1892324   1892800  
  7250.000000   1893349   1894091   1895051   1896179   1897361  
  7240.000000   1898498   1899547   1900561   1901661   1903002  
  7230.000000   1904690   1906769   1909184   1911836   1914588  
  7220.000000   1917340   1920008   1922566   1925001   1927337  
  7210.000000   1929599   1931847   1934146   1936584   1939227  
  7200.000000   1942115   1945229   1948508   1951853   1955173  
  7190.000000   1958394   1961498   1964490   1967412   1970299  
  7180.000000   1973182   1976075   1979001   1981984   1985079  
  7170.000000   1988328   1991774   1995406   1999180   2003003  
  7160.000000   2006790   2010468   2014027   2017491   2020947  
  7150.000000   2024479   2028191   2032144   2036392   2040930  
  7140.000000   2045735   2050732   2055841   2060954   2065999  
  7130.000000   2070919   2075736   2080504   2085344   2090360  
  7120.000000   2095660   2101264   2107152   2113225   2119386  
  7110.000000   2125533   2131628   2137665   2143699   2149786  
  7100.000000   2155995   2162358   2168901   2175598   2182423  
  7090.000000   2189309   2196200   2203025   2209741   2216325  
  7080.000000   2222804   2229229   2235679   2242218   2248891  
  7070.000000   2255690   2262584   2269513   2276435   2283322  
  7060.000000   2290174   2296999   2303802   2310569   2317281  
  7050.000000   2323915   2330472   2336981   2343490   2350050  
  7040.000000   2356686   2363391   2370122   2376829   2383470  
  7030.000000   2390033   2396528   2402980   2409388   2415733  
  7020.000000   2421961   2428030   2433911   2439634   2445260  
  7010.000000   2450878   2456548   2462293   2468064   2473789  
  7000.000000   2479370   2484754   2489912   2494880   2499692  
  6990.000000   2504405   2509035   2513595   2518062   2522434  
  6980.000000   2526687   2530824   2534821   2538672   2542347  
  6970.000000   2545849   2549184   2552406   2555559   2558697  
  6960.000000   2561823   2564918   2567911   2570754   2573412  
  6950.000000   2575923   2578355   2580811   2583352   2585997  
  6940.000000   2588684   2591324   2593808   2596080   2598129  
  6930.000000   2600018   2601822   2603624   2605455   2607322  
  6920.000000   2609184   2611005   2612752   2614417   2615996  
  6910.000000   2617492   2618889   2620170   2621308   2622297  
  6900.000000   2623150   2623911   2624635   2625391   2626232  
  6890.000000   2627203   2628322   2629594   2630991   2632468  
  6880.000000   2633948   2635352   2636602   2637653   2638501  
  6870.000000   2639188   2639781   2640350   2640938   2641549  
  6860.000000   2642158   2642734   2643266   2643777   2644319  
  6850.000000   2644952   2645706   2646571   2647484   2648367  
  6840.000000   2649145   2649790   2650319   2650787   2651252  
  6830.000000   2651748   2652269   2652779   2653229   2653595  
  6820.000000   2653880   2654127   2654378   2654671   2655002  
  6810.000000   2655345   2655648   2655876   2656010   2656063  
  6800.000000   2656060   2656030   2655978   2655892   2655742  
  6790.000000   2655506   2655171   2654753   2654284   2653811  
  6780.000000   2653375   2653013   2652743   2652570   2652476  
  6770.000000   2652431   2652385   2652283   2652073   2651723  
  6760.000000   2651233   2650636   2649990   2649363   2648808  
  6750.000000   2648353   2647994   2647712   2647476   2647263  
  6740.000000   2647055   2646847   2646622   2646360   2646032  
  6730.000000   2645613   2645088   2644466   2643769   2643028  
  6720.000000   2642265   2641486   2640680   2639839   2638963  
  6710.000000   2638079   2637228   2636467   2635830   2635332  
  6700.000000   2634945   2634624   2634304   2633933   2633470  
  6690.000000   2632898   2632210   2631413   2630518   2629548  
  6680.000000   2628529   2627499   2626482   2625493   2624510  
  6670.000000   2623493   2622378   2621120   2619696   2618138  
  6660.000000   2616508   2614897   2613378   2611997   2610753  
  6650.000000   2609606   2608494   2607357   2606150   2604858  
  6640.000000   2603480   2602039   2600558   2599072   2597608  
  6630.000000   2596196   2594852   2593578   2592349   2591123  
  6620.000000   2589843   2588460   2586941   2585283   2583509  
  6610.000000   2581660   2579783   2577918   2576095   2574342  
  6600.000000   2572676   2571115   2569662   2568303   2566998  
  6590.000000   2565688   2564314   2562830   2561228   2559532  
  6580.000000   2557799   2556085   2554432   2552848   2551318  
  6570.000000   2549812   2548309   2546812   2545340   2543926  
  6560.000000   2542589   2541325   2540108   2538898   2537665  
  6550.000000   2536396   2535107   2533825   2532579   2531377  
  6540.000000   2530207   2529040   2527852   2526631   2525388  
  6530.000000   2524150   2522945   2521790   2520684   2519609  
  6520.000000   2518541   2517467   2516383   2515305   2514254  
  6510.000000   2513249   2512301   2511405   2510549   2509712  
  6500.000000   2508871   2507996   2507062   2506045   2504933  
  6490.000000   2503734   2502479   2501222   2500019   2498919  
  6480.000000   2497940   2497069   2496263   2495469   2494639  
  6470.000000   2493749   2492799   2491808   2490802   2489804  
  6460.000000   2488833   2487906   2487044   2486270   2485605  
  6450.000000   2485053   2484586   2484146   2483652   2483023  
  6440.000000   2482208   2481201   2480052   2478844   2477676  
  6430.000000   2476626   2475740   2475018   2474430   2473923  
  6420.000000   2473449   2472970   2472464   2471925   2471359  
  6410.000000   2470784   2470224   2469708   2469271   2468932  
  6400.000000   2468700   2468559   2468476   2468406   2468306  
  6390.000000   2468146   2467913   2467611   2467254   2466860  
  6380.000000   2466446   2466024   2465602   2465190   2464793  
  6370.000000   2464417   2464057   2463707   2463353   2462986  
  6360.000000   2462600   2462197   2461784   2461371   2460957  
  6350.000000   2460542   2460115   2459675   2459220   2458760  
  6340.000000   2458302   2457853   2457398   2456915   2456368  
  6330.000000   2455728   2454976   2454122   2453192   2452232  
  6320.000000   2451284   2450388   2449556   2448788   2448055  
  6310.000000   2447326   2446553   2445699   2444728   2443627  
  6300.000000   2442400   2441083   2439722   2438378   2437091  
  6290.000000   2435885   2434743   2433628   2432487   2431276  
  6280.000000   2429968   2428566   2427084   2425549   2423979  
  6270.000000   2422384   2420763   2419121   2417468   2415830  
  6260.000000   2414232   2412696   2411217   2409776   2408325  
  6250.000000   2406821   2405226   2403529   2401739   2399885  
  6240.000000   2398001   2396119   2394256   2392425   2390627  
  6230.000000   2388858   2387109   2385364   2383601   2381804  
  6220.000000   2379959   2378071   2376159   2374256   2372390  
  6210.000000   2370578   2368818   2367088   2365362   2363620  
  6200.000000   2361862   2360106   2358383   2356719   2355123  
  6190.000000   2353581   2352066   2350548   2349010   2347452  
  6180.000000   2345892   2344351   2342850   2341393   2339980  
  6170.000000   2338601   2337252   2335930   2334632   2333344  
  6160.000000   2332042   2330691   2329260   2327733   2326124  
  6150.000000   2324473   2322840   2321278   2319819   2318460  
  6140.000000   2317174   2315914   2314642   2313336   2312001  
  6130.000000   2310655   2309321   2308016   2306749   2305519  
  6120.000000   2304326   2303175   2302074   2301025   2300029  
  6110.000000   2299069   2298126   2297182   2296235   2295296  
  6100.000000   2294394   2293554   2292797   2292116   2291498  
  6090.000000   2290909   2290331   2289754   2289191   2288658  
  6080.000000   2288185   2287779   2287448   2287185   2286987  
  6070.000000   2286851   2286789   2286804   2286908   2287091  
  6060.000000   2287347   2287647   2287984   2288339   2288720  
  6050.000000   2289128   2289584   2290092   2290674   2291342  
  6040.000000   2292124   2293039   2294114   2295348   2296733  
  6030.000000   2298229   2299799   2301394   2303000   2304612  
  6020.000000   2306257   2307959   2309742   2311597   2313506  
  6010.000000   2315423   2317320   2319172   2320991   2322792  
  6000.000000   2324614   2326474   2328390   2330354   2332365  
  5990.000000   2334412   2336507   2338658   2340888   2343208  
  5980.000000   2345631   2348150   2350766   2353471   2356269  
  5970.000000   2359158   2362139   2365199   2368324   2371486  
  5960.000000   2374672   2377862   2381061   2384266   2387487  
  5950.000000   2390712   2393937   2397146   2400339   2403527  
  5940.000000   2406739   2410014   2413388   2416881   2420490  
  5930.000000   2424191   2427943   2431710   2435459   2439172  
  5920.000000   2442839   2446449   2449988   2453435   2456765  
  5910.000000   2459960   2463012   2465926   2468718   2471409  
  5900.000000   2474021   2476583   2479115   2481653   2484226  
  5890.000000   2486868   2489593   2492405   2495276   2498168  
  5880.000000   2501026   2503800   2506453   2508966   2511337  
  5870.000000   2513577   2515703   2517736   2519698   2521615  
  5860.000000   2523519   2525442   2527420   2529482   2531647  
  5850.000000   2533919   2536291   2538743   2541247   2543773  
  5840.000000   2546297   2548799   2551274   2553729   2556187  
  5830.000000   2558669   2561198   2563779   2566399   2569027  
  5820.000000   2571623   2574152   2576590   2578940   2581214  
  5810.000000   2583442   2585636   2587811   2589946   2592035  
  5800.000000   2594046   2595990   2597853   2599665   2601412  
  5790.000000   2603105   2604694   2606144   2607366   2608297  
  5780.000000   2608848   2608964   2608587   2607711   2606341  
  5770.000000   2604546   2602411   2600070   2597642   2595254  
  5760.000000   2592981   2590877   2588941   2587168   2585531  
  5750.000000   2584025   2582641   2581384   2580248   2579219  
  5740.000000   2578272   2577373   2576505   2575650   2574820  
  5730.000000   2574019   2573267   2572562   2571905   2571281  
  5720.000000   2570687   2570117   2569586   2569100   2568677  
  5710.000000   2568314   2568011   2567756   2567541   2567362  
  5700.000000   2567223   2567125   2567068   2567043   2567030  
  5690.000000   2567016   2566981   2566923   2566836   2566727  
  5680.000000   2566587   2566411   2566172   2565853   2565423  
  5670.000000   2564870   2564170   2563310   2562265   2561019  
  5660.000000   2559556   2557890   2556051   2554104   2552122  
  5650.000000   2550183   2548337   2546614   2545004   2543488  
  5640.000000   2542032   2540615   2539224   2537857   2536514  
  5630.000000   2535195   2533899   2532622   2531371   2530151  
  5620.000000   2528982   2527870   2526821   2525822   2524857  
  5610.000000   2523904   2522952   2521998   2521052   2520125  
  5600.000000   2519225   2518350   2517490   2516635   2515775  
  5590.000000   2514912   2514053   2513204   2512364   2511524  
  5580.000000   2510666   2509771   2508825   2507826   2506778  
  5570.000000   2505689   2504565   2503408   2502217   2500998  
  5560.000000   2499762   2498531   2497322   2496148   2495006  
  5550.000000   2493877   2492736   2491562   2490349   2489109  
  5540.000000   2487865   2486642   2485452   2484293   2483153  
  5530.000000   2482016   2480877   2479742   2478624   2477538  
  5520.000000   2476484   2475448   2474403   2473324   2472195  
  5510.000000   2471021   2469816   2468605   2467400   2466207  
  5500.000000   2465016   2463820   2462609   2461389   2460166  
  5490.000000   2458945   2457713   2456449   2455119   2453703  
  5480.000000   2452194   2450612   2448989   2447367   2445763  
  5470.000000   2444180   2442592   2440969   2439282   2437522  
  5460.000000   2435692   2433807   2431877   2429907   2427894  
  5450.000000   2425841   2423758   2421676   2419633   2417663  
  5440.000000   2415785   2413996   2412276   2410599   2408949  
  5430.000000   2407315   2405704   2404110   2402528   2400937  
  5420.000000   2399328   2397697   2396085   2394544   2393153  
  5410.000000   2391958   2390981   2390184   2389516   2388910  
  5400.000000   2388339   2387793   2387315   2386937   2386701  
  5390.000000   2386598   2386619   2386717   2386889   2387129  
  5380.000000   2387491   2388013   2388754   2389710   2390884  
  5370.000000   2392218   2393689   2395246   2396904   2398644  
  5360.000000   2400511   2402490   2404627   2406914   2409422  
  5350.000000   2412172   2415270   2418744   2422679   2427053  
  5340.000000   2431897   2437143   2442819   2448870   2455352  
  5330.000000   2462220   2469524   2477191   2485255   2493644  
  5320.000000   2502432   2511610   2521325   2531612   2542631  
  5310.000000   2554377   2566941   2580238   2594302   2609025  
  5300.000000   2624458   2640543   2657390   2674997   2693507  
  5290.000000   2712910   2733293   2754560   2776680   2799471  
  5280.000000   2822860   2846711   2871056   2895895   2921364  
  5270.000000   2947503   2974358   3001811   3029694   3057758  
  5260.000000   3085797   3113687   3141413   3169053   3196677  
  5250.000000   3224330   3251903   3279242   3306057   3332168  
  5240.000000   3357380   3381727   3405231   3428095   3450391  
  5230.000000   3472270   3493660   3514546   3534714   3554093  
  5220.000000   3572506   3590005   3606567   3622384   3637512  
  5210.000000   3652139   3666238   3679861   3692836   3705124  
  5200.000000   3716543   3727129   3736824   3745775   3753989  
  5190.000000   3761605   3768577   3774964   3780665   3785727  
  5180.000000   3790079   3793816   3796915   3799479   3801467  
  5170.000000   3802948   3803864   3804281   3804172   3803634  
  5160.000000   3802661   3801336   3799619   3797545   3795049  
  5150.000000   3792164   3788857   3785196   3781181   3776884  
  5140.000000   3772297   3767466   3762374   3757074   3751572  
  5130.000000   3745936   3740180   3734345   3728410   3722374  
  5120.000000   3716201   3709898   3703471   3696971   3690439  
  5110.000000   3683926   3677450   3671017   3664608   3658208  
  5100.000000   3651806   3645410   3639033   3632696   3626409  
  5090.000000   3620179   3614001   3607875   3601799   3595784  
  5080.000000   3589835   3583955   3578130   3572340   3566551  
  5070.000000   3560737   3554873   3548955   3542980   3536957  
  5060.000000   3530882   3524754   3518557   3512285   3505929  
  5050.000000   3499496   3492996   3486449   3479870   3473273  
  5040.000000   3466661   3460037   3453395   3446734   3440051  
  5030.000000   3433350   3426639   3419934   3413257   3406632  
  5020.000000   3400091   3393652   3387336   3381143   3375077  
  5010.000000   3369122   3363283   3357547   3351939   3346457  
  5000.000000   3341135   3335969   3330985   3326169   3321543  
  4990.000000   3317093   3312858   3308833   3305068   3301559  
  4980.000000   3298348   3295415   3292792   3290454   3288440  
  4970.000000   3286731   3285378   3284359   3283717   3283411  
  4960.000000   3283467   3283837   3284548   3285566   3286941  
  4950.000000   3288651   3290750   3293207   3296060   3299259  
  4940.000000   3302828   3306720   3310963   3315518   3320424  
  4930.000000   3325642   3331204   3337069   3343263   3349749  
  4920.000000   3356553   3363645   3371051   3378735   3386713  
  4910.000000   3394947   3403443   3412165   3421119   3430273  
  4900.000000   3439624   3449142   3458811   3468604   3478498  
  4890.000000   3488467   3498479   3508500   3518473   3528349  
  4880.000000   3538054   3547544   3556753   3565665   3574233  
  4870.000000   3582461   3590309   3597782   3604840   3611501  
  4860.000000   3617740   3623603   3629087   3634251   3639094  
  4850.000000   3643664   3647947   3651981   3655752   3659305  
  4840.000000   3662640   3665807   3668809   3671688   3674440  
  4830.000000   3677098   3679662   3682163   3684604   3687009  
  4820.000000   3689375   3691712   3694008   3696265   3698482  
  4810.000000   3700670   3702840   3705008   3707181   3709369  
  4800.000000   3711568   3713783   3716017   3718278   3720572  
  4790.000000   3722904   3725263   3727634   3729988   3732303  
  4780.000000   3734560   3736759   3738907   3741022   3743111  
  4770.000000   3745179   3747203   3749163   3751020   3752756  
  4760.000000   3754349   3755804   3757118   3758308   3759371  
  4750.000000   3760317   3761132   3761822   3762377   3762812  
  4740.000000   3763127   3763343   3763463   3763503   3763456  
  4730.000000   3763332   3763120   3762829   3762459   3762028  
  4720.000000   3761550   3761047   3760534   3760024   3759518  
  4710.000000   3759011   3758494   3757958   3757402   3756835  
  4700.000000   3756279   3755764   3755324   3754989   3754784  
  4690.000000   3754720   3754799   3755007   3755329   3755737  
  4680.000000   3756204   3756694   3757180   3757623   3758008  
  4670.000000   3758308   3758531   3758676   3758774   3758847  
  4660.000000   3758943   3759094   3759352   3759750   3760332  
  4650.000000   3761120   3762136   3763381   3764849   3766514  
  4640.000000   3768351   3770322   3772394   3774530   3776701  
  4630.000000   3778872   3781018   3783110   3785130   3787061  
  4620.000000   3788892   3790615   3792215   3793678   3794977  
  4610.000000   3796098   3797017   3797743   3798284   3798686  
  4600.000000   3798985   3799237   3799466   3799702   3799930  
  4590.000000   3800143   3800301   3800383   3800353   3800200  
  4580.000000   3799902   3799466   3798888   3798189   3797382  
  4570.000000   3796495   3795544   3794548   3793503   3792406  
  4560.000000   3791232   3789965   3788586   3787097   3785505  
  4550.000000   3783843   3782139   3780429   3778739   3777085  
  4540.000000   3775474   3773905   3772381   3770897   3769463  
  4530.000000   3768078   3766762   3765511   3764353   3763281  
  4520.000000   3762330   3761491   3760809   3760280   3759966  
  4510.000000   3759872   3760082   3760609   3761550   3762912  
  4500.000000   3764781   3767139   3770051   3773475   3777472  
  4490.000000   3782006   3787153   3792898   3799330   3806431  
  4480.000000   3814275   3822819   3832103   3842051   3852675  
  4470.000000   3863879   3875650   3887883   3900552   3913557  
  4460.000000   3926880   3940442   3954238   3968210   3982348  
  4450.000000   3996592   4010917   4025265   4039612   4053935  
  4440.000000   4068231   4082514   4096789   4111075   4125342  
  4430.000000   4139587   4153743   4167791   4181645   4195287  
  4420.000000   4208620   4221623   4234180   4246259   4257733  
  4410.000000   4268570   4278655   4287978   4296456   4304115  
  4400.000000   4310918   4316936   4322182   4326769   4330755  
  4390.000000   4334283   4337432   4340350   4343107   4345817  
  4380.000000   4348518   4351273   4354085   4356987   4359982  
  4370.000000   4363105   4366384   4369869   4373599   4377610  
  4360.000000   4381913   4386507   4391355   4396424   4401641  
  4350.000000   4406966   4412309   4417648   4422905   4428083  
  4340.000000   4433127   4438045   4442752   4447164   4451059  
  4330.000000   4454181   4456167   4456696   4455496   4452494  
  4320.000000   4447813   4441829   4435060   4428128   4421571  
  4310.000000   4415829   4411103   4407442   4404713   4402735  
  4300.000000   4401296   4400238   4399451   4398876   4398492  
  4290.000000   4398272   4398221   4398312   4398564   4398968  
  4280.000000   4399547   4400300   4401220   4402289   4403465  
  4270.000000   4404722   4406008   4407282   4408447   4409383  
  4260.000000   4409894   4409763   4408761   4406727   4403593  
  4250.000000   4399444   4394479   4389019   4383395   4377942  
  4240.000000   4372885   4368378   4364428   4360994   4357947  
  4230.000000   4355167   4352517   4349888   4347196   4344380  
  4220.000000   4341424   4338325   4335143   4331933   4328805  
  4210.000000   4325831   4323108   4320674   4318569   4316774  
  4200.000000   4315282   4314045   4313043   4312224   4311578  
  4190.000000   4311052   4310644   4310310   4310068   4309891  
  4180.000000   4309830   4309883   4310123   4310563   4311285  
  4170.000000   4312303   4313698   4315479   4317719   4320407  
  4160.000000   4323594   4327243   4331385   4335964   4341009  
  4150.000000   4346473   4352400   4358753   4365586   4372860  
  4140.000000   4380622   4388825   4397509   4406620   4416198  
  4130.000000   4426184   4436613   4447429   4458664   4470273  
  4120.000000   4482298   4494710   4507562   4520835   4534575  
  4110.000000   4548757   4563405   4578473   4593956   4609786  
  4100.000000   4625931   4642311   4658884   4675589   4692398  
  4090.000000   4709285   4726243   4743268   4760357   4777515  
  4080.000000   4794727   4812001   4829308   4846647   4863956  
  4070.000000   4881206   4898286   4915144   4931657   4947797  
  4060.000000   4963477   4978715   4993444   5007696   5021387  
  4050.000000   5034547   5047092   5059083   5070464   5081322  
  4040.000000   5091598   5101354   5110483   5119017   5126841  
  4030.000000   5134011   5140444   5146216   5151258   5155611  
  4020.000000   5159155   5161926   5163881   5165095   5165522  
  4010.000000   5165311   5164549   5163252   5161177   5158383  
  4000.000000   5155225  
##END= 
