##TITLE= Sample 009 By ssteindl date Donnerstag, November 22 2018
##JCAMP-DX= 4.24
##DATA TYPE= INFRARED SPECTRUM
##ORIGIN= Exported PE Spectrum Data File
##OWNER= Sandra Steindl
##DATE= 18/11/22
##TIME= 12:45:33.00
##SPECTROMETER/DATA SYSTEM= PERKIN-ELMER Frontier FT-IR/NIR IR
##INSTRUMENT PARAMETERS=
  APODIZATION=stark
  DETECTOR=INGAAS
##RESOLUTION= 16.000000
##DELTAX= -2.000000
##XUNITS= 1/CM
##YUNITS= A
##XFACTOR= 1.00
##YFACTOR= 0.00000011920928955078
##FIRSTX= 10000.00
##LASTX= 4000.00
##NPOINTS= 3001
##FIRSTY= 0.217895
##MAXY= 0.697104
##MINY= 0.186158
##XYDATA= (X++(Y..Y))
 10000.000000   1827833   1833951   1840723   1848116   1854211  
  9990.000000   1856895   1855692   1851946   1847326   1843289  
  9980.000000   1840818   1840267   1841018   1841952   1842043  
  9970.000000   1840768   1838029   1834072   1829185   1823550  
  9960.000000   1817222   1810376   1803519   1797570   1793650  
  9950.000000   1792633   1794687   1799095   1804402   1809003  
  9940.000000   1811692   1812154   1810980   1809361   1808520  
  9930.000000   1809144   1811118   1813582   1815369   1815474  
  9920.000000   1813487   1809613   1804544   1799043   1793705  
  9910.000000   1788791   1784315   1780185   1776337   1772806  
  9900.000000   1769674   1767063   1765052   1763775   1763397  
  9890.000000   1764200   1766470   1770324   1775559   1781452  
  9880.000000   1786955   1790840   1792196   1790631   1786513  
  9870.000000   1780767   1774677   1769467   1766076   1764964  
  9860.000000   1766105   1769089   1773216   1777707   1781763  
  9850.000000   1784802   1786462   1786810   1786231   1785410  
  9840.000000   1785055   1785653   1787309   1789614   1791896  
  9830.000000   1793340   1793377   1791742   1788527   1784041  
  9820.000000   1778656   1772770   1766805   1761343   1757120  
  9810.000000   1754997   1755650   1759356   1765662   1773481  
  9800.000000   1781242   1787431   1791009   1791729   1790149  
  9790.000000   1787267   1784158   1781466   1779347   1777454  
  9780.000000   1775281   1772421   1768762   1764543   1760175  
  9770.000000   1756167   1752903   1750705   1749737   1750089  
  9760.000000   1751664   1754143   1756956   1759329   1760526  
  9750.000000   1760042   1757873   1754490   1750747   1747503  
  9740.000000   1745348   1744343   1744104   1743995   1743501  
  9730.000000   1742456   1741112   1739989   1739567   1740074  
  9720.000000   1741327   1742899   1744269   1745126   1745442  
  9710.000000   1745470   1745579   1746042   1746926   1748030  
  9700.000000   1748977   1749309   1748615   1746607   1743198  
  9690.000000   1738530   1733009   1727295   1722200   1718548  
  9680.000000   1716900   1717384   1719572   1722612   1725487  
  9670.000000   1727380   1727919   1727281   1726023   1724804  
  9660.000000   1724109   1724039   1724400   1724817   1725008  
  9650.000000   1724865   1724452   1723868   1723076   1721915  
  9640.000000   1720170   1717811   1715101   1712618   1711005  
  9630.000000   1710673   1711501   1712820   1713628   1713029  
  9620.000000   1710651   1706829   1702498   1698766   1696467  
  9610.000000   1695777   1696215   1696863   1696835   1695627  
  9600.000000   1693332   1690520   1687971   1686325   1685865  
  9590.000000   1686516   1687962   1689876   1692007   1694199  
  9580.000000   1696310   1698118   1699370   1699843   1699504  
  9570.000000   1698525   1697247   1695970   1694811   1693597  
  9560.000000   1691990   1689700   1686741   1683583   1680979  
  9550.000000   1679756   1680315   1682533   1685667   1688750  
  9540.000000   1690923   1691795   1691520   1690612   1689637  
  9530.000000   1688815   1687925   1686317   1683331   1678592  
  9520.000000   1672333   1665326   1658652   1653323   1649931  
  9510.000000   1648599   1648986   1650610   1652998   1655847  
  9500.000000   1658993   1662291   1665547   1668417   1670509  
  9490.000000   1671440   1671021   1669294   1666573   1663339  
  9480.000000   1660156   1657554   1655951   1655625   1656630  
  9470.000000   1658763   1661496   1664047   1665515   1665154  
  9460.000000   1662605   1658078   1652311   1646400   1641469  
  9450.000000   1638379   1637498   1638660   1641253   1644441  
  9440.000000   1647371   1649374   1650061   1649330   1647359  
  9430.000000   1644498   1641243   1638088   1635465   1633584  
  9420.000000   1632435   1631790   1631384   1631062   1630893  
  9410.000000   1631148   1632124   1633978   1636535   1639309  
  9400.000000   1641604   1642789   1642552   1641079   1639034  
  9390.000000   1637307   1636678   1637480   1639498   1642041  
  9380.000000   1644212   1645187   1644455   1641932   1637949  
  9370.000000   1633141   1628272   1624090   1621184   1619930  
  9360.000000   1620383   1622285   1625027   1627828   1629909  
  9350.000000   1630792   1630445   1629278   1627982   1627184  
  9340.000000   1627229   1627938   1628738   1628802   1627469  
  9330.000000   1624533   1620385   1615916   1612139   1609917  
  9320.000000   1609649   1611286   1614356   1618170   1621980  
  9310.000000   1625106   1627041   1627450   1626236   1623523  
  9300.000000   1619701   1615365   1611215   1607881   1605751  
  9290.000000   1604880   1605024   1605790   1606812   1607888  
  9280.000000   1608958   1610022   1610983   1611599   1611528  
  9270.000000   1610481   1608428   1605705   1603005   1601141  
  9260.000000   1600738   1601971   1604464   1607459   1610051  
  9250.000000   1611535   1611571   1610279   1608125   1605661  
  9240.000000   1603360   1601447   1599994   1598906   1598032  
  9230.000000   1597158   1596059   1594551   1592524   1590072  
  9220.000000   1587510   1585463   1584686   1585833   1589090  
  9210.000000   1594038   1599677   1604708   1607931   1608626  
  9200.000000   1606809   1603167   1598788   1594727   1591660  
  9190.000000   1589710   1588543   1587590   1586369   1584682  
  9180.000000   1582681   1580731   1579173   1578174   1577636  
  9170.000000   1577333   1577016   1576578   1576097   1575826  
  9160.000000   1576091   1577131   1578984   1581438   1584102  
  9150.000000   1586483   1588137   1588709   1588073   1586301  
  9140.000000   1583678   1580596   1577446   1574580   1572234  
  9130.000000   1570563   1569621   1569444   1570056   1571466  
  9120.000000   1573567   1576056   1578407   1579965   1580160  
  9110.000000   1578646   1575524   1571342   1567031   1563572  
  9100.000000   1561679   1561605   1563114   1565640   1568490  
  9090.000000   1571132   1573328   1575123   1576656   1577986  
  9080.000000   1579007   1579454   1579095   1577831   1575871  
  9070.000000   1573646   1571704   1570463   1570045   1570292  
  9060.000000   1570847   1571413   1571847   1572285   1573013  
  9050.000000   1574325   1576292   1578685   1580997   1582641  
  9040.000000   1583175   1582445   1580663   1578284   1575877  
  9030.000000   1573897   1572572   1571862   1571532   1571278  
  9020.000000   1570844   1570109   1569101   1567994   1567024  
  9010.000000   1566445   1566428   1567055   1568280   1569940  
  9000.000000   1571806   1573618   1575179   1576363   1577130  
  8990.000000   1577494   1577491   1577148   1576482   1575519  
  8980.000000   1574349   1573122   1572032   1571249   1570855  
  8970.000000   1570798   1570895   1570909   1570640   1570032  
  8960.000000   1569181   1568317   1567676   1567435   1567639  
  8950.000000   1568210   1569010   1569905   1570851   1571828  
  8940.000000   1572834   1573760   1574419   1574534   1573872  
  8930.000000   1572359   1570188   1567813   1565830   1564842  
  8920.000000   1565260   1567213   1570468   1574540   1578799  
  8910.000000   1582633   1585540   1587213   1587561   1586680  
  8900.000000   1584818   1582310   1579556   1576926   1574750  
  8890.000000   1573210   1572355   1572079   1572158   1572338  
  8880.000000   1572352   1572055   1571411   1570564   1569786  
  8870.000000   1569412   1569775   1571052   1573232   1576015  
  8860.000000   1578904   1581262   1582530   1582402   1580977  
  8850.000000   1578756   1576521   1575100   1575121   1576800  
  8840.000000   1579875   1583688   1587409   1590294   1591898  
  8830.000000   1592165   1591391   1590089   1588821   1588036  
  8820.000000   1587987   1588699   1590031   1591725   1593492  
  8810.000000   1595069   1596266   1597021   1597387   1597547  
  8800.000000   1597739   1598206   1599096   1600414   1602015  
  8790.000000   1603656   1605098   1606186   1606905   1607359  
  8780.000000   1607727   1608141   1608660   1609200   1609624  
  8770.000000   1609770   1609562   1609031   1608329   1607703  
  8760.000000   1607422   1607754   1608897   1610972   1613988  
  8750.000000   1617809   1622151   1626567   1630545   1633587  
  8740.000000   1635371   1635823   1635169   1633869   1632515  
  8730.000000   1631665   1631716   1632817   1634880   1637634  
  8720.000000   1640707   1643725   1646343   1648304   1649450  
  8710.000000   1649761   1649384   1648610   1647857   1647549  
  8700.000000   1648024   1649403   1651563   1654166   1656782  
  8690.000000   1659052   1660803   1662105   1663207   1664412  
  8680.000000   1665944   1667839   1669963   1672054   1673880  
  8670.000000   1675316   1676416   1677371   1678417   1679752  
  8660.000000   1681449   1683471   1685692   1687977   1690234  
  8650.000000   1692411   1694494   1696435   1698159   1699540  
  8640.000000   1700472   1700902   1700903   1700670   1700505  
  8630.000000   1700733   1701605   1703260   1705668   1708677  
  8620.000000   1712035   1715483   1718811   1721889   1724671  
  8610.000000   1727148   1729335   1731202   1732713   1733808  
  8600.000000   1734495   1734854   1735076   1735429   1736179  
  8590.000000   1737548   1739596   1742242   1745249   1748348  
  8580.000000   1751302   1753992   1756424   1758668   1760798  
  8570.000000   1762793   1764524   1765782   1766398   1766342  
  8560.000000   1765807   1765189   1764980   1765615   1767295  
  8550.000000   1769933   1773136   1776361   1779061   1780884  
  8540.000000   1781763   1781922   1781774   1781764   1782229  
  8530.000000   1783305   1784920   1786838   1788765   1790438  
  8520.000000   1791713   1792574   1793115   1793501   1793901  
  8510.000000   1794458   1795251   1796291   1797548   1798951  
  8500.000000   1800431   1801912   1803342   1804676   1805890  
  8490.000000   1806973   1807949   1808865   1809803   1810859  
  8480.000000   1812126   1813668   1815484   1817518   1819660  
  8470.000000   1821792   1823820   1825709   1827480   1829189  
  8460.000000   1830885   1832562   1834157   1835556   1836651  
  8450.000000   1837380   1837758   1837895   1837946   1838088  
  8440.000000   1838437   1839062   1839967   1841132   1842522  
  8430.000000   1844098   1845809   1847558   1849184   1850495  
  8420.000000   1851311   1851559   1851310   1850810   1850415  
  8410.000000   1850509   1851349   1852984   1855207   1857630  
  8400.000000   1859789   1861279   1861857   1861496   1860372  
  8390.000000   1858778   1857023   1855360   1853964   1852924  
  8380.000000   1852274   1852007   1852103   1852516   1853161  
  8370.000000   1853924   1854667   1855283   1855727   1856034  
  8360.000000   1856316   1856719   1857377   1858347   1859587  
  8350.000000   1860969   1862318   1863479   1864350   1864923  
  8340.000000   1865262   1865482   1865676   1865897   1866118  
  8330.000000   1866264   1866225   1865916   1865299   1864413  
  8320.000000   1863346   1862223   1861143   1860171   1859304  
  8310.000000   1858494   1857677   1856804   1855872   1854920  
  8300.000000   1854028   1853271   1852712   1852362   1852203  
  8290.000000   1852181   1852250   1852379   1852567   1852838  
  8280.000000   1853215   1853723   1854363   1855124   1855985  
  8270.000000   1856921   1857910   1858906   1859837   1860584  
  8260.000000   1861004   1860958   1860355   1859202   1857603  
  8250.000000   1855781   1853995   1852511   1851495   1851002  
  8240.000000   1850932   1851097   1851249   1851170   1850700  
  8230.000000   1849776   1848417   1846713   1844785   1842769  
  8220.000000   1840796   1838987   1837446   1836249   1835428  
  8210.000000   1834954   1834717   1834563   1834302   1833780  
  8200.000000   1832907   1831691   1830233   1828693   1827234  
  8190.000000   1825967   1824920   1824033   1823198   1822300  
  8180.000000   1821270   1820097   1818823   1817516   1816227  
  8170.000000   1814967   1813708   1812403   1811029   1809602  
  8160.000000   1808193   1806890   1805764   1804835   1804051  
  8150.000000   1803314   1802520   1801612   1800616   1799627  
  8140.000000   1798765   1798116   1797663   1797296   1796826  
  8130.000000   1796077   1794944   1793454   1791757   1790069  
  8120.000000   1788591   1787424   1786521   1785702   1784726  
  8110.000000   1783372   1781539   1779272   1776761   1774280  
  8100.000000   1772103   1770436   1769365   1768851   1768751  
  8090.000000   1768868   1769002   1768990   1768737   1768213  
  8080.000000   1767458   1766550   1765590   1764661   1763820  
  8070.000000   1763068   1762374   1761682   1760939   1760126  
  8060.000000   1759251   1758363   1757509   1756729   1756022  
  8050.000000   1755356   1754673   1753911   1753026   1752000  
  8040.000000   1750839   1749567   1748218   1746832   1745461  
  8030.000000   1744164   1743006   1742036   1741264   1740653  
  8020.000000   1740115   1739541   1738849   1738013   1737095  
  8010.000000   1736216   1735511   1735063   1734861   1734785  
  8000.000000   1734658   1734305   1733641   1732697   1731623  
  7990.000000   1730622   1729873   1729456   1729327   1729341  
  7980.000000   1729320   1729130   1728741   1728230   1727744  
  7970.000000   1727435   1727385   1727579   1727904   1728196  
  7960.000000   1728303   1728127   1727656   1726951   1726120  
  7950.000000   1725277   1724512   1723878   1723388   1723024  
  7940.000000   1722748   1722511   1722262   1721961   1721581  
  7930.000000   1721126   1720624   1720134   1719723   1719447  
  7920.000000   1719343   1719400   1719578   1719786   1719932  
  7910.000000   1719906   1719629   1719052   1718187   1717111  
  7900.000000   1715975   1714982   1714353   1714281   1714864  
  7890.000000   1716090   1717803   1719762   1721679   1723299  
  7880.000000   1724461   1725109   1725294   1725117   1724691  
  7870.000000   1724085   1723329   1722424   1721380   1720259  
  7860.000000   1719177   1718304   1717789   1717749   1718175  
  7850.000000   1718968   1719925   1720817   1721437   1721658  
  7840.000000   1721455   1720880   1720042   1719044   1717961  
  7830.000000   1716821   1715627   1714385   1713135   1711969  
  7820.000000   1711003   1710361   1710106   1710227   1710613  
  7810.000000   1711084   1711442   1711517   1711224   1710564  
  7800.000000   1709629   1708546   1707451   1706450   1705614  
  7790.000000   1704988   1704601   1704482   1704637   1705047  
  7780.000000   1705626   1706240   1706711   1706870   1706608  
  7770.000000   1705901   1704827   1703526   1702162   1700861  
  7760.000000   1699693   1698667   1697758   1696950   1696252  
  7750.000000   1695709   1695364   1695238   1695292   1695441  
  7740.000000   1695568   1695575   1695413   1695095   1694689  
  7730.000000   1694268   1693887   1693551   1693227   1692867  
  7720.000000   1692440   1691949   1691430   1690927   1690462  
  7710.000000   1690025   1689570   1689051   1688446   1687786  
  7700.000000   1687148   1686626   1686290   1686147   1686130  
  7690.000000   1686114   1685966   1685594   1684992   1684243  
  7680.000000   1683501   1682935   1682674   1682772   1683193  
  7670.000000   1683825   1684519   1685121   1685518   1685643  
  7660.000000   1685496   1685119   1684590   1683994   1683409  
  7650.000000   1682887   1682454   1682103   1681818   1681573  
  7640.000000   1681359   1681178   1681044   1680977   1680984  
  7630.000000   1681054   1681164   1681276   1681371   1681445  
  7620.000000   1681530   1681670   1681922   1682320   1682876  
  7610.000000   1683561   1684326   1685106   1685845   1686503  
  7600.000000   1687065   1687539   1687953   1688347   1688770  
  7590.000000   1689273   1689899   1690664   1691554   1692510  
  7580.000000   1693444   1694252   1694849   1695193   1695309  
  7570.000000   1695277   1695223   1695265   1695490   1695918  
  7560.000000   1696514   1697201   1697910   1698599   1699284  
  7550.000000   1700018   1700878   1701917   1703142   1704498  
  7540.000000   1705897   1707237   1708458   1709547   1710563  
  7530.000000   1711589   1712723   1714013   1715459   1716991  
  7520.000000   1718520   1719950   1721235   1722382   1723469  
  7510.000000   1724601   1725897   1727439   1729267   1731357  
  7500.000000   1733644   1736025   1738395   1740661   1742766  
  7490.000000   1744693   1746477   1748188   1749931   1751799  
  7480.000000   1753866   1756135   1758555   1761004   1763342  
  7470.000000   1765437   1767228   1768742   1770104   1771505  
  7460.000000   1773149   1775197   1777720   1780676   1783924  
  7450.000000   1787268   1790518   1793533   1796258   1798715  
  7440.000000   1800999   1803223   1805485   1807830   1810265  
  7430.000000   1812743   1815218   1817644   1820016   1822360  
  7420.000000   1824727   1827170   1829722   1832390   1835145  
  7410.000000   1837940   1840730   1843482   1846186   1848854  
  7400.000000   1851508   1854167   1856836   1859504   1862148  
  7390.000000   1864744   1867272   1869725   1872108   1874434  
  7380.000000   1876722   1878988   1881248   1883515   1885790  
  7370.000000   1888070   1890341   1892585   1894791   1896966  
  7360.000000   1899142   1901379   1903754   1906337   1909160  
  7350.000000   1912199   1915364   1918521   1921521   1924252  
  7340.000000   1926672   1928817   1930787   1932704   1934673  
  7330.000000   1936754   1938949   1941220   1943501   1945739  
  7320.000000   1947894   1949965   1951959   1953905   1955820  
  7310.000000   1957728   1959635   1961539   1963422   1965255  
  7300.000000   1966990   1968581   1969989   1971211   1972284  
  7290.000000   1973289   1974326   1975489   1976828   1978340  
  7280.000000   1979970   1981635   1983254   1984785   1986235  
  7270.000000   1987651   1989097   1990621   1992229   1993881  
  7260.000000   1995512   1997045   1998439   1999682   2000818  
  7250.000000   2001898   2002992   2004136   2005357   2006647  
  7240.000000   2008012   2009457   2011025   2012764   2014742  
  7230.000000   2017002   2019569   2022414   2025497   2028734  
  7220.000000   2032060   2035395   2038703   2041943   2045120  
  7210.000000   2048227   2051300   2054360   2057470   2060676  
  7200.000000   2064052   2067645   2071507   2075645   2080056  
  7190.000000   2084681   2089465   2094315   2099174   2103985  
  7180.000000   2108752   2113490   2118262   2123116   2128116  
  7170.000000   2133278   2138615   2144086   2149664   2155281  
  7160.000000   2160905   2166488   2172022   2177496   2182945  
  7150.000000   2188405   2193954   2199659   2205608   2211846  
  7140.000000   2218403   2225247   2232336   2239592   2246967  
  7130.000000   2254409   2261919   2269485   2277132   2284838  
  7120.000000   2292596   2300353   2308082   2315741   2323345  
  7110.000000   2330913   2338517   2346224   2354119   2362247  
  7100.000000   2370644   2379285   2388130   2397092   2406092  
  7090.000000   2415048   2423920   2432697   2441419   2450136  
  7080.000000   2458918   2467801   2476802   2485894   2495040  
  7070.000000   2504195   2513343   2522483   2531635   2540808  
  7060.000000   2549994   2559153   2568231   2577181   2585993  
  7050.000000   2594702   2603383   2612119   2620963   2629916  
  7040.000000   2638918   2647878   2656705   2665354   2673830  
  7030.000000   2682194   2690514   2698854   2707224   2715600  
  7020.000000   2723918   2732128   2740189   2748096   2755854  
  7010.000000   2763478   2770962   2778304   2785488   2792540  
  7000.000000   2799488   2806405   2813335   2820317   2827328  
  6990.000000   2834328   2841233   2847991   2854553   2860921  
  6980.000000   2867094   2873086   2878885   2884483   2889862  
  6970.000000   2895049   2900082   2905040   2909978   2914941  
  6960.000000   2919904   2924829   2929639   2934309   2938830  
  6950.000000   2943259   2947643   2952030   2956393   2960672  
  6940.000000   2964760   2968579   2972091   2975335   2978387  
  6930.000000   2981356   2984304   2987262   2990194   2993060  
  6920.000000   2995811   2998453   3001019   3003575   3006166  
  6910.000000   3008822   3011511   3014185   3016772   3019224  
  6900.000000   3021516   3023664   3025704   3027692   3029674  
  6890.000000   3031693   3033761   3035877   3038003   3040092  
  6880.000000   3042081   3043925   3045602   3047131   3048563  
  6870.000000   3049971   3051411   3052917   3054475   3056045  
  6860.000000   3057575   3059035   3060415   3061749   3063071  
  6850.000000   3064425   3065823   3067269   3068750   3070263  
  6840.000000   3071809   3073394   3074999   3076581   3078056  
  6830.000000   3079336   3080347   3081076   3081564   3081917  
  6820.000000   3082248   3082652   3083155   3083731   3084303  
  6810.000000   3084803   3085181   3085439   3085604   3085720  
  6800.000000   3085808   3085877   3085915   3085925   3085925  
  6790.000000   3085960   3086070   3086281   3086568   3086874  
  6780.000000   3087121   3087252   3087248   3087146   3087006  
  6770.000000   3086892   3086826   3086792   3086735   3086607  
  6760.000000   3086379   3086067   3085709   3085346   3084984  
  6750.000000   3084594   3084111   3083480   3082680   3081745  
  6740.000000   3080753   3079798   3078944   3078210   3077556  
  6730.000000   3076916   3076223   3075451   3074614   3073770  
  6720.000000   3072983   3072304   3071743   3071276   3070849  
  6710.000000   3070401   3069878   3069240   3068467   3067553  
  6700.000000   3066514   3065380   3064197   3063018   3061888  
  6690.000000   3060837   3059865   3058953   3058068   3057190  
  6680.000000   3056308   3055437   3054588   3053768   3052955  
  6670.000000   3052108   3051176   3050121   3048933   3047638  
  6660.000000   3046274   3044884   3043485   3042074   3040623  
  6650.000000   3039118   3037553   3035961   3034378   3032842  
  6640.000000   3031357   3029900   3028417   3026855   3025176  
  6630.000000   3023379   3021486   3019539   3017569   3015597  
  6620.000000   3013620   3011633   3009635   3007645   3005688  
  6610.000000   3003795   3001978   3000232   2998529   2996838  
  6600.000000   2995126   2993379   2991591   2989766   2987909  
  6590.000000   2986022   2984119   2982219   2980359   2978576  
  6580.000000   2976895   2975311   2973787   2972258   2970655  
  6570.000000   2968935   2967100   2965197   2963302   2961493  
  6560.000000   2959820   2958292   2956884   2955547   2954241  
  6550.000000   2952937   2951627   2950307   2948974   2947611  
  6540.000000   2946204   2944746   2943254   2941764   2940324  
  6530.000000   2938971   2937720   2936553   2935436   2934332  
  6520.000000   2933226   2932120   2931040   2930000   2929005  
  6510.000000   2928025   2927021   2925953   2924812   2923624  
  6500.000000   2922453   2921366   2920422   2919640   2919001  
  6490.000000   2918451   2917926   2917368   2916738   2916019  
  6480.000000   2915209   2914317   2913366   2912384   2911413  
  6470.000000   2910497   2909674   2908961   2908347   2907786  
  6460.000000   2907219   2906590   2905863   2905036   2904139  
  6450.000000   2903216   2902310   2901452   2900654   2899913  
  6440.000000   2899224   2898581   2897981   2897417   2896877  
  6430.000000   2896340   2895787   2895205   2894598   2893986  
  6420.000000   2893398   2892855   2892371   2891937   2891539  
  6410.000000   2891164   2890809   2890486   2890208   2889981  
  6400.000000   2889794   2889615   2889406   2889130   2888776  
  6390.000000   2888351   2887882   2887396   2886912   2886435  
  6380.000000   2885960   2885486   2885027   2884615   2884287  
  6370.000000   2884077   2883991   2884009   2884087   2884172  
  6360.000000   2884220   2884204   2884116   2883953   2883709  
  6350.000000   2883373   2882929   2882374   2881723   2881016  
  6340.000000   2880301   2879631   2879027   2878491   2877992  
  6330.000000   2877495   2876963   2876383   2875747   2875069  
  6320.000000   2874347   2873583   2872761   2871876   2870927  
  6310.000000   2869937   2868928   2867928   2866937   2865942  
  6300.000000   2864900   2863775   2862534   2861178   2859721  
  6290.000000   2858203   2856653   2855097   2853541   2851989  
  6280.000000   2850439   2848903   2847388   2845905   2844444  
  6270.000000   2842980   2841467   2839860   2838115   2836218  
  6260.000000   2834178   2832033   2829830   2827621   2825449  
  6250.000000   2823350   2821342   2819436   2817621   2815880  
  6240.000000   2814178   2812480   2810748   2808966   2807130  
  6230.000000   2805256   2803367   2801484   2799615   2797754  
  6220.000000   2795885   2793994   2792073   2790128   2788171  
  6210.000000   2786217   2784273   2782334   2780383   2778401  
  6200.000000   2776375   2774298   2772176   2770022   2767852  
  6190.000000   2765686   2763543   2761448   2759417   2757464  
  6180.000000   2755591   2753783   2752015   2750254   2748478  
  6170.000000   2746672   2744841   2742995   2741147   2739300  
  6160.000000   2737452   2735600   2733754   2731938   2730191  
  6150.000000   2728552   2727040   2725641   2724308   2722967  
  6140.000000   2721556   2720038   2718424   2716761   2715117  
  6130.000000   2713545   2712073   2710686   2709350   2708025  
  6120.000000   2706692   2705358   2704054   2702811   2701653  
  6110.000000   2700570   2699538   2698518   2697486   2696428  
  6100.000000   2695361   2694306   2693292   2692333   2691442  
  6090.000000   2690618   2689867   2689188   2688588   2688054  
  6080.000000   2687572   2687110   2686641   2686146   2685633  
  6070.000000   2685127   2684675   2684310   2684061   2683918  
  6060.000000   2683861   2683850   2683860   2683869   2683881  
  6050.000000   2683901   2683945   2684014   2684120   2684261  
  6040.000000   2684456   2684720   2685079   2685542   2686116  
  6030.000000   2686776   2687500   2688254   2689026   2689814  
  6020.000000   2690637   2691509   2692443   2693431   2694463  
  6010.000000   2695515   2696582   2697662   2698775   2699928  
  6000.000000   2701130   2702355   2703574   2704740   2705828  
  5990.000000   2706827   2707770   2708703   2709696   2710802  
  5980.000000   2712069   2713509   2715121   2716882   2718772  
  5970.000000   2720764   2722845   2724996   2727216   2729492  
  5960.000000   2731826   2734203   2736627   2739082   2741571  
  5950.000000   2744085   2746639   2749239   2751911   2754671  
  5940.000000   2757535   2760503   2763563   2766689   2769851  
  5930.000000   2773021   2776177   2779305   2782395   2785438  
  5920.000000   2788423   2791337   2794172   2796924   2799601  
  5910.000000   2802213   2804770   2807271   2809703   2812052  
  5900.000000   2814305   2816472   2818580   2820681   2822827  
  5890.000000   2825067   2827418   2829875   2832404   2834969  
  5880.000000   2837529   2840061   2842551   2844990   2847374  
  5870.000000   2849689   2851927   2854080   2856158   2858179  
  5860.000000   2860173   2862167   2864178   2866213   2868276  
  5850.000000   2870370   2872516   2874740   2877075   2879539  
  5840.000000   2882134   2884828   2887580   2890341   2893080  
  5830.000000   2895790   2898492   2901220   2904005   2906861  
  5820.000000   2909781   2912737   2915693   2918615   2921469  
  5810.000000   2924234   2926881   2929393   2931739   2933914  
  5800.000000   2935904   2937741   2939446   2941074   2942646  
  5790.000000   2944192   2945691   2947130   2948448   2949606  
  5780.000000   2950536   2951199   2951544   2951556   2951224  
  5770.000000   2950586   2949694   2948638   2947505   2946388  
  5760.000000   2945346   2944419   2943608   2942909   2942301  
  5750.000000   2941778   2941332   2940965   2940676   2940463  
  5740.000000   2940319   2940234   2940202   2940211   2940252  
  5730.000000   2940300   2940334   2940325   2940261   2940140  
  5720.000000   2939991   2939849   2939761   2939753   2939836  
  5710.000000   2939992   2940198   2940431   2940690   2940989  
  5700.000000   2941357   2941817   2942375   2943015   2943704  
  5690.000000   2944406   2945098   2945776   2946447   2947127  
  5680.000000   2947818   2948509   2949168   2949766   2950268  
  5670.000000   2950660   2950925   2951060   2951048   2950875  
  5660.000000   2950520   2949984   2949281   2948459   2947564  
  5650.000000   2946655   2945756   2944880   2944009   2943131  
  5640.000000   2942233   2941333   2940450   2939611   2938822  
  5630.000000   2938071   2937327   2936556   2935739   2934880  
  5620.000000   2934004   2933145   2932327   2931556   2930816  
  5610.000000   2930083   2929334   2928566   2927789   2927027  
  5600.000000   2926298   2925605   2924933   2924255   2923539  
  5590.000000   2922767   2921928   2921027   2920066   2919048  
  5580.000000   2917971   2916837   2915654   2914443   2913228  
  5570.000000   2912032   2910862   2909716   2908568   2907400  
  5560.000000   2906195   2904955   2903692   2902424   2901156  
  5550.000000   2899883   2898587   2897246   2895850   2894406  
  5540.000000   2892940   2891483   2890064   2888696   2887377  
  5530.000000   2886098   2884850   2883630   2882446   2881306  
  5520.000000   2880213   2879159   2878122   2877079   2876006  
  5510.000000   2874891   2873731   2872530   2871292   2870023  
  5500.000000   2868724   2867406   2866081   2864768   2863476  
  5490.000000   2862206   2860926   2859598   2858169   2856608  
  5480.000000   2854906   2853093   2851216   2849335   2847486  
  5470.000000   2845686   2843917   2842153   2840358   2838516  
  5460.000000   2836619   2834674   2832683   2830646   2828557  
  5450.000000   2826416   2824231   2822025   2819829   2817671  
  5440.000000   2815569   2813522   2811528   2809576   2807674  
  5430.000000   2805832   2804069   2802382   2800765   2799184  
  5420.000000   2797622   2796067   2794554   2793130   2791870  
  5410.000000   2790806   2789958   2789278   2788719   2788220  
  5400.000000   2787775   2787390   2787134   2787050   2787191  
  5390.000000   2787540   2788080   2788747   2789519   2790373  
  5380.000000   2791348   2792463   2793772   2795265   2796954  
  5370.000000   2798791   2800778   2802881   2805135   2807527  
  5360.000000   2810111   2812867   2815849   2819043   2822533  
  5350.000000   2826341   2830583   2835278   2840510   2846237  
  5340.000000   2852487   2859180   2866354   2873956   2882064  
  5330.000000   2890637   2899743   2909309   2919381   2929878  
  5320.000000   2940882   2952367   2964477   2977215   2990729  
  5310.000000   3004987   3020087   3035948   3052648   3070116  
  5300.000000   3088454   3107628   3127772   3148868   3171039  
  5290.000000   3194238   3218518   3243749   3269885   3296730  
  5280.000000   3324221   3352228   3380804   3409963   3439857  
  5270.000000   3470526   3502004   3534150   3566761   3599559  
  5260.000000   3632316   3664909   3697327   3729670   3762006  
  5250.000000   3794379   3826645   3858618   3889962   3920480  
  5240.000000   3949959   3978459   4006009   4032847   4059043  
  5230.000000   4084763   4109911   4134471   4158204   4181045  
  5220.000000   4202809   4223566   4243284   4262169   4280259  
  5210.000000   4297747   4314580   4330809   4346244   4360857  
  5200.000000   4374464   4387129   4398806   4409676   4419756  
  5190.000000   4429208   4437975   4446122   4453530   4460244  
  5180.000000   4466182   4471448   4476009   4479974   4483283  
  5170.000000   4485994   4488026   4489438   4490195   4490410  
  5160.000000   4490090   4489344   4488144   4486544   4484477  
  5150.000000   4481990   4479055   4475762   4472127   4468237  
  5140.000000   4464076   4459677   4454985   4450015   4444744  
  5130.000000   4439230   4433503   4427645   4421682   4415664  
  5120.000000   4409583   4403458   4397274   4391054   4384790  
  5110.000000   4378506   4372188   4365843   4359456   4353037  
  5100.000000   4346588   4340139   4333698   4327285   4320883  
  5090.000000   4314481   4308041   4301550   4294988   4288367  
  5080.000000   4281681   4274941   4268120   4261200   4254132  
  5070.000000   4246894   4239457   4231834   4224031   4216086  
  5060.000000   4208011   4199835   4191556   4183191   4174742  
  5050.000000   4166237   4157694   4149152   4140631   4132157  
  5040.000000   4123730   4115357   4107020   4098708   4090398  
  5030.000000   4082074   4073716   4065309   4056849   4048341  
  5020.000000   4039803   4031257   4022738   4014266   4005871  
  5010.000000   3997560   3989358   3981269   3973324   3965532  
  5000.000000   3957934   3950537   3943378   3936449   3929781  
  4990.000000   3923361   3917230   3911381   3905866   3900677  
  4980.000000   3895858   3891382   3887278   3883505   3880092  
  4970.000000   3877008   3874300   3871945   3869993   3868409  
  4960.000000   3867225   3866386   3865912   3865746   3865923  
  4950.000000   3866405   3867243   3868413   3869967   3871876  
  4940.000000   3874185   3876856   3879925   3883350   3887160  
  4930.000000   3891304   3895806   3900618   3905766   3911212  
  4920.000000   3916992   3923074   3929489   3936198   3943217  
  4910.000000   3950504   3958074   3965897   3974001   3982370  
  4900.000000   3991025   3999940   4009108   4018479   4028022  
  4890.000000   4037680   4047421   4057202   4066995   4076771  
  4880.000000   4086505   4096176   4105760   4115244   4124604  
  4870.000000   4133827   4142878   4151738   4160366   4168751  
  4860.000000   4176869   4184737   4192356   4199765   4206966  
  4850.000000   4213990   4220820   4227472   4233925   4240203  
  4840.000000   4246299   4252262   4258100   4263862   4269549  
  4830.000000   4275185   4280741   4286208   4291533   4296686  
  4820.000000   4301613   4306298   4310718   4314897   4318854  
  4810.000000   4322649   4326322   4329928   4333488   4337028  
  4800.000000   4340538   4344024   4347469   4350881   4354247  
  4790.000000   4357578   4360857   4364081   4367224   4370282  
  4780.000000   4373237   4376099   4378869   4381572   4384210  
  4770.000000   4386801   4389332   4391808   4394204   4396522  
  4760.000000   4398734   4400842   4402815   4404647   4406301  
  4750.000000   4407769   4409016   4410045   4410841   4411425  
  4740.000000   4411799   4411996   4412026   4411922   4411683  
  4730.000000   4411328   4410839   4410218   4409435   4408492  
  4720.000000   4407376   4406111   4404717   4403242   4401717  
  4710.000000   4400189   4398670   4397181   4395715   4394275  
  4700.000000   4392851   4391449   4390058   4388678   4387284  
  4690.000000   4385857   4384362   4382773   4381068   4379244  
  4680.000000   4377310   4375286   4373196   4371060   4368896  
  4670.000000   4366708   4364508   4362300   4360103   4357938  
  4660.000000   4355845   4353859   4352028   4350384   4348963  
  4650.000000   4347777   4346830   4346102   4345571   4345195  
  4640.000000   4344945   4344787   4344709   4344696   4344746  
  4630.000000   4344847   4344985   4345128   4345247   4345304  
  4620.000000   4345279   4345159   4344950   4344664   4344318  
  4610.000000   4343923   4343490   4343025   4342536   4342041  
  4600.000000   4341564   4341132   4340768   4340484   4340275  
  4590.000000   4340125   4340007   4339899   4339779   4339636  
  4580.000000   4339460   4339249   4338989   4338672   4338283  
  4570.000000   4337818   4337274   4336661   4335983   4335252  
  4560.000000   4334465   4333621   4332707   4331721   4330656  
  4550.000000   4329521   4328320   4327063   4325748   4324374  
  4540.000000   4322933   4321422   4319850   4318229   4316587  
  4530.000000   4314941   4313324   4311738   4310211   4308738  
  4520.000000   4307359   4306078   4304958   4304006   4303296  
  4510.000000   4302826   4302675   4302844   4303431   4304461  
  4500.000000   4306059   4308266   4311209   4314917   4319493  
  4490.000000   4324938   4331317   4338589   4346755   4355689  
  4480.000000   4365298   4375362   4385721   4396145   4406520  
  4470.000000   4416719   4426761   4436655   4446517   4456413  
  4460.000000   4466448   4476651   4487057   4497640   4508390  
  4450.000000   4519269   4530266   4541362   4552555   4563842  
  4440.000000   4575222   4586699   4598271   4609949   4621731  
  4430.000000   4633635   4645645   4657766   4669942   4682146  
  4420.000000   4694272   4706261   4717976   4729355   4740266  
  4410.000000   4750667   4760441   4769563   4777926   4785511  
  4400.000000   4792222   4798064   4802983   4807043   4810259  
  4390.000000   4812763   4814630   4816022   4817026   4817781  
  4380.000000   4818344   4818809   4819207   4819605   4820040  
  4370.000000   4820586   4821302   4822265   4823536   4825162  
  4360.000000   4827170   4829555   4832299   4835356   4838678  
  4350.000000   4842217   4845928   4849797   4853817   4858015  
  4340.000000   4862408   4867014   4871794   4876661   4881433  
  4330.000000   4885876   4889701   4892645   4894495   4895176  
  4320.000000   4894741   4893404   4891460   4889273   4887151  
  4310.000000   4885356   4884012   4883170   4882761   4882705  
  4300.000000   4882877   4883187   4883548   4883910   4884230  
  4290.000000   4884485   4884665   4884775   4884839   4884901  
  4280.000000   4885013   4885237   4885615   4886184   4886931  
  4270.000000   4887835   4888816   4889789   4890617   4891170  
  4260.000000   4891297   4890878   4889820   4888095   4885737  
  4250.000000   4882861   4879621   4876220   4872840   4869655  
  4240.000000   4866759   4864210   4861979   4860015   4858217  
  4230.000000   4856501   4854773   4852968   4851034   4848933  
  4220.000000   4846657   4844198   4841595   4838892   4836183  
  4210.000000   4833555   4831121   4828951   4827107   4825583  
  4200.000000   4824357   4823354   4822517   4821769   4821090  
  4190.000000   4820452   4819896   4819433   4819140   4819033  
  4180.000000   4819194   4819635   4820435   4821598   4823196  
  4170.000000   4825219   4827720   4830661   4834075   4837907  
  4160.000000   4842189   4846872   4852010   4857569   4863620  
  4150.000000   4870126   4877147   4884628   4892609   4901026  
  4140.000000   4909928   4919274   4929140   4939512   4950475  
  4130.000000   4962004   4974156   4986870   5000166   5013967  
  4120.000000   5028285   5043054   5058299   5073976   5090116  
  4110.000000   5106682   5123701   5141130   5158976   5177180  
  4100.000000   5195722   5214529   5233567   5252775   5272135  
  4090.000000   5291622   5311240   5330987   5350860   5370856  
  4080.000000   5390948   5411127   5431349   5451607   5471835  
  4070.000000   5492012   5512041   5531882   5551425   5570650  
  4060.000000   5589469   5607902   5625870   5643398   5660379  
  4050.000000   5676829   5692635   5707845   5722381   5736334  
  4040.000000   5749630   5762338   5774329   5785628   5796074  
  4030.000000   5805697   5814358   5822114   5828856   5834632  
  4020.000000   5839309   5842948   5845513   5847117   5847729  
  4010.000000   5847547   5846684   5845208   5842899   5839857  
  4000.000000   5836440  
##END= 
