##TITLE= Sample 043 By ssteindl date Donnerstag, November 22 2018
##JCAMP-DX= 4.24
##DATA TYPE= INFRARED SPECTRUM
##ORIGIN= Exported PE Spectrum Data File
##OWNER= Sandra Steindl
##DATE= 18/11/22
##TIME= 12:23:39.00
##SPECTROMETER/DATA SYSTEM= PERKIN-ELMER Frontier FT-IR/NIR IR
##INSTRUMENT PARAMETERS=
  APODIZATION=stark
  DETECTOR=INGAAS
##RESOLUTION= 16.000000
##DELTAX= -2.000000
##XUNITS= 1/CM
##YUNITS= A
##XFACTOR= 1.00
##YFACTOR= 0.00000011920928955078
##FIRSTX= 10000.00
##LASTX= 4000.00
##NPOINTS= 3001
##FIRSTY= 0.291315
##MAXY= 0.638397
##MINY= 0.218896
##XYDATA= (X++(Y..Y))
 10000.000000   2443728   2449574   2454903   2458607   2459702  
  9990.000000   2457881   2453519   2447602   2441198   2435322  
  9980.000000   2430531   2427101   2424979   2424089   2424367  
  9970.000000   2425751   2427989   2430424   2432013   2431498  
  9960.000000   2427879   2420833   2411024   2400025   2389953  
  9950.000000   2382876   2380227   2382458   2388943   2398273  
  9940.000000   2408624   2418235   2425705   2430151   2431279  
  9930.000000   2429249   2424724   2418612   2412106   2406284  
  9920.000000   2402030   2399671   2399004   2399410   2400127  
  9910.000000   2400725   2401127   2401813   2403346   2406241  
  9900.000000   2410546   2415857   2421423   2426391   2430098  
  9890.000000   2432142   2432390   2430829   2427466   2422365  
  9880.000000   2415735   2408134   2400461   2393837   2389217  
  9870.000000   2387012   2386841   2387598   2387837   2386317  
  9860.000000   2382432   2376422   2369197   2362006   2356008  
  9850.000000   2352000   2350333   2350998   2353762   2358222  
  9840.000000   2363800   2369647   2374719   2377906   2378432  
  9830.000000   2376088   2371434   2365572   2359806   2355112  
  9820.000000   2351898   2349915   2348628   2347573   2346680  
  9810.000000   2346311   2346899   2348649   2351141   2353488  
  9800.000000   2354647   2354018   2351829   2349134   2347395  
  9790.000000   2347765   2350507   2354755   2358850   2361007  
  9780.000000   2360105   2356110   2350071   2343591   2338140  
  9770.000000   2334504   2332595   2331738   2331127   2330315  
  9760.000000   2329357   2328679   2328723   2329626   2331121  
  9750.000000   2332667   2333753   2334129   2333896   2333331  
  9740.000000   2332692   2332013   2331150   2329997   2328660  
  9730.000000   2327661   2327655   2329234   2332427   2336619  
  9720.000000   2340639   2343196   2343399   2341048   2336672  
  9710.000000   2331123   2325155   2319018   2312509   2305241  
  9700.000000   2297174   2288900   2281652   2276875   2275576  
  9690.000000   2277855   2282723   2288509   2293497   2296610  
  9680.000000   2297794   2297854   2298033   2299284   2301914  
  9670.000000   2305438   2308929   2311471   2312583   2312386  
  9660.000000   2311452   2310509   2310058   2310225   2310741  
  9650.000000   2311170   2311116   2310320   2308671   2306047  
  9640.000000   2302318   2297380   2291317   2284606   2278054  
  9630.000000   2272749   2269643   2269354   2271863   2276607  
  9620.000000   2282607   2288793   2294244   2298298   2300587  
  9610.000000   2300861   2299043   2295115   2289348   2282271  
  9600.000000   2274748   2267795   2262314   2258912   2257666  
  9590.000000   2258304   2260254   2263017   2266189   2269544  
  9580.000000   2272845   2275690   2277466   2277420   2274973  
  9570.000000   2269949   2262837   2254678   2246874   2240736  
  9560.000000   2237132   2236259   2237630   2240304   2243146  
  9550.000000   2245174   2245745   2244669   2242185   2238833  
  9540.000000   2235320   2232326   2230388   2229738   2230313  
  9530.000000   2231725   2233467   2235038   2236154   2236788  
  9520.000000   2237112   2237348   2237583   2237712   2237503  
  9510.000000   2236737   2235428   2233864   2232591   2232192  
  9500.000000   2233029   2235090   2237890   2240709   2242759  
  9490.000000   2243589   2243157   2241904   2240498   2239586  
  9480.000000   2239532   2240285   2241432   2242296   2242147  
  9470.000000   2240351   2236534   2230691   2223234   2215004  
  9460.000000   2207099   2200718   2196797   2195814   2197553  
  9450.000000   2201192   2205486   2209160   2211271   2211439  
  9440.000000   2209899   2207260   2204262   2201417   2198962  
  9430.000000   2196814   2194830   2192902   2191103   2189637  
  9420.000000   2188726   2188512   2188911   2189720   2190626  
  9410.000000   2191395   2191892   2192075   2191963   2191498  
  9400.000000   2190625   2189234   2187318   2184931   2182226  
  9390.000000   2179375   2176511   2173753   2171199   2169058  
  9380.000000   2167639   2167380   2168656   2171616   2175951  
  9370.000000   2180867   2185227   2187898   2188137   2185831  
  9360.000000   2181549   2176320   2171303   2167395   2165006  
  9350.000000   2164002   2163881   2164045   2164005   2163497  
  9340.000000   2162427   2160818   2158720   2156234   2153529  
  9330.000000   2150891   2148689   2147270   2146823   2147267  
  9320.000000   2148273   2149367   2150145   2150426   2150315  
  9310.000000   2150082   2149984   2150058   2150092   2149669  
  9300.000000   2148424   2146227   2143356   2140407   2138086  
  9290.000000   2136932   2137080   2138282   2139969   2141555  
  9280.000000   2142599   2143017   2143015   2142944   2143079  
  9270.000000   2143465   2143926   2144103   2143613   2142139  
  9260.000000   2139546   2135918   2131511   2126740   2122058  
  9250.000000   2118000   2115060   2113636   2113862   2115507  
  9240.000000   2117999   2120490   2122086   2121996   2119798  
  9230.000000   2115541   2109841   2103669   2098153   2094262  
  9220.000000   2092649   2093520   2096600   2101213   2106429  
  9210.000000   2111333   2115220   2117743   2118900   2118985  
  9200.000000   2118439   2117678   2116954   2116286   2115575  
  9190.000000   2114681   2113580   2112360   2111181   2110174  
  9180.000000   2109304   2108361   2106975   2104831   2101829  
  9170.000000   2098240   2094654   2091797   2090265   2090322  
  9160.000000   2091779   2094076   2096443   2098208   2098987  
  9150.000000   2098780   2097878   2096706   2095667   2094964  
  9140.000000   2094584   2094314   2093901   2093088   2091717  
  9130.000000   2089725   2087171   2084227   2081134   2078224  
  9120.000000   2075839   2074313   2073853   2074491   2076048  
  9110.000000   2078183   2080457   2082442   2083805   2084375  
  9100.000000   2084167   2083319   2082064   2080634   2079262  
  9090.000000   2078102   2077228   2076602   2076110   2075593  
  9080.000000   2074909   2074010   2072970   2071974   2071237  
  9070.000000   2070939   2071127   2071705   2072437   2073067  
  9060.000000   2073414   2073462   2073366   2073366   2073696  
  9050.000000   2074429   2075447   2076423   2076934   2076595  
  9040.000000   2075174   2072710   2069496   2066078   2063089  
  9030.000000   2061150   2060676   2061786   2064208   2067322  
  9020.000000   2070255   2072088   2072103   2069984   2065948  
  9010.000000   2060680   2055173   2050415   2047131   2045578  
  9000.000000   2045538   2046452   2047645   2048595   2049050  
  8990.000000   2049084   2048945   2048930   2049195   2049708  
  8980.000000   2050285   2050653   2050638   2050132   2049198  
  8970.000000   2047933   2046472   2044889   2043181   2041344  
  8960.000000   2039407   2037534   2035971   2035063   2035109  
  8950.000000   2036289   2038535   2041537   2044782   2047632  
  8940.000000   2049499   2049952   2048890   2046493   2043197  
  8930.000000   2039554   2036122   2033334   2031409   2030402  
  8920.000000   2030238   2030825   2032044   2033797   2035924  
  8910.000000   2038180   2040191   2041505   2041743   2040680  
  8900.000000   2038399   2035233   2031741   2028511   2026025  
  8890.000000   2024532   2024023   2024330   2025211   2026471  
  8880.000000   2027975   2029638   2031360   2032982   2034274  
  8870.000000   2034992   2034993   2034285   2033077   2031707  
  8860.000000   2030566   2029963   2030049   2030774   2031927  
  8850.000000   2033206   2034310   2034993   2035108   2034611  
  8840.000000   2033558   2032112   2030495   2028998   2027877  
  8830.000000   2027361   2027556   2028461   2029949   2031806  
  8820.000000   2033790   2035626   2037056   2037787   2037549  
  8810.000000   2036110   2033402   2029584   2025107   2020674  
  8800.000000   2017109   2015184   2015374   2017744   2021856  
  8790.000000   2026932   2032012   2036229   2038978   2040037  
  8780.000000   2039572   2038009   2035914   2033791   2032040  
  8770.000000   2030836   2030194   2029947   2029847   2029634  
  8760.000000   2029096   2028178   2026956   2025703   2024760  
  8750.000000   2024499   2025165   2026813   2029273   2032177  
  8740.000000   2035056   2037436   2038960   2039443   2038924  
  8730.000000   2037601   2035794   2033848   2032079   2030705  
  8720.000000   2029817   2029374   2029233   2029210   2029146  
  8710.000000   2028974   2028721   2028502   2028425   2028559  
  8700.000000   2028839   2029141   2029306   2029268   2029104  
  8690.000000   2029039   2029374   2030322   2031892   2033779  
  8680.000000   2035447   2036225   2035582   2033266   2029479  
  8670.000000   2024779   2019985   2015917   2013224   2012246  
  8660.000000   2012967   2015103   2018177   2021708   2025275  
  8650.000000   2028599   2031520   2033996   2036072   2037813  
  8640.000000   2039288   2040486   2041363   2041776   2041607  
  8630.000000   2040767   2039323   2037482   2035569   2033945  
  8620.000000   2032882   2032509   2032746   2033396   2034225  
  8610.000000   2035095   2036014   2037125   2038622   2040619  
  8600.000000   2043057   2045690   2048156   2050111   2051374  
  8590.000000   2051984   2052201   2052387   2052861   2053774  
  8580.000000   2055048   2056419   2057531   2058082   2057926  
  8570.000000   2057104   2055811   2054321   2052889   2051695  
  8560.000000   2050797   2050173   2049743   2049446   2049250  
  8550.000000   2049189   2049336   2049782   2050577   2051706  
  8540.000000   2053073   2054497   2055757   2056624   2056967  
  8530.000000   2056746   2056084   2055183   2054314   2053700  
  8520.000000   2053482   2053666   2054149   2054779   2055422  
  8510.000000   2056034   2056649   2057400   2058428   2059853  
  8500.000000   2061689   2063862   2066210   2068518   2070560  
  8490.000000   2072126   2073068   2073295   2072800   2071662  
  8480.000000   2070061   2068254   2066538   2065188   2064400  
  8470.000000   2064237   2064594   2065255   2065925   2066364  
  8460.000000   2066419   2066112   2065609   2065180   2065106  
  8450.000000   2065581   2066667   2068228   2069993   2071594  
  8440.000000   2072694   2073054   2072616   2071519   2070079  
  8430.000000   2068702   2067773   2067560   2068144   2069407  
  8420.000000   2071053   2072721   2074070   2074900   2075164  
  8410.000000   2074992   2074612   2074282   2074185   2074379  
  8400.000000   2074794   2075247   2075516   2075408   2074823  
  8390.000000   2073787   2072430   2070979   2069678   2068750  
  8380.000000   2068316   2068388   2068861   2069551   2070234  
  8370.000000   2070705   2070824   2070556   2069951   2069137  
  8360.000000   2068255   2067450   2066836   2066485   2066426  
  8350.000000   2066633   2067047   2067544   2067935   2067985  
  8340.000000   2067453   2066187   2064170   2061581   2058769  
  8330.000000   2056207   2054349   2053505   2053704   2054697  
  8320.000000   2056010   2057093   2057478   2056896   2055371  
  8310.000000   2053149   2050618   2048142   2045979   2044218  
  8300.000000   2042834   2041743   2040890   2040296   2040045  
  8290.000000   2040247   2040936   2042049   2043388   2044691  
  8280.000000   2045690   2046188   2046125   2045547   2044603  
  8270.000000   2043444   2042201   2040923   2039601   2038197  
  8260.000000   2036688   2035109   2033546   2032139   2031015  
  8250.000000   2030283   2029958   2030002   2030285   2030665  
  8240.000000   2030990   2031151   2031092   2030801   2030306  
  8230.000000   2029626   2028770   2027701   2026380   2024765  
  8220.000000   2022873   2020777   2018624   2016598   2014876  
  8210.000000   2013589   2012757   2012331   2012173   2012155  
  8200.000000   2012169   2012187   2012231   2012354   2012581  
  8190.000000   2012855   2013032   2012888   2012202   2010820  
  8180.000000   2008728   2006068   2003104   2000166   1997547  
  8170.000000   1995456   1993944   1992941   1992263   1991695  
  8160.000000   1991037   1990149   1988955   1987446   1985645  
  8150.000000   1983601   1981381   1979068   1976786   1974672  
  8140.000000   1972873   1971491   1970552   1969970   1969561  
  8130.000000   1969089   1968333   1967154   1965554   1963662  
  8120.000000   1961713   1959946   1958556   1957604   1957034  
  8110.000000   1956684   1956370   1955940   1955329   1954571  
  8100.000000   1953763   1953033   1952475   1952128   1951962  
  8090.000000   1951893   1951825   1951664   1951356   1950872  
  8080.000000   1950219   1949410   1948467   1947411   1946264  
  8070.000000   1945063   1943854   1942706   1941688   1940873  
  8060.000000   1940305   1939993   1939883   1939870   1939805  
  8050.000000   1939534   1938940   1937976   1936688   1935187  
  8040.000000   1933628   1932139   1930797   1929597   1928480  
  8030.000000   1927378   1926259   1925168   1924208   1923518  
  8020.000000   1923189   1923235   1923557   1923981   1924312  
  8010.000000   1924386   1924136   1923568   1922754   1921761  
  8000.000000   1920634   1919370   1917955   1916402   1914778  
  7990.000000   1913226   1911915   1911007   1910579   1910612  
  7980.000000   1910973   1911469   1911894   1912078   1911924  
  7970.000000   1911396   1910524   1909367   1908017   1906590  
  7960.000000   1905225   1904070   1903251   1902836   1902805  
  7950.000000   1903044   1903371   1903589   1903544   1903172  
  7940.000000   1902509   1901665   1900782   1899976   1899316  
  7930.000000   1898810   1898439   1898164   1897967   1897832  
  7920.000000   1897747   1897675   1897559   1897331   1896943  
  7910.000000   1896394   1895747   1895116   1894632   1894402  
  7900.000000   1894469   1894804   1895313   1895868   1896350  
  7890.000000   1896664   1896767   1896647   1896322   1895813  
  7880.000000   1895152   1894366   1893497   1892598   1891733  
  7870.000000   1890975   1890386   1890025   1889920   1890091  
  7860.000000   1890522   1891180   1891995   1892867   1893672  
  7850.000000   1894274   1894559   1894447   1893931   1893060  
  7840.000000   1891947   1890733   1889556   1888534   1887736  
  7830.000000   1887196   1886910   1886863   1887022   1887354  
  7820.000000   1887803   1888298   1888738   1889012   1889019  
  7810.000000   1888690   1888024   1887088   1886011   1884953  
  7800.000000   1884060   1883437   1883107   1883034   1883124  
  7790.000000   1883277   1883398   1883429   1883330   1883077  
  7780.000000   1882638   1881971   1881040   1879823   1878355  
  7770.000000   1876719   1875047   1873482   1872140   1871082  
  7760.000000   1870298   1869727   1869284   1868902   1868547  
  7750.000000   1868226   1867968   1867793   1867699   1867643  
  7740.000000   1867569   1867410   1867128   1866713   1866191  
  7730.000000   1865606   1865007   1864441   1863946   1863547  
  7720.000000   1863258   1863076   1862967   1862874   1862717  
  7710.000000   1862418   1861925   1861245   1860440   1859624  
  7700.000000   1858929   1858465   1858282   1858358   1858597  
  7690.000000   1858863   1859005   1858902   1858482   1857740  
  7680.000000   1856732   1855557   1854344   1853208   1852237  
  7670.000000   1851461   1850847   1850312   1849754   1849091  
  7660.000000   1848302   1847444   1846638   1846034   1845742  
  7650.000000   1845804   1846162   1846683   1847214   1847619  
  7640.000000   1847835   1847859   1847741   1847528   1847242  
  7630.000000   1846859   1846342   1845667   1844865   1844026  
  7620.000000   1843285   1842769   1842558   1842654   1842979  
  7610.000000   1843412   1843825   1844123   1844267   1844261  
  7600.000000   1844138   1843941   1843704   1843467   1843271  
  7590.000000   1843166   1843198   1843387   1843703   1844058  
  7580.000000   1844323   1844350   1844031   1843317   1842246  
  7570.000000   1840931   1839537   1838240   1837195   1836508  
  7560.000000   1836230   1836356   1836830   1837566   1838456  
  7550.000000   1839391   1840288   1841093   1841798   1842410  
  7540.000000   1842951   1843411   1843769   1843970   1843988  
  7530.000000   1843830   1843575   1843357   1843336   1843644  
  7520.000000   1844336   1845371   1846617   1847905   1849078  
  7510.000000   1850048   1850812   1851428   1851984   1852547  
  7500.000000   1853144   1853755   1854340   1854860   1855312  
  7490.000000   1855718   1856126   1856577   1857094   1857676  
  7480.000000   1858306   1858966   1859652   1860365   1861118  
  7470.000000   1861910   1862729   1863546   1864336   1865082  
  7460.000000   1865794   1866502   1867261   1868123   1869139  
  7450.000000   1870333   1871713   1873260   1874933   1876659  
  7440.000000   1878351   1879911   1881265   1882370   1883242  
  7430.000000   1883948   1884603   1885324   1886204   1887283  
  7420.000000   1888542   1889926   1891366   1892820   1894279  
  7410.000000   1895767   1897317   1898943   1900623   1902290  
  7400.000000   1903861   1905255   1906430   1907383   1908168  
  7390.000000   1908864   1909560   1910340   1911260   1912359  
  7380.000000   1913643   1915099   1916685   1918343   1920007  
  7370.000000   1921617   1923130   1924532   1925844   1927110  
  7360.000000   1928385   1929712   1931116   1932587   1934097  
  7350.000000   1935600   1937048   1938398   1939625   1940722  
  7340.000000   1941701   1942594   1943452   1944336   1945302  
  7330.000000   1946388   1947599   1948904   1950240   1951534  
  7320.000000   1952724   1953787   1954741   1955639   1956552  
  7310.000000   1957542   1958643   1959851   1961134   1962446  
  7300.000000   1963745   1965005   1966215   1967374   1968486  
  7290.000000   1969549   1970562   1971522   1972434   1973308  
  7280.000000   1974158   1974999   1975838   1976682   1977533  
  7270.000000   1978400   1979298   1980245   1981255   1982324  
  7260.000000   1983432   1984529   1985569   1986499   1987307  
  7250.000000   1988003   1988646   1989304   1990060   1990973  
  7240.000000   1992082   1993389   1994886   1996547   1998366  
  7230.000000   2000334   2002454   2004708   2007073   2009486  
  7220.000000   2011888   2014205   2016413   2018503   2020536  
  7210.000000   2022579   2024731   2027048   2029564   2032254  
  7200.000000   2035075   2037970   2040917   2043924   2047041  
  7190.000000   2050322   2053816   2057517   2061380   2065298  
  7180.000000   2069173   2072904   2076460   2079841   2083111  
  7170.000000   2086333   2089585   2092907   2096338   2099883  
  7160.000000   2103559   2107367   2111320   2115412   2119638  
  7150.000000   2123975   2128409   2132926   2137545   2142286  
  7140.000000   2147191   2152266   2157504   2162848   2168238  
  7130.000000   2173595   2178886   2184093   2189255   2194413  
  7120.000000   2199625   2204913   2210294   2215746   2221264  
  7110.000000   2226830   2232458   2238152   2243933   2249790  
  7100.000000   2255716   2261681   2267676   2273698   2279776  
  7090.000000   2285948   2292264   2298747   2305401   2312187  
  7080.000000   2319045   2325884   2332624   2339190   2345546  
  7070.000000   2351689   2357666   2363548   2369430   2375395  
  7060.000000   2381500   2387760   2394146   2400603   2407065  
  7050.000000   2413486   2419847   2426168   2432478   2438810  
  7040.000000   2445170   2451538   2457869   2464113   2470225  
  7030.000000   2476185   2481994   2487671   2493239   2498732  
  7020.000000   2504172   2509593   2515017   2520467   2525936  
  7010.000000   2531399   2536795   2542060   2547128   2551977  
  7000.000000   2556618   2561114   2565534   2569951   2574393  
  6990.000000   2578864   2583326   2587749   2592103   2596390  
  6980.000000   2600609   2604772   2608851   2612813   2616601  
  6970.000000   2620182   2623546   2626733   2629798   2632813  
  6960.000000   2635814   2638815   2641782   2644682   2647472  
  6950.000000   2650150   2652720   2655218   2657658   2660058  
  6940.000000   2662409   2664709   2666946   2669134   2671271  
  6930.000000   2673366   2675397   2677343   2679164   2680850  
  6920.000000   2682406   2683875   2685306   2686742   2688190  
  6910.000000   2689620   2690970   2692186   2693231   2694125  
  6900.000000   2694922   2695716   2696590   2697610   2698796  
  6890.000000   2700131   2701563   2703024   2704437   2705728  
  6880.000000   2706838   2707736   2708428   2708965   2709441  
  6870.000000   2709971   2710660   2711576   2712720   2714045  
  6860.000000   2715456   2716866   2718201   2719437   2720570  
  6850.000000   2721618   2722582   2723452   2724205   2724825  
  6840.000000   2725320   2725725   2726084   2726437   2726787  
  6830.000000   2727114   2727367   2727511   2727538   2727488  
  6820.000000   2727425   2727422   2727513   2727694   2727911  
  6810.000000   2728105   2728227   2728277   2728287   2728316  
  6800.000000   2728403   2728555   2728731   2728867   2728900  
  6790.000000   2728806   2728602   2728349   2728117   2727958  
  6780.000000   2727884   2727864   2727833   2727721   2727472  
  6770.000000   2727062   2726503   2725837   2725126   2724438  
  6760.000000   2723832   2723354   2723022   2722827   2722727  
  6750.000000   2722667   2722593   2722467   2722281   2722057  
  6740.000000   2721833   2721645   2721510   2721417   2721333  
  6730.000000   2721222   2721058   2720842   2720599   2720366  
  6720.000000   2720174   2720033   2719923   2719808   2719632  
  6710.000000   2719354   2718943   2718397   2717730   2716982  
  6700.000000   2716197   2715423   2714692   2714015   2713367  
  6690.000000   2712701   2711950   2711062   2710017   2708847  
  6680.000000   2707625   2706451   2705405   2704528   2703795  
  6670.000000   2703136   2702453   2701671   2700754   2699721  
  6660.000000   2698622   2697517   2696440   2695393   2694350  
  6650.000000   2693281   2692164   2691010   2689837   2688675  
  6640.000000   2687529   2686388   2685223   2684011   2682744  
  6630.000000   2681441   2680132   2678841   2677565   2676276  
  6620.000000   2674923   2673462   2671873   2670180   2668431  
  6610.000000   2666698   2665034   2663469   2662002   2660613  
  6600.000000   2659270   2657947   2656612   2655232   2653764  
  6590.000000   2652165   2650408   2648500   2646495   2644485  
  6580.000000   2642575   2640848   2639331   2637992   2636746  
  6570.000000   2635500   2634180   2632764   2631277   2629778  
  6560.000000   2628318   2626922   2625578   2624243   2622872  
  6550.000000   2621437   2619943   2618414   2616888   2615394  
  6540.000000   2613942   2612528   2611140   2609767   2608409  
  6530.000000   2607067   2605737   2604410   2603068   2601697  
  6520.000000   2600294   2598874   2597470   2596113   2594827  
  6510.000000   2593611   2592443   2591290   2590122   2588924  
  6500.000000   2587706   2586489   2585303   2584169   2583098  
  6490.000000   2582091   2581139   2580236   2579368   2578518  
  6480.000000   2577660   2576759   2575779   2574692   2573488  
  6470.000000   2572180   2570798   2569377   2567951   2566540  
  6460.000000   2565156   2563807   2562506   2561275   2560137  
  6450.000000   2559111   2558194   2557360   2556567   2555759  
  6440.000000   2554893   2553938   2552897   2551784   2550640  
  6430.000000   2549507   2548434   2547462   2546626   2545942  
  6420.000000   2545407   2544990   2544645   2544313   2543948  
  6410.000000   2543525   2543053   2542561   2542089   2541660  
  6400.000000   2541279   2540916   2540536   2540103   2539613  
  6390.000000   2539086   2538565   2538100   2537725   2537449  
  6380.000000   2537258   2537123   2537009   2536895   2536764  
  6370.000000   2536608   2536417   2536177   2535875   2535502  
  6360.000000   2535064   2534579   2534070   2533558   2533048  
  6350.000000   2532532   2531992   2531413   2530792   2530142  
  6340.000000   2529483   2528836   2528205   2527584   2526951  
  6330.000000   2526291   2525588   2524845   2524067   2523264  
  6320.000000   2522433   2521568   2520659   2519705   2518719  
  6310.000000   2517728   2516759   2515832   2514943   2514073  
  6300.000000   2513192   2512281   2511333   2510362   2509387  
  6290.000000   2508420   2507451   2506457   2505402   2504264  
  6280.000000   2503043   2501773   2500495   2499257   2498075  
  6270.000000   2496941   2495815   2494655   2493420   2492098  
  6260.000000   2490694   2489229   2487717   2486167   2484574  
  6250.000000   2482934   2481248   2479534   2477815   2476119  
  6240.000000   2474464   2472853   2471279   2469734   2468216  
  6230.000000   2466728   2465277   2463861   2462462   2461052  
  6220.000000   2459600   2458088   2456529   2454961   2453443  
  6210.000000   2452025   2450738   2449574   2448493   2447438  
  6200.000000   2446356   2445216   2444011   2442751   2441459  
  6190.000000   2440146   2438819   2437478   2436126   2434772  
  6180.000000   2433435   2432137   2430896   2429720   2428608  
  6170.000000   2427553   2426546   2425580   2424652   2423753  
  6160.000000   2422873   2421996   2421110   2420206   2419289  
  6150.000000   2418369   2417457   2416553   2415646   2414711  
  6140.000000   2413731   2412698   2411632   2410572   2409568  
  6130.000000   2408655   2407848   2407127   2406458   2405797  
  6120.000000   2405119   2404416   2403706   2403011   2402355  
  6110.000000   2401746   2401184   2400657   2400169   2399719  
  6100.000000   2399324   2398987   2398711   2398474   2398258  
  6090.000000   2398036   2397807   2397580   2397392   2397273  
  6080.000000   2397258   2397350   2397548   2397826   2398169  
  6070.000000   2398557   2398992   2399466   2399986   2400543  
  6060.000000   2401142   2401773   2402453   2403187   2404000  
  6050.000000   2404898   2405889   2406960   2408107   2409315  
  6040.000000   2410590   2411936   2413366   2414875   2416457  
  6030.000000   2418078   2419719   2421360   2423012   2424696  
  6020.000000   2426449   2428287   2430212   2432189   2434183  
  6010.000000   2436149   2438081   2439995   2441944   2443975  
  6000.000000   2446134   2448423   2450829   2453309   2455833  
  5990.000000   2458377   2460950   2463559   2466226   2468944  
  5980.000000   2471702   2474469   2477228   2479967   2482705  
  5970.000000   2485462   2488275   2491156   2494118   2497150  
  5960.000000   2500250   2503408   2506632   2509917   2513265  
  5950.000000   2516657   2520077   2523502   2526932   2530382  
  5940.000000   2533888   2537491   2541218   2545075   2549033  
  5930.000000   2553047   2557059   2561022   2564899   2568674  
  5920.000000   2572329   2575846   2579193   2582335   2585240  
  5910.000000   2587894   2590304   2592506   2594546   2596491  
  5900.000000   2598395   2600324   2602319   2604427   2606662  
  5890.000000   2609032   2611506   2614044   2616583   2619072  
  5880.000000   2621467   2623755   2625937   2628028   2630040  
  5870.000000   2631977   2633837   2635618   2637336   2639017  
  5860.000000   2640710   2642458   2644294   2646224   2648238  
  5850.000000   2650312   2652432   2654598   2656835   2659171  
  5840.000000   2661631   2664214   2666901   2669647   2672412  
  5830.000000   2675158   2677872   2680553   2683212   2685850  
  5820.000000   2688471   2691068   2693640   2696196   2698753  
  5810.000000   2701331   2703939   2706577   2709215   2711838  
  5800.000000   2714414   2716963   2719492   2722054   2724655  
  5790.000000   2727308   2729949   2732508   2734847   2736855  
  5780.000000   2738388   2739358   2739677   2739325   2738299  
  5770.000000   2736675   2734552   2732093   2729454   2726806  
  5760.000000   2724257   2721894   2719722   2717739   2715905  
  5750.000000   2714210   2712637   2711196   2709885   2708694  
  5740.000000   2707593   2706540   2705497   2704434   2703352  
  5730.000000   2702257   2701174   2700110   2699074   2698053  
  5720.000000   2697039   2696020   2695002   2693987   2692990  
  5710.000000   2692014   2691065   2690141   2689252   2688408  
  5700.000000   2687626   2686920   2686293   2685730   2685206  
  5690.000000   2684692   2684168   2683638   2683115   2682628  
  5680.000000   2682186   2681787   2681392   2680948   2680384  
  5670.000000   2679647   2678688   2677490   2676046   2674370  
  5660.000000   2672481   2670416   2668214   2665932   2663623  
  5650.000000   2661340   2659109   2656947   2654844   2652789  
  5640.000000   2650770   2648794   2646873   2645031   2643284  
  5630.000000   2641636   2640082   2638606   2637202   2635867  
  5620.000000   2634614   2633448   2632374   2631371   2630413  
  5610.000000   2629457   2628473   2627444   2626383   2625315  
  5600.000000   2624278   2623304   2622415   2621614   2620896  
  5590.000000   2620242   2619632   2619041   2618441   2617805  
  5580.000000   2617107   2616331   2615477   2614560   2613607  
  5570.000000   2612644   2611689   2610743   2609792   2608815  
  5560.000000   2607792   2606717   2605593   2604441   2603277  
  5550.000000   2602122   2600986   2599879   2598805   2597771  
  5540.000000   2596781   2595832   2594913   2594005   2593084  
  5530.000000   2592133   2591146   2590131   2589107   2588092  
  5520.000000   2587098   2586120   2585143   2584149   2583122  
  5510.000000   2582059   2580962   2579843   2578706   2577556  
  5500.000000   2576391   2575216   2574041   2572885   2571761  
  5490.000000   2570676   2569608   2568524   2567374   2566120  
  5480.000000   2564741   2563249   2561673   2560058   2558437  
  5470.000000   2556832   2555238   2553645   2552035   2550402  
  5460.000000   2548746   2547070   2545373   2543647   2541880  
  5450.000000   2540065   2538210   2536336   2534475   2532655  
  5440.000000   2530899   2529207   2527576   2526000   2524488  
  5430.000000   2523051   2521707   2520451   2519266   2518104  
  5420.000000   2516925   2515694   2514426   2513163   2511988  
  5410.000000   2510968   2510161   2509558   2509135   2508830  
  5400.000000   2508615   2508463   2508400   2508440   2508618  
  5390.000000   2508928   2509373   2509918   2510572   2511334  
  5380.000000   2512257   2513364   2514706   2516267   2518044  
  5370.000000   2519975   2522047   2524215   2526512   2528933  
  5360.000000   2531541   2534331   2537360   2540610   2544144  
  5350.000000   2547959   2552142   2556698   2561710   2567149  
  5340.000000   2573062   2579391   2586177   2593369   2601029  
  5330.000000   2609110   2617674   2626659   2636122   2646004  
  5320.000000   2656396   2667283   2678801   2690948   2703858  
  5310.000000   2717488   2731918   2747057   2762965   2779560  
  5300.000000   2796936   2815064   2834083   2853995   2874939  
  5290.000000   2896880   2919874   2943789   2968563   2993996  
  5280.000000   3020014   3046493   3073484   3101010   3129218  
  5270.000000   3158148   3187829   3218121   3248826   3279675  
  5260.000000   3310448   3341020   3371375   3401600   3431764  
  5250.000000   3461922   3491968   3521765   3551033   3579610  
  5240.000000   3607298   3634130   3660101   3685393   3710047  
  5230.000000   3734204   3757784   3780786   3803010   3824406  
  5220.000000   3844804   3864264   3882753   3900462   3917440  
  5210.000000   3933883   3949762   3965135   3979824   3993786  
  5200.000000   4006825   4018974   4030167   4040562   4050169  
  5190.000000   4059142   4067440   4075135   4082131   4088484  
  5180.000000   4094130   4099175   4103589   4107472   4110758  
  5170.000000   4113493   4115589   4117102   4117996   4118387  
  5160.000000   4118286   4117805   4116919   4115675   4113996  
  5150.000000   4111907   4109354   4106396   4103023   4099307  
  5140.000000   4095240   4090876   4086199   4081268   4076095  
  5130.000000   4070756   4065270   4059692   4054007   4048228  
  5120.000000   4042322   4036304   4030173   4023976   4017733  
  5110.000000   4011477   4005202   3998902   3992552   3986150  
  5100.000000   3979702   3973247   3966819   3960459   3954181  
  5090.000000   3947987   3941857   3935781   3929743   3923748  
  5080.000000   3917790   3911871   3905966   3900049   3894079  
  5070.000000   3888029   3881877   3875630   3869293   3862885  
  5060.000000   3856410   3849874   3843268   3836598   3829859  
  5050.000000   3823069   3816228   3809347   3802407   3795393  
  5040.000000   3788277   3781047   3773701   3766261   3758757  
  5030.000000   3751230   3743710   3736218   3728764   3721352  
  5020.000000   3713986   3706674   3699432   3692269   3685203  
  5010.000000   3678231   3671363   3664587   3657919   3651359  
  5000.000000   3644942   3638680   3632614   3626750   3621122  
  4990.000000   3615718   3610561   3605626   3600932   3596449  
  4980.000000   3592196   3588144   3584320   3580704   3577342  
  4970.000000   3574228   3571419   3568907   3566740   3564889  
  4960.000000   3563381   3562172   3561285   3560684   3560409  
  4950.000000   3560439   3560825   3561542   3562636   3564068  
  4940.000000   3565872   3568004   3570497   3573312   3576488  
  4930.000000   3579990   3583861   3588067   3592651   3597580  
  4920.000000   3602893   3608556   3614598   3620979   3627717  
  4910.000000   3634771   3642152   3649826   3657798   3666030  
  4900.000000   3674510   3683189   3692030   3700975   3709974  
  4890.000000   3718977   3727930   3736795   3745520   3754080  
  4880.000000   3762425   3770541   3778378   3785926   3793119  
  4870.000000   3799935   3806292   3812167   3817490   3822276  
  4860.000000   3826502   3830233   3833484   3836333   3838787  
  4850.000000   3840899   3842654   3844092   3845204   3846049  
  4840.000000   3846648   3847080   3847384   3847631   3847852  
  4830.000000   3848091   3848357   3848667   3849010   3849384  
  4820.000000   3849776   3850183   3850613   3851084   3851630  
  4810.000000   3852282   3853069   3853994   3855053   3856211  
  4800.000000   3857440   3858703   3859992   3861306   3862666  
  4790.000000   3864086   3865583   3867156   3868798   3870491  
  4780.000000   3872227   3873994   3875793   3877617   3879456  
  4770.000000   3881287   3883084   3884821   3886481   3888061  
  4760.000000   3889575   3891042   3892477   3893892   3895280  
  4750.000000   3896630   3897927   3899169   3900355   3901502  
  4740.000000   3902621   3903730   3904826   3905908   3906961  
  4730.000000   3907974   3908936   3909842   3910690   3911481  
  4720.000000   3912217   3912896   3913523   3914103   3914654  
  4710.000000   3915196   3915763   3916384   3917102   3917945  
  4700.000000   3918948   3920131   3921513   3923096   3924879  
  4690.000000   3926843   3928969   3931224   3933584   3936008  
  4680.000000   3938471   3940928   3943353   3945703   3947963  
  4670.000000   3950112   3952167   3954147   3956104   3958081  
  4660.000000   3960139   3962319   3964662   3967191   3969925  
  4650.000000   3972869   3976022   3979368   3982883   3986527  
  4640.000000   3990258   3994031   3997806   4001559   4005267  
  4630.000000   4008925   4012516   4016030   4019438   4022719  
  4620.000000   4025830   4028749   4031438   4033885   4036063  
  4610.000000   4037981   4039629   4041041   4042228   4043244  
  4600.000000   4044108   4044870   4045527   4046100   4046558  
  4590.000000   4046904   4047100   4047152   4047034   4046758  
  4580.000000   4046297   4045656   4044801   4043735   4042442  
  4570.000000   4040947   4039266   4037452   4035534   4033556  
  4560.000000   4031528   4029467   4027360   4025214   4023017  
  4550.000000   4020784   4018510   4016207   4013867   4011488  
  4540.000000   4009060   4006584   4004068   4001533   3999005  
  4530.000000   3996503   3994046   3991626   3989244   3986873  
  4520.000000   3984521   3982170   3979857   3977584   3975410  
  4510.000000   3973346   3971467   3969790   3968415   3967376  
  4500.000000   3966794   3966702   3967210   3968314   3970085  
  4490.000000   3972476   3975539   3979224   3983600   3988637  
  4480.000000   3994423   4000929   4008224   4016244   4025017  
  4470.000000   4034443   4044517   4055129   4066272   4077848  
  4460.000000   4089860   4102229   4114961   4127985   4141300  
  4450.000000   4154840   4168600   4182530   4196633   4210883  
  4440.000000   4225281   4239805   4254426   4269100   4283759  
  4430.000000   4298350   4312791   4327055   4341075   4354852  
  4420.000000   4368328   4381503   4394295   4406681   4418556  
  4410.000000   4429884   4440557   4450553   4459786   4468269  
  4400.000000   4475960   4482925   4489185   4494861   4500032  
  4390.000000   4504856   4509431   4513901   4518333   4522821  
  4380.000000   4527379   4532048   4536809   4541680   4546644  
  4370.000000   4551718   4556898   4562198   4567614   4573149  
  4360.000000   4578791   4584537   4590356   4596246   4602144  
  4350.000000   4608035   4613819   4619492   4624963   4630287  
  4340.000000   4635439   4640517   4645475   4650272   4654632  
  4330.000000   4658199   4660419   4660767   4658766   4654214  
  4320.000000   4647200   4638187   4627873   4617120   4606718  
  4310.000000   4597318   4589275   4582720   4577538   4573530  
  4300.000000   4570444   4568084   4566312   4565038   4564227  
  4290.000000   4563817   4563793   4564081   4564685   4565558  
  4280.000000   4566729   4568186   4569940   4571974   4574255  
  4270.000000   4576747   4579388   4582114   4584799   4587282  
  4260.000000   4589310   4590594   4590818   4589736   4587204  
  4250.000000   4583263   4578109   4572104   4565661   4559220  
  4240.000000   4553114   4547596   4542751   4538584   4534991  
  4230.000000   4531856   4529032   4526396   4523841   4521281  
  4220.000000   4518680   4516012   4513333   4510693   4508230  
  4210.000000   4506035   4504247   4502918   4502106   4501774  
  4200.000000   4501892   4502364   4503130   4504093   4505215  
  4190.000000   4506429   4507734   4509090   4510519   4511995  
  4180.000000   4513555   4515175   4516898   4518713   4520676  
  4170.000000   4522800   4525166   4527808   4530817   4534215  
  4160.000000   4538066   4542351   4547090   4552225   4557762  
  4150.000000   4563642   4569887   4576454   4583389   4590659  
  4140.000000   4598317   4606334   4614766   4623582   4632835  
  4130.000000   4642485   4652574   4663051   4673946   4685216  
  4120.000000   4696903   4708992   4721554   4734602   4748214  
  4110.000000   4762396   4777186   4792538   4808422   4824729  
  4100.000000   4841373   4858225   4875199   4892203   4909200  
  4090.000000   4926166   4943103   4960022   4976927   4993837  
  4080.000000   5010739   5027654   5044552   5061447   5078266  
  4070.000000   5094977   5111445   5127593   5143266   5158421  
  4060.000000   5172964   5186932   5200292   5213120   5225383  
  4050.000000   5237142   5248340   5259040   5269186   5278857  
  4040.000000   5287991   5296653   5304752   5312332   5319297  
  4030.000000   5325705   5331488   5336714   5341318   5345336  
  4020.000000   5348660   5351315   5353260   5354559   5355182  
  4010.000000   5355265   5354889   5354085   5352665   5350680  
  4000.000000   5348407  
##END= 
