##TITLE= Sample 003 By ssteindl date Donnerstag, November 22 2018
##JCAMP-DX= 4.24
##DATA TYPE= INFRARED SPECTRUM
##ORIGIN= Exported PE Spectrum Data File
##OWNER= Sandra Steindl
##DATE= 18/11/22
##TIME= 12:38:54.00
##SPECTROMETER/DATA SYSTEM= PERKIN-ELMER Frontier FT-IR/NIR IR
##INSTRUMENT PARAMETERS=
  APODIZATION=stark
  DETECTOR=INGAAS
##RESOLUTION= 16.000000
##DELTAX= -2.000000
##XUNITS= 1/CM
##YUNITS= A
##XFACTOR= 1.00
##YFACTOR= 0.00000011920928955078
##FIRSTX= 10000.00
##LASTX= 4000.00
##NPOINTS= 3001
##FIRSTY= 0.234861
##MAXY= 0.657092
##MINY= 0.198128
##XYDATA= (X++(Y..Y))
 10000.000000   1970154   1961280   1953668   1949031   1947695  
  9990.000000   1948479   1949905   1950626   1949732   1946933  
  9980.000000   1942949   1939021   1936276   1935215   1935679  
  9970.000000   1937002   1938437   1939548   1940435   1941529  
  9960.000000   1943294   1945770   1948453   1950352   1950432  
  9950.000000   1947997   1943077   1936396   1929153   1922601  
  9940.000000   1917628   1914646   1913553   1914059   1915830  
  9930.000000   1918670   1922427   1926826   1931356   1935191  
  9920.000000   1937442   1937344   1934660   1929709   1923430  
  9910.000000   1917029   1911715   1908363   1907363   1908671  
  9900.000000   1911891   1916535   1922047   1927962   1933739  
  9890.000000   1938868   1942758   1944955   1945219   1943678  
  9880.000000   1940874   1937558   1934549   1932329   1930944  
  9870.000000   1929877   1928244   1925118   1919871   1912535  
  9860.000000   1903824   1895076   1887810   1883379   1882491  
  9850.000000   1885080   1890278   1896729   1902944   1907700  
  9840.000000   1910291   1910604   1909024   1906207   1902897  
  9830.000000   1899673   1896946   1894812   1893191   1891786  
  9820.000000   1890243   1888191   1885358   1881681   1877332  
  9810.000000   1872785   1868688   1865738   1864447   1864973  
  9800.000000   1867069   1870136   1873464   1876400   1878571  
  9790.000000   1879897   1880544   1880789   1880869   1880938  
  9780.000000   1881024   1881149   1881349   1881757   1882512  
  9770.000000   1883702   1885219   1886721   1887664   1887416  
  9760.000000   1885458   1881504   1875666   1868374   1860369  
  9750.000000   1852477   1845509   1840093   1836603   1835161  
  9740.000000   1835612   1837655   1840845   1844768   1849031  
  9730.000000   1853388   1857676   1861820   1865743   1869290  
  9720.000000   1872239   1874259   1875066   1874424   1872309  
  9710.000000   1868879   1864479   1859551   1854489   1849603  
  9700.000000   1844998   1840716   1836726   1833105   1830021  
  9690.000000   1827717   1826407   1826125   1826674   1827562  
  9680.000000   1828168   1827865   1826306   1823537   1820091  
  9670.000000   1816829   1814756   1814710   1817130   1821906  
  9660.000000   1828374   1835467   1841983   1846867   1849474  
  9650.000000   1849656   1847777   1844528   1840764   1837252  
  9640.000000   1834529   1832794   1831923   1831585   1831363  
  9630.000000   1830973   1830300   1829520   1828919   1828856  
  9620.000000   1829503   1830802   1832417   1833832   1834558  
  9610.000000   1834248   1832884   1830704   1828140   1825628  
  9600.000000   1823443   1821644   1820088   1818596   1817101  
  9590.000000   1815767   1814932   1814952   1815951   1817694  
  9580.000000   1819567   1820791   1820719   1819081   1816155  
  9570.000000   1812613   1809340   1807040   1806024   1806075  
  9560.000000   1806582   1806817   1806253   1804814   1802884  
  9550.000000   1801173   1800370   1800916   1802772   1805510  
  9540.000000   1808433   1810851   1812264   1812472   1811575  
  9530.000000   1809877   1807739   1805452   1803134   1800738  
  9520.000000   1798109   1795093   1791641   1787856   1783969  
  9510.000000   1780296   1777094   1774538   1772605   1771158  
  9500.000000   1769975   1768872   1767803   1766849   1766205  
  9490.000000   1766002   1766223   1766596   1766707   1766107  
  9480.000000   1764577   1762195   1759412   1756860   1755177  
  9470.000000   1754724   1755497   1757090   1758929   1760449  
  9460.000000   1761371   1761715   1761759   1761857   1762245  
  9450.000000   1762997   1764009   1765170   1766466   1768079  
  9440.000000   1770327   1773486   1777573   1782183   1786512  
  9430.000000   1789576   1790519   1788919   1784924   1779251  
  9420.000000   1772969   1767250   1763033   1760861   1760731  
  9410.000000   1762216   1764547   1766892   1768476   1768788  
  9400.000000   1767632   1765156   1761809   1758189   1754916  
  9390.000000   1752397   1750780   1749876   1749310   1748669  
  9380.000000   1747671   1746327   1744898   1743876   1743733  
  9370.000000   1744771   1746928   1749772   1752622   1754710  
  9360.000000   1755448   1754523   1751996   1748209   1743672  
  9350.000000   1738932   1734458   1730612   1727642   1725692  
  9340.000000   1724810   1724922   1725795   1727034   1728107  
  9330.000000   1728484   1727795   1725971   1723336   1720507  
  9320.000000   1718260   1717251   1717802   1719752   1722490  
  9310.000000   1725187   1727096   1727812   1727391   1726285  
  9300.000000   1725137   1724490   1724553   1725070   1725486  
  9290.000000   1725138   1723636   1720970   1717566   1714092  
  9280.000000   1711200   1709352   1708644   1708948   1709989  
  9270.000000   1711576   1713644   1716260   1719477   1723156  
  9260.000000   1726886   1730024   1731911   1732072   1730417  
  9250.000000   1727272   1723315   1719368   1716151   1714119  
  9240.000000   1713360   1713690   1714736   1716090   1717358  
  9230.000000   1718220   1718440   1717874   1716482   1714332  
  9220.000000   1711625   1708667   1705847   1703544   1702055  
  9210.000000   1701550   1702038   1703439   1705563   1708187  
  9200.000000   1711013   1713722   1715987   1717499   1718041  
  9190.000000   1717492   1715905   1713442   1710391   1707046  
  9180.000000   1703703   1700609   1697960   1695923   1694584  
  9170.000000   1693981   1694021   1694547   1695303   1696045  
  9160.000000   1696593   1696884   1697002   1697074   1697216  
  9150.000000   1697411   1697525   1697327   1696626   1695363  
  9140.000000   1693696   1691966   1690599   1689964   1690226  
  9130.000000   1691283   1692779   1694244   1695227   1695433  
  9120.000000   1694781   1693416   1691660   1689897   1688470  
  9110.000000   1687590   1687314   1687521   1687965   1688345  
  9100.000000   1688432   1688120   1687479   1686707   1686067  
  9090.000000   1685776   1685927   1686444   1687141   1687823  
  9080.000000   1688383   1688872   1689433   1690266   1691470  
  9070.000000   1693007   1694668   1696167   1697273   1697850  
  9060.000000   1697889   1697415   1696425   1694834   1692491  
  9050.000000   1689314   1685415   1681231   1677458   1674893  
  9040.000000   1674107   1675264   1677969   1681396   1684519  
  9030.000000   1686466   1686802   1685596   1683346   1680717  
  9020.000000   1678312   1676464   1675204   1674374   1673807  
  9010.000000   1673446   1673377   1673756   1674692   1676108  
  9000.000000   1677714   1679061   1679706   1679320   1677819  
  8990.000000   1675362   1672361   1669334   1666808   1665232  
  8980.000000   1664911   1665968   1668278   1671510   1675159  
  8970.000000   1678653   1681437   1683130   1683607   1683022  
  8960.000000   1681749   1680237   1678920   1678064   1677755  
  8950.000000   1677878   1678214   1678513   1678563   1678254  
  8940.000000   1677572   1676632   1675621   1674796   1674379  
  8930.000000   1674521   1675216   1676303   1677506   1678504  
  8920.000000   1679064   1679101   1678735   1678198   1677739  
  8910.000000   1677487   1677390   1677255   1676836   1676018  
  8900.000000   1674891   1673790   1673158   1673411   1674729  
  8890.000000   1676965   1679638   1682061   1683557   1683631  
  8880.000000   1682122   1679186   1675290   1671053   1667151  
  8870.000000   1664145   1662398   1662017   1662850   1664547  
  8860.000000   1666620   1668613   1670205   1671335   1672179  
  8850.000000   1673073   1674368   1676224   1678560   1680985  
  8840.000000   1682997   1684073   1683930   1682577   1680369  
  8830.000000   1677881   1675741   1674470   1674358   1675447  
  8820.000000   1677544   1680302   1683286   1686066   1688289  
  8810.000000   1689744   1690416   1690479   1690278   1690199  
  8800.000000   1690583   1691572   1693089   1694841   1696445  
  8790.000000   1697585   1698136   1698240   1698215   1698463  
  8780.000000   1699255   1700675   1702552   1704571   1706377  
  8770.000000   1707703   1708447   1708651   1708458   1708000  
  8760.000000   1707360   1706536   1705503   1704254   1702860  
  8750.000000   1701465   1700272   1699495   1699312   1699831  
  8740.000000   1701048   1702875   1705128   1707580   1709986  
  8730.000000   1712139   1713922   1715321   1716439   1717413  
  8720.000000   1718379   1719361   1720289   1720973   1721238  
  8710.000000   1720960   1720190   1719124   1718055   1717285  
  8700.000000   1717007   1717313   1718161   1719492   1721262  
  8690.000000   1723498   1726239   1729473   1733044   1736628  
  8680.000000   1739795   1742109   1743297   1743324   1742448  
  8670.000000   1741081   1739693   1738633   1738078   1738021  
  8660.000000   1738325   1738833   1739432   1740112   1740927  
  8650.000000   1741962   1743268   1744838   1746616   1748500  
  8640.000000   1750393   1752174   1753761   1755066   1756063  
  8630.000000   1756776   1757326   1757914   1758778   1760131  
  8620.000000   1762077   1764576   1767446   1770422   1773236  
  8610.000000   1775701   1777735   1779367   1780674   1781743  
  8600.000000   1782634   1783382   1784023   1784618   1785257  
  8590.000000   1786032   1786990   1788107   1789270   1790339  
  8580.000000   1791187   1791781   1792177   1792519   1792964  
  8570.000000   1793617   1794499   1795531   1796593   1797566  
  8560.000000   1798391   1799073   1799669   1800257   1800894  
  8550.000000   1801623   1802469   1803466   1804654   1806064  
  8540.000000   1807696   1809464   1811217   1812743   1813862  
  8530.000000   1814457   1814531   1814207   1813694   1813236  
  8520.000000   1813037   1813250   1813953   1815178   1816891  
  8510.000000   1819020   1821429   1823923   1826262   1828187  
  8500.000000   1829510   1830129   1830110   1829617   1828927  
  8490.000000   1828300   1827961   1828023   1828512   1829405  
  8480.000000   1830664   1832292   1834293   1836702   1839509  
  8470.000000   1842668   1846050   1849479   1852750   1855654  
  8460.000000   1858008   1859669   1860576   1860752   1860313  
  8450.000000   1859469   1858497   1857700   1857318   1857488  
  8440.000000   1858187   1859252   1860398   1861326   1861780  
  8430.000000   1861646   1860963   1859927   1858834   1858003  
  8420.000000   1857702   1858073   1859103   1860622   1862343  
  8410.000000   1863936   1865113   1865719   1865778   1865484  
  8400.000000   1865136   1865053   1865460   1866415   1867781  
  8390.000000   1869274   1870563   1871386   1871625   1871339  
  8380.000000   1870727   1870054   1869540   1869302   1869317  
  8370.000000   1869459   1869555   1869466   1869125   1868577  
  8360.000000   1867922   1867319   1866894   1866751   1866913  
  8350.000000   1867353   1867992   1868721   1869432   1869993  
  8340.000000   1870286   1870189   1869613   1868501   1866853  
  8330.000000   1864744   1862344   1859909   1857745   1856150  
  8320.000000   1855341   1855410   1856260   1857647   1859189  
  8310.000000   1860509   1861309   1861463   1861028   1860201  
  8300.000000   1859255   1858409   1857765   1857244   1856648  
  8290.000000   1855730   1854305   1852322   1849895   1847291  
  8280.000000   1844850   1842904   1841666   1841190   1841358  
  8270.000000   1841932   1842617   1843141   1843315   1843088  
  8260.000000   1842532   1841824   1841163   1840721   1840590  
  8250.000000   1840754   1841099   1841425   1841516   1841179  
  8240.000000   1840289   1838816   1836812   1834415   1831803  
  8230.000000   1829205   1826839   1824912   1823554   1822811  
  8220.000000   1822607   1822769   1823042   1823161   1822894  
  8210.000000   1822111   1820799   1819059   1817065   1815015  
  8200.000000   1813086   1811408   1810058   1809057   1808380  
  8190.000000   1807945   1807616   1807206   1806498   1805312  
  8180.000000   1803556   1801277   1798672   1796042   1793714  
  8170.000000   1791942   1790819   1790255   1790008   1789775  
  8160.000000   1789303   1788462   1787274   1785875   1784450  
  8150.000000   1783149   1782038   1781086   1780198   1779274  
  8140.000000   1778251   1777140   1776000   1774925   1773987  
  8130.000000   1773223   1772614   1772089   1771547   1770856  
  8120.000000   1769892   1768530   1766705   1764422   1761799  
  8110.000000   1759053   1756480   1754377   1752975   1752370  
  8100.000000   1752491   1753131   1753997   1754805   1755349  
  8090.000000   1755544   1755421   1755075   1754624   1754133  
  8080.000000   1753625   1753068   1752423   1751662   1750799  
  8070.000000   1749881   1748975   1748151   1747447   1746879  
  8060.000000   1746419   1746018   1745603   1745104   1744454  
  8050.000000   1743621   1742613   1741491   1740354   1739323  
  8040.000000   1738498   1737929   1737595   1737397   1737197  
  8030.000000   1736847   1736237   1735325   1734143   1732791  
  8020.000000   1731399   1730107   1729028   1728239   1727762  
  8010.000000   1727565   1727562   1727629   1727621   1727417  
  8000.000000   1726942   1726201   1725270   1724275   1723346  
  7990.000000   1722563   1721935   1721389   1720811   1720091  
  7980.000000   1719185   1718129   1717035   1716042   1715259  
  7970.000000   1714724   1714389   1714147   1713886   1713533  
  7960.000000   1713097   1712641   1712264   1712032   1711958  
  7950.000000   1711976   1711980   1711862   1711571   1711135  
  7940.000000   1710667   1710321   1710243   1710517   1711129  
  7930.000000   1711968   1712861   1713617   1714088   1714202  
  7920.000000   1713984   1713537   1713008   1712544   1712247  
  7910.000000   1712162   1712261   1712482   1712746   1712996  
  7900.000000   1713202   1713370   1713520   1713663   1713791  
  7890.000000   1713867   1713843   1713668   1713320   1712805  
  7880.000000   1712166   1711478   1710833   1710334   1710077  
  7870.000000   1710135   1710541   1711265   1712211   1713216  
  7860.000000   1714094   1714669   1714847   1714636   1714162  
  7850.000000   1713620   1713216   1713091   1713279   1713705  
  7840.000000   1714227   1714699   1715029   1715213   1715304  
  7830.000000   1715394   1715533   1715729   1715924   1716049  
  7820.000000   1716055   1715942   1715756   1715558   1715378  
  7810.000000   1715196   1714936   1714514   1713874   1713043  
  7800.000000   1712111   1711219   1710486   1709971   1709639  
  7790.000000   1709393   1709113   1708712   1708169   1707520  
  7780.000000   1706834   1706162   1705513   1704847   1704108  
  7770.000000   1703257   1702310   1701338   1700451   1699753  
  7760.000000   1699312   1699139   1699188   1699388   1699655  
  7750.000000   1699924   1700145   1700283   1700310   1700206  
  7740.000000   1699966   1699601   1699143   1698632   1698099  
  7730.000000   1697553   1696976   1696342   1695633   1694866  
  7720.000000   1694096   1693401   1692849   1692465   1692216  
  7710.000000   1692022   1691784   1691426   1690930   1690339  
  7700.000000   1689741   1689235   1688894   1688743   1688759  
  7690.000000   1688881   1689038   1689166   1689224   1689188  
  7680.000000   1689060   1688843   1688558   1688223   1687860  
  7670.000000   1687478   1687074   1686641   1686174   1685702  
  7660.000000   1685294   1685059   1685113   1685537   1686323  
  7650.000000   1687362   1688448   1689342   1689853   1689886  
  7640.000000   1689494   1688833   1688118   1687522   1687133  
  7630.000000   1686925   1686794   1686625   1686357   1686026  
  7620.000000   1685740   1685646   1685852   1686390   1687192  
  7610.000000   1688118   1689000   1689686   1690090   1690182  
  7600.000000   1689999   1689603   1689082   1688524   1688017  
  7590.000000   1687642   1687466   1687528   1687831   1688343  
  7580.000000   1689005   1689751   1690522   1691270   1691960  
  7570.000000   1692557   1693024   1693323   1693442   1693401  
  7560.000000   1693272   1693163   1693198   1693469   1694014  
  7550.000000   1694789   1695693   1696581   1697329   1697852  
  7540.000000   1698130   1698193   1698114   1697984   1697905  
  7530.000000   1697978   1698300   1698951   1699975   1701364  
  7520.000000   1703046   1704887   1706716   1708362   1709705  
  7510.000000   1710691   1711357   1711789   1712113   1712435  
  7500.000000   1712843   1713371   1714030   1714799   1715659  
  7490.000000   1716586   1717572   1718616   1719730   1720940  
  7480.000000   1722279   1723777   1725454   1727298   1729275  
  7470.000000   1731313   1733339   1735279   1737092   1738761  
  7460.000000   1740308   1741760   1743156   1744522   1745887  
  7450.000000   1747268   1748688   1750169   1751727   1753368  
  7440.000000   1755081   1756846   1758644   1760467   1762323  
  7430.000000   1764228   1766191   1768196   1770205   1772152  
  7420.000000   1773981   1775663   1777217   1778708   1780228  
  7410.000000   1781861   1783655   1785609   1787678   1789797  
  7400.000000   1791906   1793970   1795980   1797948   1799887  
  7390.000000   1801805   1803704   1805576   1807424   1809248  
  7380.000000   1811051   1812822   1814537   1816165   1817677  
  7370.000000   1819079   1820404   1821729   1823133   1824689  
  7360.000000   1826424   1828323   1830330   1832373   1834394  
  7350.000000   1836348   1838207   1839938   1841505   1842861  
  7340.000000   1843978   1844873   1845636   1846421   1847415  
  7330.000000   1848793   1850655   1852997   1855696   1858554  
  7320.000000   1861352   1863908   1866116   1867949   1869455  
  7310.000000   1870719   1871841   1872907   1873986   1875128  
  7300.000000   1876361   1877702   1879143   1880666   1882233  
  7290.000000   1883807   1885347   1886831   1888239   1889568  
  7280.000000   1890814   1891977   1893066   1894092   1895087  
  7270.000000   1896078   1897093   1898138   1899202   1900255  
  7260.000000   1901276   1902263   1903254   1904313   1905519  
  7250.000000   1906925   1908553   1910366   1912310   1914314  
  7240.000000   1916347   1918400   1920508   1922679   1924913  
  7230.000000   1927136   1929276   1931241   1933021   1934655  
  7220.000000   1936279   1938048   1940113   1942557   1945393  
  7210.000000   1948556   1951957   1955498   1959123   1962805  
  7200.000000   1966554   1970361   1974217   1978072   1981886  
  7190.000000   1985613   1989256   1992833   1996405   2000018  
  7180.000000   2003710   2007483   2011319   2015182   2019043  
  7170.000000   2022878   2026688   2030469   2034234   2037981  
  7160.000000   2041717   2045437   2049155   2052874   2056619  
  7150.000000   2060405   2064273   2068255   2072405   2076756  
  7140.000000   2081343   2086156   2091167   2096306   2101512  
  7130.000000   2106717   2111907   2117078   2122287   2127573  
  7120.000000   2132994   2138558   2144273   2150110   2156063  
  7110.000000   2162121   2168310   2174638   2181124   2187742  
  7100.000000   2194461   2201216   2207964   2214662   2221309  
  7090.000000   2227909   2234488   2241059   2247641   2254243  
  7080.000000   2260884   2267579   2274348   2281188   2288074  
  7070.000000   2294946   2301732   2308367   2314826   2321132  
  7060.000000   2327359   2333602   2339954   2346470   2353153  
  7050.000000   2359958   2366804   2373608   2380295   2386819  
  7040.000000   2393166   2399353   2405418   2411422   2417432  
  7030.000000   2423514   2429707   2436009   2442369   2448700  
  7020.000000   2454894   2460871   2466590   2472082   2477413  
  7010.000000   2482679   2487952   2493272   2498627   2503983  
  7000.000000   2509290   2514527   2519681   2524775   2529816  
  6990.000000   2534818   2539758   2544619   2549367   2553994  
  6980.000000   2558486   2562853   2567085   2571181   2575120  
  6970.000000   2578907   2582542   2586062   2589488   2592847  
  6960.000000   2596122   2599288   2602287   2605094   2607706  
  6950.000000   2610185   2612614   2615101   2617711   2620478  
  6940.000000   2623366   2626312   2629228   2632050   2634724  
  6930.000000   2637234   2639571   2641749   2643779   2645695  
  6920.000000   2647535   2649353   2651186   2653052   2654919  
  6910.000000   2656723   2658380   2659831   2661052   2662091  
  6900.000000   2663031   2663981   2665020   2666191   2667481  
  6890.000000   2668856   2670269   2671705   2673159   2674647  
  6880.000000   2676164   2677690   2679173   2680561   2681813  
  6870.000000   2682926   2683928   2684868   2685790   2686715  
  6860.000000   2687641   2688552   2689435   2690303   2691175  
  6850.000000   2692086   2693042   2694035   2695023   2695971  
  6840.000000   2696852   2697677   2698478   2699290   2700118  
  6830.000000   2700930   2701655   2702220   2702575   2702733  
  6820.000000   2702763   2702779   2702889   2703168   2703621  
  6810.000000   2704210   2704852   2705476   2706024   2706473  
  6800.000000   2706814   2707048   2707169   2707172   2707060  
  6790.000000   2706858   2706612   2706381   2706219   2706154  
  6780.000000   2706185   2706288   2706424   2706568   2706702  
  6770.000000   2706822   2706923   2706990   2707004   2706945  
  6760.000000   2706813   2706634   2706462   2706357   2706364  
  6750.000000   2706493   2706721   2706995   2707269   2707512  
  6740.000000   2707727   2707932   2708151   2708390   2708632  
  6730.000000   2708849   2709022   2709160   2709305   2709521  
  6720.000000   2709864   2710351   2710946   2711569   2712118  
  6710.000000   2712516   2712729   2712784   2712742   2712679  
  6700.000000   2712647   2712663   2712702   2712721   2712668  
  6690.000000   2712521   2712269   2711931   2711525   2711074  
  6680.000000   2710585   2710066   2709516   2708944   2708353  
  6670.000000   2707755   2707151   2706541   2705912   2705251  
  6660.000000   2704538   2703762   2702910   2701979   2700973  
  6650.000000   2699910   2698813   2697717   2696655   2695654  
  6640.000000   2694722   2693848   2692999   2692142   2691236  
  6630.000000   2690263   2689216   2688104   2686944   2685751  
  6620.000000   2684534   2683299   2682046   2680782   2679512  
  6610.000000   2678250   2677003   2675782   2674584   2673407  
  6600.000000   2672239   2671064   2669859   2668597   2667247  
  6590.000000   2665778   2664173   2662432   2660586   2658687  
  6580.000000   2656803   2655000   2653328   2651812   2650446  
  6570.000000   2649207   2648054   2646949   2645854   2644740  
  6560.000000   2643585   2642372   2641095   2639755   2638367  
  6550.000000   2636952   2635533   2634126   2632735   2631356  
  6540.000000   2629976   2628594   2627215   2625861   2624555  
  6530.000000   2623318   2622151   2621034   2619929   2618796  
  6520.000000   2617603   2616339   2615017   2613667   2612326  
  6510.000000   2611025   2609782   2608597   2607452   2606324  
  6500.000000   2605183   2604003   2602764   2601460   2600099  
  6490.000000   2598704   2597306   2595938   2594624   2593374  
  6480.000000   2592178   2591014   2589858   2588686   2587489  
  6470.000000   2586264   2585014   2583739   2582439   2581113  
  6460.000000   2579768   2578425   2577115   2575879   2574748  
  6450.000000   2573732   2572821   2571976   2571151   2570302  
  6440.000000   2569406   2568454   2567464   2566452   2565448  
  6430.000000   2564465   2563523   2562637   2561828   2561112  
  6420.000000   2560505   2560002   2559594   2559256   2558970  
  6410.000000   2558726   2558528   2558390   2558327   2558331  
  6400.000000   2558383   2558440   2558458   2558403   2558266  
  6390.000000   2558062   2557824   2557584   2557367   2557179  
  6380.000000   2557010   2556847   2556673   2556482   2556268  
  6370.000000   2556033   2555773   2555489   2555186   2554883  
  6360.000000   2554602   2554369   2554189   2554043   2553880  
  6350.000000   2553638   2553256   2552708   2552008   2551216  
  6340.000000   2550413   2549681   2549067   2548585   2548206  
  6330.000000   2547884   2547561   2547195   2546751   2546208  
  6320.000000   2545543   2544742   2543794   2542712   2541529  
  6310.000000   2540304   2539101   2537975   2536951   2536026  
  6300.000000   2535161   2534316   2533449   2532546   2531604  
  6290.000000   2530636   2529647   2528637   2527593   2526504  
  6280.000000   2525365   2524186   2522985   2521778   2520568  
  6270.000000   2519340   2518062   2516704   2515243   2513688  
  6260.000000   2512070   2510445   2508866   2507381   2506008  
  6250.000000   2504745   2503563   2502421   2501267   2500059  
  6240.000000   2498764   2497367   2495880   2494334   2492780  
  6230.000000   2491264   2489824   2488466   2487168   2485886  
  6220.000000   2484573   2483194   2481742   2480240   2478730  
  6210.000000   2477253   2475840   2474499   2473223   2471995  
  6200.000000   2470808   2469667   2468586   2467582   2466665  
  6190.000000   2465823   2465031   2464252   2463447   2462582  
  6180.000000   2461637   2460597   2459463   2458244   2456962  
  6170.000000   2455656   2454375   2453170   2452082   2451132  
  6160.000000   2450307   2449573   2448880   2448182   2447448  
  6150.000000   2446670   2445860   2445034   2444208   2443386  
  6140.000000   2442565   2441739   2440910   2440085   2439278  
  6130.000000   2438498   2437748   2437016   2436289   2435550  
  6120.000000   2434798   2434038   2433290   2432569   2431894  
  6110.000000   2431269   2430701   2430189   2429745   2429379  
  6100.000000   2429105   2428925   2428834   2428811   2428836  
  6090.000000   2428886   2428956   2429045   2429167   2429322  
  6080.000000   2429516   2429731   2429964   2430203   2430464  
  6070.000000   2430759   2431119   2431548   2432054   2432612  
  6060.000000   2433208   2433819   2434460   2435150   2435945  
  6050.000000   2436882   2438002   2439305   2440782   2442391  
  6040.000000   2444097   2445861   2447670   2449508   2451382  
  6030.000000   2453290   2455245   2457244   2459301   2461410  
  6020.000000   2463573   2465770   2467988   2470196   2472383  
  6010.000000   2474544   2476703   2478892   2481160   2483535  
  6000.000000   2486037   2488649   2491350   2494101   2496887  
  5990.000000   2499693   2502534   2505423   2508383   2511420  
  5980.000000   2514549   2517766   2521088   2524519   2528076  
  5970.000000   2531747   2535519   2539344   2543184   2546988  
  5960.000000   2550746   2554461   2558176   2561928   2565767  
  5950.000000   2569712   2573771   2577929   2582178   2586509  
  5940.000000   2590925   2595434   2600034   2604712   2609433  
  5930.000000   2614155   2618828   2623417   2627896   2632255  
  5920.000000   2636487   2640586   2644539   2648330   2651942  
  5910.000000   2655369   2658608   2661680   2664598   2667402  
  5900.000000   2670116   2672793   2675470   2678204   2681023  
  5890.000000   2683953   2686972   2690043   2693092   2696049  
  5880.000000   2698841   2701428   2703788   2705932   2707879  
  5870.000000   2709662   2711314   2712873   2714381   2715885  
  5860.000000   2717428   2719046   2720755   2722553   2724421  
  5850.000000   2726337   2728283   2730257   2732269   2734335  
  5840.000000   2736477   2738696   2740995   2743359   2745782  
  5830.000000   2748249   2750760   2753301   2755865   2758431  
  5820.000000   2760984   2763510   2766018   2768525   2771065  
  5810.000000   2773667   2776346   2779104   2781909   2784737  
  5800.000000   2787545   2790324   2793050   2795737   2798362  
  5790.000000   2800926   2803375   2805672   2807728   2809479  
  5780.000000   2810818   2811670   2811942   2811598   2810616  
  5770.000000   2809059   2807020   2804665   2802145   2799622  
  5760.000000   2797185   2794897   2792745   2790720   2788783  
  5750.000000   2786938   2785179   2783530   2781990   2780551  
  5740.000000   2779182   2777848   2776520   2775183   2773841  
  5730.000000   2772502   2771180   2769874   2768581   2767290  
  5720.000000   2766001   2764721   2763463   2762235   2761035  
  5710.000000   2759848   2758653   2757435   2756196   2754959  
  5700.000000   2753754   2752613   2751545   2750542   2749575  
  5690.000000   2748622   2747664   2746714   2745791   2744923  
  5680.000000   2744110   2743335   2742539   2741662   2740631  
  5670.000000   2739398   2737927   2736206   2734227   2731995  
  5660.000000   2729519   2726835   2723993   2721077   2718172  
  5650.000000   2715364   2712702   2710206   2707854   2705612  
  5640.000000   2703441   2701322   2699248   2697226   2695264  
  5630.000000   2693358   2691506   2689695   2687934   2686236  
  5620.000000   2684632   2683139   2681771   2680505   2679313  
  5610.000000   2678153   2677003   2675857   2674741   2673684  
  5600.000000   2672718   2671850   2671069   2670339   2669630  
  5590.000000   2668915   2668186   2667447   2666710   2665983  
  5580.000000   2665265   2664551   2663835   2663113   2662382  
  5570.000000   2661640   2660874   2660069   2659200   2658253  
  5560.000000   2657224   2656132   2655006   2653883   2652787  
  5550.000000   2651729   2650703   2649693   2648684   2647672  
  5540.000000   2646657   2645649   2644649   2643655   2642657  
  5530.000000   2641650   2640639   2639639   2638669   2637747  
  5520.000000   2636870   2636018   2635155   2634246   2633266  
  5510.000000   2632210   2631092   2629934   2628753   2627559  
  5500.000000   2626348   2625123   2623885   2622659   2621463  
  5490.000000   2620319   2619218   2618133   2617012   2615809  
  5480.000000   2614485   2613039   2611492   2609887   2608261  
  5470.000000   2606641   2605028   2603411   2601767   2600085  
  5460.000000   2598355   2596578   2594750   2592871   2590933  
  5450.000000   2588943   2586918   2584891   2582902   2580982  
  5440.000000   2579146   2577383   2575672   2573991   2572338  
  5430.000000   2570725   2569179   2567713   2566329   2564995  
  5420.000000   2563681   2562353   2561025   2559729   2558548  
  5410.000000   2557544   2556774   2556227   2555875   2555648  
  5400.000000   2555505   2555404   2555358   2555370   2555478  
  5390.000000   2555679   2555988   2556385   2556890   2557508  
  5380.000000   2558290   2559258   2560452   2561851   2563444  
  5370.000000   2565171   2567021   2568958   2571018   2573204  
  5360.000000   2575578   2578136   2580929   2583938   2587219  
  5350.000000   2590767   2594664   2598917   2603602   2608690  
  5340.000000   2614224   2620149   2626510   2633265   2640487  
  5330.000000   2648141   2656292   2664878   2673941   2683411  
  5320.000000   2693360   2703760   2714744   2726318   2738629  
  5310.000000   2751655   2765495   2780072   2795449   2811540  
  5300.000000   2828420   2846039   2864510   2883814   2904070  
  5290.000000   2925244   2947397   2970414   2994259   3018749  
  5280.000000   3043826   3069361   3095395   3121928   3149092  
  5270.000000   3176913   3205429   3234520   3264025   3293715  
  5260.000000   3323405   3352997   3382486   3411956   3441470  
  5250.000000   3471065   3500623   3529983   3558856   3587062  
  5240.000000   3614401   3640900   3666564   3691580   3716004  
  5230.000000   3739981   3763445   3786399   3808659   3830182  
  5220.000000   3850816   3870624   3889578   3907852   3925472  
  5210.000000   3942596   3959157   3975180   3990476   4005003  
  5200.000000   4018594   4031310   4043120   4054197   4064563  
  5190.000000   4074360   4083530   4092115   4099994   4107202  
  5180.000000   4113663   4119486   4124654   4129289   4133352  
  5170.000000   4136909   4139879   4142310   4144142   4145453  
  5160.000000   4146216   4146512   4146297   4145624   4144439  
  5150.000000   4142800   4140689   4138198   4135335   4132180  
  5140.000000   4128716   4124985   4120949   4116648   4112069  
  5130.000000   4107269   4102249   4097054   4091666   4086104  
  5120.000000   4080355   4074459   4068452   4062408   4056379  
  5110.000000   4050413   4044509   4038657   4032821   4026984  
  5100.000000   4021143   4015327   4009575   4003926   3998400  
  5090.000000   3992997   3987695   3982470   3977297   3972165  
  5080.000000   3967066   3961997   3956940   3951881   3946791  
  5070.000000   3941655   3936461   3931213   3925912   3920564  
  5060.000000   3915153   3909662   3904057   3898322   3892439  
  5050.000000   3886422   3880283   3874054   3867745   3861371  
  5040.000000   3854922   3848396   3841778   3835074   3828286  
  5030.000000   3821432   3814524   3807582   3800614   3793633  
  5020.000000   3786649   3779673   3772721   3765806   3758953  
  5010.000000   3752178   3745512   3738969   3732582   3726355  
  5000.000000   3720310   3714438   3708752   3703235   3697914  
  4990.000000   3692784   3687888   3683231   3678857   3674751  
  4980.000000   3670939   3667383   3664103   3661065   3658310  
  4970.000000   3655826   3653672   3651834   3650359   3649209  
  4960.000000   3648407   3647903   3647723   3647831   3648277  
  4950.000000   3649041   3650181   3651672   3653563   3655818  
  4940.000000   3658482   3661518   3664979   3668831   3673124  
  4930.000000   3677817   3682953   3688488   3694463   3700843  
  4920.000000   3707670   3714910   3722594   3730673   3739157  
  4910.000000   3747989   3757172   3766662   3776465   3786546  
  4900.000000   3796899   3807483   3818261   3829180   3840184  
  4890.000000   3851220   3862222   3873145   3883908   3894466  
  4880.000000   3904726   3914651   3924148   3933199   3941721  
  4870.000000   3949703   3957060   3963783   3969789   3975091  
  4860.000000   3979638   3983490   3986640   3989184   3991135  
  4850.000000   3992592   3993565   3994140   3994326   3994203  
  4840.000000   3993791   3993174   3992383   3991499   3990555  
  4830.000000   3989620   3988721   3987905   3987183   3986573  
  4820.000000   3986072   3985680   3985396   3985223   3985182  
  4810.000000   3985284   3985558   3986005   3986634   3987420  
  4800.000000   3988350   3989389   3990529   3991749   3993059  
  4790.000000   3994455   3995951   3997540   3999226   4000993  
  4780.000000   4002839   4004749   4006724   4008754   4010838  
  4770.000000   4012960   4015110   4017268   4019416   4021540  
  4760.000000   4023627   4025671   4027667   4029613   4031506  
  4750.000000   4033344   4035126   4036850   4038512   4040111  
  4740.000000   4041646   4043125   4044554   4045953   4047338  
  4730.000000   4048727   4050132   4051554   4052989   4054422  
  4720.000000   4055848   4057259   4058672   4060099   4061571  
  4710.000000   4063104   4064729   4066452   4068295   4070263  
  4700.000000   4072383   4074670   4077151   4079836   4082739  
  4690.000000   4085849   4089157   4092638   4096274   4100030  
  4680.000000   4103879   4107770   4111662   4115486   4119205  
  4670.000000   4122767   4126177   4129443   4132624   4135778  
  4660.000000   4138986   4142312   4145818   4149544   4153519  
  4650.000000   4157756   4162254   4167003   4171969   4177112  
  4640.000000   4182373   4187695   4193010   4198271   4203426  
  4630.000000   4208444   4213287   4217937   4222358   4226537  
  4620.000000   4230438   4234047   4237327   4240269   4242840  
  4610.000000   4245050   4246892   4248419   4249662   4250715  
  4600.000000   4251625   4252478   4253287   4254090   4254841  
  4590.000000   4255529   4256078   4256461   4256611   4256512  
  4580.000000   4256118   4255434   4254440   4253161   4251604  
  4570.000000   4249815   4247819   4245670   4243391   4241024  
  4560.000000   4238578   4236085   4233549   4230997   4228434  
  4550.000000   4225880   4223328   4220780   4218210   4215601  
  4540.000000   4212928   4210179   4207350   4204451   4201502  
  4530.000000   4198526   4195552   4192594   4189678   4186802  
  4520.000000   4183989   4181230   4178556   4175960   4173492  
  4510.000000   4171157   4169029   4167124   4165536   4164284  
  4500.000000   4163462   4163074   4163208   4163847   4165078  
  4490.000000   4166882   4169355   4172482   4176358   4180958  
  4480.000000   4186357   4192500   4199439   4207096   4215513  
  4470.000000   4224606   4234411   4244840   4255916   4267541  
  4460.000000   4279720   4292354   4305442   4318895   4332708  
  4450.000000   4346806   4361182   4375774   4390572   4405533  
  4440.000000   4420647   4435883   4451218   4466620   4482042  
  4430.000000   4497446   4512762   4527958   4542959   4557745  
  4420.000000   4572234   4586412   4600188   4613541   4626365  
  4410.000000   4638632   4650229   4661131   4671238   4680553  
  4400.000000   4689023   4696709   4703627   4709906   4715620  
  4390.000000   4720937   4725952   4730828   4735639   4740507  
  4380.000000   4745458   4750548   4755749   4761061   4766424  
  4370.000000   4771812   4777171   4782482   4787716   4792876  
  4360.000000   4797958   4802992   4807982   4812978   4817967  
  4350.000000   4822998   4828017   4833056   4838031   4842979  
  4340.000000   4847819   4852585   4857159   4861452   4865164  
  4330.000000   4867952   4869307   4868764   4865910   4860590  
  4320.000000   4852916   4843342   4832538   4821322   4810447  
  4310.000000   4800534   4791935   4784792   4779025   4774473  
  4300.000000   4770926   4768211   4766206   4764813   4763987  
  4290.000000   4763646   4763761   4764251   4765112   4766295  
  4280.000000   4767813   4769631   4771726   4774041   4776506  
  4270.000000   4779058   4781622   4784132   4786470   4788487  
  4260.000000   4789943   4790566   4790053   4788183   4784835  
  4250.000000   4780085   4774155   4767439   4760362   4753375  
  4240.000000   4746805   4740894   4735701   4731208   4727279  
  4230.000000   4723769   4720515   4717382   4714275   4711129  
  4220.000000   4707944   4704725   4701558   4698502   4695690  
  4210.000000   4693193   4691123   4689508   4688388   4687724  
  4200.000000   4687483   4687576   4687945   4688498   4689193  
  4190.000000   4689965   4690812   4691697   4692643   4693626  
  4180.000000   4694673   4695758   4696914   4698121   4699435  
  4170.000000   4700864   4702489   4704341   4706506   4709001  
  4160.000000   4711893   4715174   4718893   4723027   4727625  
  4150.000000   4732662   4738185   4744160   4750619   4757509  
  4140.000000   4764852   4772584   4780736   4789247   4798157  
  4130.000000   4807409   4817045   4827017   4837379   4848108  
  4120.000000   4859282   4870909   4883083   4895822   4909207  
  4110.000000   4923233   4937942   4953290   4969261   4985761  
  4100.000000   5002720   5020012   5037545   5055212   5072958  
  4090.000000   5090737   5108542   5126372   5144222   5162092  
  4080.000000   5179943   5197760   5215476   5233071   5250458  
  4070.000000   5267605   5284390   5300763   5316581   5331817  
  4060.000000   5346361   5360244   5373410   5385935   5397780  
  4050.000000   5409038   5419672   5429782   5439326   5448397  
  4040.000000   5456921   5464950   5472372   5479214   5485370  
  4030.000000   5490900   5495738   5499968   5503542   5506520  
  4020.000000   5508821   5510506   5511566   5512090   5512052  
  4010.000000   5511581   5510735   5509500   5507639   5505176  
  4000.000000   5502404  
##END= 
