##TITLE= Sample 027 By ssteindl date Donnerstag, November 22 2018
##JCAMP-DX= 4.24
##DATA TYPE= INFRARED SPECTRUM
##ORIGIN= Exported PE Spectrum Data File
##OWNER= Sandra Steindl
##DATE= 18/11/22
##TIME= 11:16:25.00
##SPECTROMETER/DATA SYSTEM= PERKIN-ELMER Frontier FT-IR/NIR IR
##INSTRUMENT PARAMETERS=
  APODIZATION=stark
  DETECTOR=INGAAS
##RESOLUTION= 16.000000
##DELTAX= -2.000000
##XUNITS= 1/CM
##YUNITS= A
##XFACTOR= 1.00
##YFACTOR= 0.00000011920928955078
##FIRSTX= 10000.00
##LASTX= 4000.00
##NPOINTS= 3001
##FIRSTY= 0.303539
##MAXY= 0.669326
##MINY= 0.225283
##XYDATA= (X++(Y..Y))
 10000.000000   2546266   2544199   2541530   2537953   2534316  
  9990.000000   2531533   2529431   2527005   2523562   2519027  
  9980.000000   2513580   2507494   2501165   2494995   2489321  
  9970.000000   2484511   2481089   2479594   2480248   2482693  
  9960.000000   2485925   2488486   2489071   2487009   2482684  
  9950.000000   2477310   2472509   2469500   2468718   2469576  
  9940.000000   2470948   2471668   2471185   2469770   2468327  
  9930.000000   2467913   2469142   2471953   2475692   2479528  
  9920.000000   2482934   2485867   2488701   2491780   2495049  
  9910.000000   2497884   2499299   2498476   2495255   2490442  
  9900.000000   2485564   2482324   2481836   2484177   2488330  
  9890.000000   2492641   2495484   2495872   2493719   2489696  
  9880.000000   2484788   2479843   2475302   2471273   2467755  
  9870.000000   2464930   2463213   2463131   2464966   2468505  
  9860.000000   2472924   2477034   2479690   2480222   2478683  
  9850.000000   2475716   2472227   2468937   2466093   2463497  
  9840.000000   2460743   2457622   2454367   2451642   2450286  
  9830.000000   2450843   2453221   2456542   2459333   2460012  
  9820.000000   2457458   2451475   2442945   2433616   2425587  
  9810.000000   2420728   2420094   2423709   2430525   2438786  
  9800.000000   2446521   2452039   2454377   2453355   2449574  
  9790.000000   2444016   2437781   2431708   2426306   2421736  
  9780.000000   2418005   2415160   2413364   2412975   2414296  
  9770.000000   2417524   2422445   2428498   2434759   2440151  
  9760.000000   2443696   2444657   2442796   2438311   2431893  
  9750.000000   2424496   2417205   2411026   2406712   2404674  
  9740.000000   2404865   2406878   2409960   2413286   2416036  
  9730.000000   2417669   2417900   2416780   2414569   2411640  
  9720.000000   2408430   2405297   2402577   2400420   2398851  
  9710.000000   2397660   2396487   2394888   2392482   2389143  
  9700.000000   2385059   2380794   2377109   2374763   2374238  
  9690.000000   2375549   2378265   2381612   2384776   2387092  
  9680.000000   2388204   2388048   2386771   2384644   2382016  
  9670.000000   2379300   2377024   2375721   2375861   2377600  
  9660.000000   2380652   2384239   2387231   2388524   2387371  
  9650.000000   2383792   2378570   2373147   2369084   2367593  
  9640.000000   2369058   2372949   2377988   2382608   2385435  
  9630.000000   2385662   2383165   2378405   2372160   2365274  
  9620.000000   2358466   2352247   2346981   2342853   2339977  
  9610.000000   2338286   2337564   2337412   2337301   2336756  
  9600.000000   2335448   2333405   2330997   2328905   2327924  
  9590.000000   2328698   2331526   2336174   2341939   2347737  
  9580.000000   2352440   2355085   2355206   2352855   2348621  
  9570.000000   2343398   2338138   2333628   2330312   2328333  
  9560.000000   2327571   2327856   2329012   2330965   2333574  
  9550.000000   2336630   2339662   2342066   2343191   2342585  
  9540.000000   2340197   2336372   2331835   2327360   2323618  
  9530.000000   2320883   2319037   2317623   2316052   2313877  
  9520.000000   2310925   2307442   2303936   2301111   2299569  
  9510.000000   2299722   2301612   2304941   2309094   2313241  
  9500.000000   2316525   2318183   2317799   2315324   2311166  
  9490.000000   2305994   2300592   2295601   2291387   2288012  
  9480.000000   2285314   2283103   2281274   2279943   2279351  
  9470.000000   2279765   2281259   2283601   2286237   2288419  
  9460.000000   2289446   2288879   2286704   2283329   2279465  
  9450.000000   2275944   2273475   2272523   2273166   2275137  
  9440.000000   2277841   2280509   2282328   2282624   2280999  
  9430.000000   2277410   2272184   2265908   2259299   2253010  
  9420.000000   2247511   2243022   2239565   2237062   2235422  
  9410.000000   2234604   2234563   2235209   2236332   2237606  
  9400.000000   2238667   2239178   2238996   2238146   2236877  
  9390.000000   2235487   2234283   2233444   2233051   2233100  
  9380.000000   2233568   2234436   2235654   2237111   2238587  
  9370.000000   2239782   2240393   2240209   2239209   2237551  
  9360.000000   2235537   2233472   2231584   2229943   2228509  
  9350.000000   2227222   2226091   2225261   2224916   2225232  
  9340.000000   2226200   2227657   2229261   2230678   2231671  
  9330.000000   2232201   2232398   2232422   2232373   2232161  
  9320.000000   2231591   2230376   2228334   2225417   2221825  
  9310.000000   2217908   2214115   2210864   2208477   2207170  
  9300.000000   2207028   2208056   2210134   2213053   2216480  
  9290.000000   2220050   2223408   2226335   2228748   2230725  
  9280.000000   2232377   2233783   2234895   2235561   2235589  
  9270.000000   2234845   2233326   2231159   2228513   2225494  
  9260.000000   2222056   2218047   2213305   2207833   2201849  
  9250.000000   2195846   2190431   2186194   2183477   2182311  
  9240.000000   2182424   2183386   2184764   2186194   2187414  
  9230.000000   2188188   2188329   2187660   2186141   2183897  
  9220.000000   2181323   2178994   2177530   2177337   2178414  
  9210.000000   2180342   2182424   2183960   2184482   2183897  
  9200.000000   2182467   2180594   2178619   2176620   2174442  
  9190.000000   2171792   2168486   2164619   2160627   2157155  
  9180.000000   2154814   2153979   2154652   2156487   2158904  
  9170.000000   2161277   2163126   2164155   2164300   2163618  
  9160.000000   2162299   2160618   2158945   2157693   2157210  
  9150.000000   2157719   2159214   2161470   2164065   2166548  
  9140.000000   2168559   2169931   2170640   2170698   2170052  
  9130.000000   2168554   2166047   2162475   2158022   2153185  
  9120.000000   2148684   2145273   2143424   2143215   2144272  
  9110.000000   2145974   2147633   2148738   2149043   2148555  
  9100.000000   2147445   2145857   2143906   2141628   2139158  
  9090.000000   2136706   2134586   2133101   2132417   2132510  
  9080.000000   2133136   2134004   2134900   2135850   2137079  
  9070.000000   2138854   2141264   2144042   2146594   2148106  
  9060.000000   2147904   2145708   2141862   2137189   2132730  
  9050.000000   2129396   2127685   2127606   2128716   2130426  
  9040.000000   2132221   2133857   2135304   2136658   2137947  
  9030.000000   2139059   2139738   2139710   2138852   2137250  
  9020.000000   2135232   2133190   2131478   2130241   2129410  
  9010.000000   2128753   2127993   2126959   2125634   2124186  
  9000.000000   2122852   2121873   2121376   2121413   2121931  
  8990.000000   2122842   2124013   2125292   2126513   2127479  
  8980.000000   2127977   2127812   2126859   2125092   2122602  
  8970.000000   2119585   2116329   2113141   2110307   2108034  
  8960.000000   2106415   2105410   2104834   2104407   2103836  
  8950.000000   2102908   2101576   2099968   2098367   2097101  
  8940.000000   2096442   2096498   2097186   2098272   2099500  
  8930.000000   2100673   2101752   2102817   2104017   2105433  
  8920.000000   2106994   2108464   2109506   2109815   2109231  
  8910.000000   2107843   2105979   2104127   2102764   2102219  
  8900.000000   2102554   2103561   2104799   2105742   2105910  
  8890.000000   2105032   2103100   2100390   2097359   2094540  
  8880.000000   2092369   2091099   2090708   2090954   2091464  
  8870.000000   2091864   2091901   2091485   2090687   2089646  
  8860.000000   2088495   2087260   2085884   2084255   2082332  
  8850.000000   2080183   2078026   2076172   2074933   2074530  
  8840.000000   2074999   2076207   2077892   2079759   2081551  
  8830.000000   2083074   2084215   2084895   2085085   2084770  
  8820.000000   2084003   2082895   2081659   2080537   2079757  
  8810.000000   2079444   2079570   2079984   2080445   2080761  
  8800.000000   2080825   2080693   2080514   2080476   2080706  
  8790.000000   2081204   2081854   2082434   2082733   2082587  
  8780.000000   2081964   2080932   2079636   2078245   2076910  
  8770.000000   2075777   2074971   2074637   2074907   2075878  
  8760.000000   2077555   2079803   2082331   2084720   2086517  
  8750.000000   2087346   2087042   2085696   2083666   2081468  
  8740.000000   2079644   2078612   2078551   2079381   2080791  
  8730.000000   2082371   2083732   2084626   2084971   2084841  
  8720.000000   2084382   2083745   2083032   2082278   2081498  
  8710.000000   2080697   2079948   2079334   2078956   2078848  
  8700.000000   2078968   2079193   2079379   2079430   2079364  
  8690.000000   2079326   2079540   2080229   2081516   2083380  
  8680.000000   2085645   2088049   2090337   2092333   2094000  
  8670.000000   2095374   2096541   2097513   2098241   2098560  
  8660.000000   2098311   2097384   2095842   2093925   2092022  
  8650.000000   2090599   2090058   2090681   2092505   2095387  
  8640.000000   2098986   2102915   2106766   2110223   2113058  
  8630.000000   2115179   2116599   2117398   2117691   2117569  
  8620.000000   2117121   2116379   2115357   2114042   2112426  
  8610.000000   2110539   2108447   2106297   2104271   2102599  
  8600.000000   2101475   2101041   2101329   2102245   2103582  
  8590.000000   2105059   2106407   2107420   2108027   2108282  
  8580.000000   2108360   2108478   2108841   2109560   2110654  
  8570.000000   2112037   2113577   2115131   2116568   2117802  
  8560.000000   2118762   2119418   2119750   2119776   2119561  
  8550.000000   2119204   2118841   2118570   2118442   2118398  
  8540.000000   2118297   2117955   2117226   2116104   2114738  
  8530.000000   2113460   2112661   2112725   2113881   2116143  
  8520.000000   2119277   2122849   2126346   2129248   2131159  
  8510.000000   2131830   2131233   2129522   2127027   2124201  
  8500.000000   2121554   2119567   2118576   2118737   2119966  
  8490.000000   2121987   2124367   2126651   2128449   2129508  
  8480.000000   2129747   2129213   2128077   2126520   2124739  
  8470.000000   2122904   2121215   2119873   2119088   2119058  
  8460.000000   2119922   2121721   2124335   2127521   2130938  
  8450.000000   2134224   2137047   2139157   2140439   2140893  
  8440.000000   2140646   2139888   2138877   2137867   2137086  
  8430.000000   2136693   2136751   2137238   2138024   2138940  
  8420.000000   2139762   2140323   2140500   2140292   2139788  
  8410.000000   2139172   2138659   2138425   2138553   2138979  
  8400.000000   2139519   2139897   2139835   2139143   2137809  
  8390.000000   2136004   2134037   2132270   2130999   2130386  
  8380.000000   2130403   2130883   2131590   2132329   2132985  
  8370.000000   2133552   2134074   2134591   2135079   2135436  
  8360.000000   2135519   2135199   2134435   2133294   2131943  
  8350.000000   2130580   2129379   2128446   2127800   2127410  
  8340.000000   2127207   2127128   2127115   2127103   2127004  
  8330.000000   2126707   2126116   2125192   2124001   2122710  
  8320.000000   2121547   2120733   2120398   2120546   2121044  
  8310.000000   2121697   2122317   2122798   2123127   2123358  
  8300.000000   2123539   2123648   2123568   2123116   2122128  
  8290.000000   2120531   2118406   2115973   2113524   2111353  
  8280.000000   2109644   2108468   2107754   2107375   2107177  
  8270.000000   2107047   2106903   2106684   2106321   2105730  
  8260.000000   2104836   2103593   2102040   2100291   2098535  
  8250.000000   2096968   2095737   2094899   2094398   2094123  
  8240.000000   2093928   2093720   2093448   2093132   2092808  
  8230.000000   2092509   2092213   2091844   2091287   2090421  
  8220.000000   2089163   2087486   2085440   2083131   2080703  
  8210.000000   2078315   2076100   2074160   2072531   2071211  
  8200.000000   2070141   2069252   2068463   2067715   2066965  
  8190.000000   2066194   2065382   2064501   2063506   2062349  
  8180.000000   2060999   2059465   2057809   2056133   2054557  
  8170.000000   2053173   2052007   2051004   2050037   2048958  
  8160.000000   2047648   2046064   2044262   2042366   2040537  
  8150.000000   2038904   2037529   2036384   2035370   2034368  
  8140.000000   2033288   2032113   2030897   2029747   2028772  
  8130.000000   2028043   2027552   2027208   2026866   2026355  
  8120.000000   2025542   2024345   2022778   2020917   2018900  
  8110.000000   2016868   2014952   2013235   2011761   2010531  
  8100.000000   2009527   2008729   2008117   2007682   2007404  
  8090.000000   2007264   2007212   2007205   2007200   2007179  
  8080.000000   2007154   2007150   2007180   2007209   2007145  
  8070.000000   2006837   2006123   2004872   2003050   2000744  
  8060.000000   1998157   1995561   1993224   1991333   1989948  
  8050.000000   1989001   1988332   1987758   1987143   1986428  
  8040.000000   1985641   1984857   1984158   1983596   1983177  
  8030.000000   1982878   1982674   1982555   1982543   1982665  
  8020.000000   1982927   1983280   1983620   1983790   1983633  
  8010.000000   1983032   1981951   1980443   1978648   1976752  
  8000.000000   1974944   1973387   1972175   1971342   1970843  
  7990.000000   1970588   1970441   1970268   1969954   1969435  
  7980.000000   1968717   1967868   1967006   1966240   1965646  
  7970.000000   1965218   1964881   1964513   1964001   1963293  
  7960.000000   1962427   1961527   1960757   1960264   1960112  
  7950.000000   1960255   1960542   1960758   1960697   1960214  
  7940.000000   1959278   1957964   1956434   1954875   1953460  
  7930.000000   1952294   1951411   1950767   1950278   1949842  
  7920.000000   1949378   1948839   1948230   1947599   1947018  
  7910.000000   1946565   1946303   1946264   1946452   1946836  
  7900.000000   1947372   1947994   1948632   1949206   1949640  
  7890.000000   1949867   1949852   1949601   1949175   1948669  
  7880.000000   1948196   1947836   1947615   1947491   1947366  
  7870.000000   1947138   1946745   1946207   1945626   1945160  
  7860.000000   1944952   1945075   1945487   1946038   1946522  
  7850.000000   1946744   1946596   1946089   1945348   1944561  
  7840.000000   1943915   1943535   1943456   1943624   1943927  
  7830.000000   1944241   1944457   1944513   1944382   1944083  
  7820.000000   1943655   1943157   1942653   1942202   1941842  
  7810.000000   1941573   1941355   1941106   1940730   1940148  
  7800.000000   1939319   1938277   1937104   1935933   1934891  
  7790.000000   1934086   1933567   1933335   1933332   1933466  
  7780.000000   1933624   1933684   1933542   1933111   1932356  
  7770.000000   1931287   1929975   1928533   1927094   1925790  
  7760.000000   1924719   1923945   1923483   1923322   1923419  
  7750.000000   1923719   1924138   1924566   1924874   1924927  
  7740.000000   1924626   1923928   1922879   1921594   1920238  
  7730.000000   1918966   1917881   1917014   1916326   1915752  
  7720.000000   1915233   1914749   1914315   1913955   1913663  
  7710.000000   1913383   1913011   1912432   1911575   1910443  
  7700.000000   1909146   1907850   1906741   1905947   1905499  
  7690.000000   1905324   1905275   1905191   1904953   1904530  
  7680.000000   1903972   1903388   1902897   1902583   1902473  
  7670.000000   1902532   1902684   1902831   1902884   1902765  
  7660.000000   1902435   1901879   1901117   1900201   1899205  
  7650.000000   1898217   1897322   1896589   1896056   1895731  
  7640.000000   1895590   1895595   1895692   1895826   1895946  
  7630.000000   1895994   1895925   1895689   1895264   1894642  
  7620.000000   1893856   1892959   1892034   1891172   1890464  
  7610.000000   1889990   1889807   1889944   1890386   1891082  
  7600.000000   1891938   1892830   1893629   1894221   1894538  
  7590.000000   1894565   1894353   1893985   1893560   1893148  
  7580.000000   1892785   1892459   1892138   1891788   1891408  
  7570.000000   1891031   1890718   1890538   1890533   1890707  
  7560.000000   1891011   1891371   1891710   1891975   1892162  
  7550.000000   1892307   1892479   1892742   1893133   1893639  
  7540.000000   1894208   1894755   1895203   1895496   1895629  
  7530.000000   1895640   1895602   1895596   1895689   1895916  
  7520.000000   1896279   1896751   1897300   1897893   1898517  
  7510.000000   1899168   1899853   1900571   1901314   1902062  
  7500.000000   1902796   1903503   1904192   1904887   1905629  
  7490.000000   1906455   1907392   1908446   1909600   1910813  
  7480.000000   1912034   1913208   1914293   1915256   1916091  
  7470.000000   1916805   1917434   1918014   1918593   1919197  
  7460.000000   1919846   1920532   1921240   1921958   1922693  
  7450.000000   1923477   1924366   1925427   1926718   1928269  
  7440.000000   1930065   1932052   1934148   1936262   1938311  
  7430.000000   1940219   1941936   1943423   1944672   1945692  
  7420.000000   1946533   1947271   1948015   1948870   1949920  
  7410.000000   1951194   1952664   1954252   1955857   1957402  
  7400.000000   1958851   1960235   1961625   1963106   1964743  
  7390.000000   1966548   1968480   1970455   1972379   1974170  
  7380.000000   1975779   1977195   1978440   1979552   1980573  
  7370.000000   1981545   1982508   1983501   1984557   1985695  
  7360.000000   1986917   1988203   1989517   1990826   1992103  
  7350.000000   1993355   1994609   1995912   1997302   1998797  
  7340.000000   2000381   2002005   2003605   2005119   2006504  
  7330.000000   2007744   2008851   2009853   2010794   2011707  
  7320.000000   2012619   2013540   2014468   2015393   2016307  
  7310.000000   2017213   2018127   2019086   2020133   2021310  
  7300.000000   2022635   2024104   2025676   2027288   2028874  
  7290.000000   2030381   2031787   2033099   2034346   2035555  
  7280.000000   2036739   2037884   2038959   2039927   2040766  
  7270.000000   2041481   2042110   2042711   2043356   2044106  
  7260.000000   2045006   2046074   2047311   2048696   2050201  
  7250.000000   2051781   2053400   2055013   2056602   2058155  
  7240.000000   2059701   2061269   2062910   2064647   2066497  
  7230.000000   2068435   2070437   2072465   2074520   2076607  
  7220.000000   2078773   2081052   2083481   2086054   2088754  
  7210.000000   2091529   2094340   2097152   2099969   2102807  
  7200.000000   2105716   2108729   2111888   2115196   2118649  
  7190.000000   2122204   2125822   2129439   2133016   2136519  
  7180.000000   2139955   2143355   2146782   2150297   2153955  
  7170.000000   2157759   2161691   2165673   2169639   2173520  
  7160.000000   2177304   2181012   2184711   2188467   2192349  
  7150.000000   2196390   2200621   2205039   2209665   2214492  
  7140.000000   2219530   2224745   2230097   2235502   2240900  
  7130.000000   2246233   2251520   2256815   2262242   2267908  
  7120.000000   2273914   2280268   2286925   2293756   2300627  
  7110.000000   2307406   2314026   2320464   2326759   2332965  
  7100.000000   2339160   2345403   2351756   2358252   2364916  
  7090.000000   2371743   2378702   2385733   2392762   2399715  
  7080.000000   2406542   2413226   2419791   2426277   2432734  
  7070.000000   2439178   2445602   2451964   2458227   2464368  
  7060.000000   2470405   2476403   2482452   2488651   2495069  
  7050.000000   2501729   2508593   2515577   2522565   2529442  
  7040.000000   2536121   2542559   2548764   2554789   2560706  
  7030.000000   2566590   2572489   2578425   2584386   2590358  
  7020.000000   2596318   2602279   2608254   2614275   2620340  
  7010.000000   2626425   2632454   2638342   2643995   2649366  
  7000.000000   2654450   2659303   2663994   2668608   2673186  
  6990.000000   2677759   2682317   2686867   2691405   2695956  
  6980.000000   2700520   2705091   2709604   2713981   2718116  
  6970.000000   2721949   2725455   2728685   2731720   2734666  
  6960.000000   2737590   2740533   2743479   2746412   2749296  
  6950.000000   2752139   2754945   2757740   2760517   2763257  
  6940.000000   2765907   2768424   2770769   2772944   2774964  
  6930.000000   2776863   2778653   2780339   2781902   2783339  
  6920.000000   2784657   2785906   2787145   2788443   2789826  
  6910.000000   2791293   2792793   2794269   2795662   2796950  
  6900.000000   2798135   2799249   2800324   2801390   2802459  
  6890.000000   2803542   2804643   2805779   2806956   2808176  
  6880.000000   2809415   2810633   2811782   2812830   2813771  
  6870.000000   2814631   2815453   2816275   2817105   2817919  
  6860.000000   2818668   2819314   2819843   2820297   2820748  
  6850.000000   2821286   2821972   2822825   2823803   2824832  
  6840.000000   2825820   2826701   2827439   2828037   2828520  
  6830.000000   2828923   2829274   2829590   2829877   2830137  
  6820.000000   2830359   2830534   2830640   2830668   2830608  
  6810.000000   2830482   2830318   2830170   2830076   2830061  
  6800.000000   2830108   2830178   2830213   2830172   2830037  
  6790.000000   2829824   2829560   2829270   2828954   2828588  
  6780.000000   2828140   2827593   2826968   2826326   2825747  
  6770.000000   2825304   2825025   2824884   2824814   2824734  
  6760.000000   2824584   2824348   2824058   2823771   2823541  
  6750.000000   2823400   2823345   2823348   2823373   2823392  
  6740.000000   2823384   2823335   2823225   2823027   2822712  
  6730.000000   2822271   2821720   2821110   2820508   2819975  
  6720.000000   2819536   2819176   2818838   2818461   2818000  
  6710.000000   2817456   2816865   2816284   2815757   2815300  
  6700.000000   2814884   2814463   2813986   2813430   2812802  
  6690.000000   2812138   2811474   2810838   2810225   2809613  
  6680.000000   2808961   2808237   2807414   2806484   2805442  
  6670.000000   2804298   2803063   2801770   2800463   2799201  
  6660.000000   2798031   2796976   2796011   2795073   2794063  
  6650.000000   2792899   2791531   2789978   2788310   2786636  
  6640.000000   2785052   2783625   2782358   2781216   2780129  
  6630.000000   2779033   2777881   2776658   2775365   2774022  
  6620.000000   2772641   2771238   2769818   2768389   2766950  
  6610.000000   2765496   2764011   2762473   2760859   2759162  
  6600.000000   2757396   2755602   2753830   2752127   2750511  
  6590.000000   2748972   2747468   2745953   2744387   2742756  
  6580.000000   2741067   2739342   2737598   2735842   2734069  
  6570.000000   2732273   2730460   2728653   2726889   2725201  
  6560.000000   2723605   2722086   2720604   2719111   2717565  
  6550.000000   2715954   2714291   2712603   2710917   2709240  
  6540.000000   2707563   2705868   2704143   2702400   2700672  
  6530.000000   2699009   2697452   2696024   2694720   2693509  
  6520.000000   2692350   2691200   2690030   2688814   2687538  
  6510.000000   2686183   2684739   2683203   2681596   2679961  
  6500.000000   2678359   2676851   2675482   2674266   2673180  
  6490.000000   2672179   2671206   2670219   2669190   2668111  
  6480.000000   2666982   2665801   2664562   2663255   2661877  
  6470.000000   2660437   2658964   2657496   2656073   2654725  
  6460.000000   2653461   2652270   2651129   2650008   2648878  
  6450.000000   2647716   2646509   2645248   2643942   2642609  
  6440.000000   2641282   2639998   2638796   2637699   2636713  
  6430.000000   2635819   2634990   2634196   2633426   2632680  
  6420.000000   2631982   2631349   2630796   2630310   2629867  
  6410.000000   2629429   2628968   2628466   2627932   2627380  
  6400.000000   2626837   2626317   2625835   2625392   2624991  
  6390.000000   2624633   2624320   2624045   2623797   2623556  
  6380.000000   2623300   2623014   2622699   2622372   2622058  
  6370.000000   2621780   2621545   2621338   2621127   2620876  
  6360.000000   2620557   2620163   2619703   2619203   2618682  
  6350.000000   2618151   2617606   2617036   2616425   2615768  
  6340.000000   2615060   2614306   2613506   2612661   2611765  
  6330.000000   2610828   2609862   2608898   2607963   2607088  
  6320.000000   2606274   2605509   2604756   2603979   2603146  
  6310.000000   2602251   2601297   2600306   2599290   2598252  
  6300.000000   2597177   2596048   2594846   2593572   2592235  
  6290.000000   2590864   2589481   2588108   2586749   2585407  
  6280.000000   2584074   2582754   2581446   2580156   2578876  
  6270.000000   2577595   2576290   2574941   2573527   2572044  
  6260.000000   2570496   2568893   2567242   2565551   2563816  
  6250.000000   2562044   2560247   2558455   2556704   2555038  
  6240.000000   2553483   2552046   2550703   2549415   2548125  
  6230.000000   2546783   2545350   2543809   2542163   2540436  
  6220.000000   2538664   2536890   2535159   2533505   2531947  
  6210.000000   2530482   2529089   2527738   2526395   2525041  
  6200.000000   2523674   2522310   2520974   2519684   2518448  
  6190.000000   2517248   2516061   2514851   2513602   2512306  
  6180.000000   2510979   2509646   2508335   2507066   2505852  
  6170.000000   2504696   2503596   2502552   2501559   2500614  
  6160.000000   2499708   2498827   2497955   2497077   2496184  
  6150.000000   2495272   2494342   2493395   2492430   2491441  
  6140.000000   2490424   2489381   2488327   2487286   2486289  
  6130.000000   2485365   2484533   2483791   2483126   2482509  
  6120.000000   2481910   2481298   2480655   2479969   2479245  
  6110.000000   2478492   2477738   2477009   2476338   2475745  
  6100.000000   2475245   2474827   2474477   2474167   2473882  
  6090.000000   2473615   2473382   2473205   2473114   2473116  
  6080.000000   2473214   2473379   2473586   2473801   2474021  
  6070.000000   2474243   2474496   2474799   2475187   2475668  
  6060.000000   2476259   2476957   2477771   2478694   2479734  
  6050.000000   2480875   2482108   2483407   2484760   2486150  
  6040.000000   2487585   2489073   2490641   2492295   2494050  
  6030.000000   2495891   2497814   2499796   2501836   2503923  
  6020.000000   2506062   2508238   2510439   2512636   2514810  
  6010.000000   2516942   2519044   2521135   2523261   2525456  
  6000.000000   2527755   2530160   2532666   2535241   2537867  
  5990.000000   2540514   2543178   2545850   2548541   2551253  
  5980.000000   2554003   2556800   2559669   2562620   2565674  
  5970.000000   2568828   2572077   2575396   2578766   2582163  
  5960.000000   2585589   2589043   2592546   2596105   2599730  
  5950.000000   2603407   2607131   2610888   2614682   2618523  
  5940.000000   2622433   2626427   2630513   2634683   2638915  
  5930.000000   2643188   2647476   2651765   2656035   2660267  
  5920.000000   2664419   2668444   2672282   2675890   2679240  
  5910.000000   2682343   2685231   2687956   2690564   2693099  
  5900.000000   2695584   2698042   2700486   2702951   2705460  
  5890.000000   2708048   2710725   2713495   2716327   2719192  
  5880.000000   2722043   2724847   2727573   2730195   2732692  
  5870.000000   2735041   2737228   2739249   2741127   2742899  
  5860.000000   2744626   2746365   2748164   2750048   2752024  
  5850.000000   2754085   2756225   2758441   2760741   2763130  
  5840.000000   2765613   2768179   2770817   2773508   2776251  
  5830.000000   2779047   2781914   2784855   2787869   2790922  
  5820.000000   2793974   2796976   2799899   2802732   2805495  
  5810.000000   2808218   2810928   2813642   2816349   2819044  
  5800.000000   2821702   2824345   2826977   2829653   2832371  
  5790.000000   2835149   2837919   2840614   2843094   2845243  
  5780.000000   2846907   2847984   2848367   2848022   2846936  
  5770.000000   2845183   2842866   2840159   2837230   2834266  
  5760.000000   2831386   2828688   2826186   2823889   2821763  
  5750.000000   2819804   2818001   2816367   2814898   2813585  
  5740.000000   2812394   2811278   2810194   2809105   2808002  
  5730.000000   2806882   2805764   2804655   2803568   2802498  
  5720.000000   2801452   2800427   2799439   2798494   2797603  
  5710.000000   2796762   2795965   2795199   2794460   2793750  
  5700.000000   2793083   2792480   2791951   2791499   2791108  
  5690.000000   2790759   2790419   2790074   2789706   2789318  
  5680.000000   2788900   2788453   2787956   2787393   2786728  
  5670.000000   2785932   2784955   2783759   2782292   2780524  
  5660.000000   2778437   2776059   2773445   2770694   2767909  
  5650.000000   2765194   2762615   2760203   2757946   2755814  
  5640.000000   2753769   2751785   2749854   2747981   2746178  
  5630.000000   2744452   2742808   2741241   2739753   2738338  
  5620.000000   2737002   2735735   2734530   2733357   2732194  
  5610.000000   2731014   2729810   2728589   2727379   2726206  
  5600.000000   2725100   2724071   2723120   2722232   2721395  
  5590.000000   2720594   2719819   2719061   2718308   2717548  
  5580.000000   2716768   2715962   2715135   2714302   2713480  
  5570.000000   2712683   2711908   2711136   2710340   2709491  
  5560.000000   2708571   2707578   2706523   2705428   2704308  
  5550.000000   2703176   2702036   2700900   2699778   2698696  
  5540.000000   2697674   2696726   2695845   2695008   2694177  
  5530.000000   2693314   2692394   2691415   2690388   2689336  
  5520.000000   2688276   2687215   2686147   2685059   2683941  
  5510.000000   2682790   2681605   2680392   2679148   2677869  
  5500.000000   2676549   2675195   2673821   2672461   2671145  
  5490.000000   2669895   2668704   2667543   2666363   2665121  
  5480.000000   2663785   2662355   2660849   2659302   2657736  
  5470.000000   2656166   2654584   2652981   2651342   2649667  
  5460.000000   2647960   2646228   2644468   2642672   2640827  
  5450.000000   2638928   2636987   2635036   2633119   2631274  
  5440.000000   2629526   2627868   2626284   2624742   2623229  
  5430.000000   2621735   2620272   2618840   2617441   2616055  
  5420.000000   2614676   2613299   2611960   2610705   2609607  
  5410.000000   2608708   2608032   2607540   2607190   2606915  
  5400.000000   2606694   2606514   2606419   2606441   2606626  
  5390.000000   2606972   2607479   2608108   2608857   2609715  
  5380.000000   2610724   2611902   2613290   2614872   2616650  
  5370.000000   2618570   2620632   2622799   2625111   2627561  
  5360.000000   2630211   2633050   2636136   2639456   2643086  
  5350.000000   2647034   2651400   2656192   2661488   2667243  
  5340.000000   2673491   2680154   2687271   2694784   2702765  
  5330.000000   2711167   2720066   2729399   2739233   2749515  
  5320.000000   2760352   2771741   2783839   2796654   2810330  
  5310.000000   2824819   2840202   2856376   2873398   2891185  
  5300.000000   2909834   2929314   2949768   2971187   2993697  
  5290.000000   3017241   3041857   3067388   3093766   3120781  
  5280.000000   3148369   3176411   3204979   3234114   3263983  
  5270.000000   3294638   3326119   3358286   3390933   3423783  
  5260.000000   3456602   3489259   3521729   3554093   3586406  
  5250.000000   3618706   3650859   3682703   3713932   3744376  
  5240.000000   3773831   3802344   3829912   3856730   3882828  
  5230.000000   3908344   3933180   3957335   3980606   4002966  
  5220.000000   4024261   4044584   4063914   4082465   4100278  
  5210.000000   4117550   4134228   4150358   4165732   4180296  
  5200.000000   4193837   4206393   4217904   4228548   4238355  
  5190.000000   4247504   4255961   4263806   4270927   4277366  
  5180.000000   4283033   4288020   4292288   4295944   4298937  
  5170.000000   4301338   4303077   4304227   4304757   4304778  
  5160.000000   4304287   4303378   4302007   4300208   4297904  
  5150.000000   4295132   4291858   4288175   4284103   4279742  
  5140.000000   4275089   4270195   4265019   4259589   4253880  
  5130.000000   4247943   4241786   4235466   4228984   4222373  
  5120.000000   4215620   4208754   4201781   4194749   4187679  
  5110.000000   4180611   4173545   4166488   4159423   4152355  
  5100.000000   4145286   4138245   4131250   4124325   4117465  
  5090.000000   4110660   4103883   4097117   4090349   4083585  
  5080.000000   4076831   4070097   4063377   4056661   4049924  
  5070.000000   4043158   4036347   4029505   4022631   4015741  
  5060.000000   4008821   4001863   3994835   3987721   3980499  
  5050.000000   3973175   3965750   3958244   3950665   3943025  
  5040.000000   3935327   3927581   3919796   3911990   3904178  
  5030.000000   3896377   3888596   3880838   3873107   3865407  
  5020.000000   3857755   3850171   3842688   3835328   3828119  
  5010.000000   3821062   3814170   3807425   3800832   3794373  
  5000.000000   3788062   3781887   3775871   3770005   3764322  
  4990.000000   3758819   3753536   3748470   3743657   3739081  
  4980.000000   3734765   3730676   3726836   3723218   3719867  
  4970.000000   3716779   3714017   3711578   3709516   3707800  
  4960.000000   3706457   3705439   3704772   3704417   3704425  
  4950.000000   3704772   3705514   3706619   3708123   3709976  
  4940.000000   3712203   3714756   3717674   3720930   3724577  
  4930.000000   3728592   3733026   3737844   3743082   3748693  
  4920.000000   3754704   3761063   3767787   3774820   3782169  
  4910.000000   3789786   3797678   3805816   3814215   3822856  
  4900.000000   3831743   3840847   3850140   3859574   3869096  
  4890.000000   3878656   3888193   3897669   3907022   3916219  
  4880.000000   3925194   3933917   3942313   3950355   3957962  
  4870.000000   3965107   3971704   3977740   3983145   3987941  
  4860.000000   3992103   3995700   3998746   4001333   4003480  
  4850.000000   4005270   4006709   4007861   4008728   4009370  
  4840.000000   4009791   4010050   4010154   4010153   4010058  
  4830.000000   4009920   4009763   4009639   4009578   4009614  
  4820.000000   4009758   4010009   4010350   4010756   4011211  
  4810.000000   4011697   4012219   4012781   4013402   4014095  
  4800.000000   4014881   4015767   4016772   4017895   4019144  
  4790.000000   4020504   4021967   4023505   4025101   4026735  
  4780.000000   4028407   4030118   4031885   4033714   4035607  
  4770.000000   4037544   4039493   4041415   4043274   4045047  
  4760.000000   4046728   4048328   4049861   4051345   4052786  
  4750.000000   4054183   4055526   4056810   4058028   4059187  
  4740.000000   4060294   4061363   4062404   4063424   4064424  
  4730.000000   4065403   4066357   4067282   4068178   4069043  
  4720.000000   4069883   4070699   4071506   4072315   4073153  
  4710.000000   4074043   4075022   4076113   4077352   4078751  
  4700.000000   4080328   4082078   4084001   4086079   4088301  
  4690.000000   4090648   4093113   4095686   4098368   4101150  
  4680.000000   4104026   4106965   4109937   4112886   4115772  
  4670.000000   4118546   4121200   4123731   4126178   4128585  
  4660.000000   4131016   4133524   4136163   4138967   4141965  
  4650.000000   4145166   4148573   4152172   4155935   4159825  
  4640.000000   4163794   4167801   4171805   4175787   4179726  
  4630.000000   4183616   4187436   4191169   4194773   4198213  
  4620.000000   4201434   4204407   4207092   4209485   4211567  
  4610.000000   4213355   4214842   4216065   4217035   4217814  
  4600.000000   4218432   4218965   4219434   4219888   4220308  
  4590.000000   4220691   4220971   4221114   4221045   4220736  
  4580.000000   4220138   4219253   4218068   4216613   4214907  
  4570.000000   4213004   4210937   4208765   4206512   4204216  
  4560.000000   4201870   4199482   4197024   4194496   4191881  
  4550.000000   4189191   4186431   4183623   4180776   4177904  
  4540.000000   4175010   4172101   4169187   4166277   4163388  
  4530.000000   4160527   4157707   4154917   4152164   4149432  
  4520.000000   4146745   4144104   4141562   4139133   4136884  
  4510.000000   4134816   4132992   4131407   4130139   4129197  
  4500.000000   4128692   4128645   4129172   4130273   4132031  
  4490.000000   4134408   4137466   4141156   4145553   4150620  
  4480.000000   4156446   4162991   4170327   4178390   4187225  
  4470.000000   4196752   4207002   4217894   4229450   4241580  
  4460.000000   4254285   4267454   4281062   4294995   4309223  
  4450.000000   4323655   4338283   4353056   4367987   4383056  
  4440.000000   4398275   4413631   4429114   4444703   4460354  
  4430.000000   4476034   4491668   4507219   4522590   4537743  
  4420.000000   4552572   4567047   4581063   4594597   4607545  
  4410.000000   4619884   4631507   4642389   4652434   4661646  
  4400.000000   4669981   4677508   4684263   4690390   4695983  
  4390.000000   4701220   4706204   4711091   4715952   4720890  
  4380.000000   4725931   4731126   4736468   4741981   4747654  
  4370.000000   4753504   4759526   4765733   4772112   4778654  
  4360.000000   4785327   4792105   4798934   4805791   4812595  
  4350.000000   4819332   4825897   4832294   4838431   4844373  
  4340.000000   4850091   4855691   4861123   4866352   4871086  
  4330.000000   4874945   4877330   4877664   4875413   4870345  
  4320.000000   4862541   4852502   4840998   4828981   4817332  
  4310.000000   4806780   4797730   4790331   4784472   4779940  
  4300.000000   4776477   4773873   4771990   4770733   4770067  
  4290.000000   4769913   4770249   4770979   4772094   4773530  
  4280.000000   4775310   4777410   4779841   4782578   4785591  
  4270.000000   4788847   4792284   4795836   4799361   4802664  
  4260.000000   4805446   4807366   4808056   4807238   4804762  
  4250.000000   4800698   4795293   4788979   4782226   4775527  
  4240.000000   4769232   4763593   4758660   4754400   4750659  
  4230.000000   4747284   4744100   4740981   4737832   4734598  
  4220.000000   4731283   4727904   4724553   4721304   4718300  
  4210.000000   4715625   4713402   4711663   4710455   4709738  
  4200.000000   4709487   4709616   4710074   4710768   4711657  
  4190.000000   4712664   4713781   4714960   4716230   4717567  
  4180.000000   4719024   4720586   4722304   4724162   4726211  
  4170.000000   4728442   4730925   4733675   4736782   4740265  
  4160.000000   4744203   4748588   4753464   4758787   4764580  
  4150.000000   4770787   4777433   4784464   4791917   4799749  
  4140.000000   4808006   4816652   4825745   4835248   4845217  
  4130.000000   4855609   4866468   4877742   4889474   4901626  
  4120.000000   4914256   4927354   4940991   4955165   4969929  
  4110.000000   4985259   5001164   5017577   5034458   5051704  
  4100.000000   5069244   5086968   5104812   5122704   5140623  
  4090.000000   5158557   5176519   5194527   5212585   5230709  
  4080.000000   5248875   5267088   5285299   5303504   5321618  
  4070.000000   5339601   5357313   5374681   5391549   5407877  
  4060.000000   5423558   5438623   5453015   5466793   5479894  
  4050.000000   5492373   5504167   5515361   5525927   5535994  
  4040.000000   5545537   5554656   5563264   5571391   5578898  
  4030.000000   5585794   5591956   5597418   5602099   5606047  
  4020.000000   5609184   5611585   5613252   5614295   5614712  
  4010.000000   5614661   5614226   5613436   5612094   5610231  
  4000.000000   5608097  
##END= 
