##TITLE= Sample 018 By ssteindl date Donnerstag, November 22 2018
##JCAMP-DX= 4.24
##DATA TYPE= INFRARED SPECTRUM
##ORIGIN= Exported PE Spectrum Data File
##OWNER= Sandra Steindl
##DATE= 18/11/22
##TIME= 12:56:44.00
##SPECTROMETER/DATA SYSTEM= PERKIN-ELMER Frontier FT-IR/NIR IR
##INSTRUMENT PARAMETERS=
  APODIZATION=stark
  DETECTOR=INGAAS
##RESOLUTION= 16.000000
##DELTAX= -2.000000
##XUNITS= 1/CM
##YUNITS= A
##XFACTOR= 1.00
##YFACTOR= 0.00000011920928955078
##FIRSTX= 10000.00
##LASTX= 4000.00
##NPOINTS= 3001
##FIRSTY= 0.254592
##MAXY= 0.615473
##MINY= 0.209809
##XYDATA= (X++(Y..Y))
 10000.000000   2135669   2145421   2154891   2163224   2169133  
  9990.000000   2171858   2171504   2169076   2165737   2162510  
  9980.000000   2159936   2158024   2156211   2153700   2149868  
  9970.000000   2144557   2138100   2131199   2124602   2118950  
  9960.000000   2114561   2111667   2110431   2111182   2114261  
  9950.000000   2119894   2127927   2137666   2147976   2157443  
  9940.000000   2164797   2169105   2170038   2167776   2162984  
  9930.000000   2156563   2149541   2142956   2137729   2134641  
  9920.000000   2134085   2136045   2139872   2144469   2148439  
  9910.000000   2150555   2150096   2147065   2142136   2136286  
  9900.000000   2130479   2125269   2120859   2117170   2114177  
  9890.000000   2112061   2111216   2112095   2114882   2119368  
  9880.000000   2124865   2130494   2135424   2139194   2141745  
  9870.000000   2143315   2144198   2144506   2144181   2143027  
  9860.000000   2141039   2138425   2135674   2133231   2131246  
  9850.000000   2129383   2126904   2123097   2117676   2111223  
  9840.000000   2105044   2100896   2100189   2103529   2110302  
  9830.000000   2118968   2127506   2134161   2137913   2138644  
  9820.000000   2136962   2133713   2129638   2125058   2120011  
  9810.000000   2114388   2108238   2101809   2095510   2089708  
  9800.000000   2084603   2080227   2076540   2073620   2071664  
  9790.000000   2070965   2071641   2073497   2075962   2078270  
  9780.000000   2079836   2080541   2080907   2081838   2084210  
  9770.000000   2088336   2093680   2098955   2102576   2103310  
  9760.000000   2100839   2095908   2090098   2085129   2082203  
  9750.000000   2081484   2082112   2082605   2081530   2078110  
  9740.000000   2072524   2065840   2059545   2055071   2053286  
  9730.000000   2054393   2057952   2063160   2069113   2074973  
  9720.000000   2080062   2083846   2085948   2086194   2084709  
  9710.000000   2081955   2078726   2075907   2074246   2074022  
  9700.000000   2074946   2076228   2076854   2075999   2073341  
  9690.000000   2069221   2064517   2060328   2057561   2056608  
  9680.000000   2057215   2058631   2059929   2060409   2059874  
  9670.000000   2058716   2057709   2057715   2059270   2062402  
  9660.000000   2066556   2070803   2074174   2075937   2075850  
  9650.000000   2074096   2071190   2067685   2064016   2060386  
  9640.000000   2056836   2053367   2050037   2047044   2044599  
  9630.000000   2042922   2042036   2041893   2042321   2043234  
  9620.000000   2044608   2046479   2048808   2051305   2053434  
  9610.000000   2054409   2053527   2050338   2044955   2038023  
  9600.000000   2030626   2023957   2018972   2016170   2015459  
  9590.000000   2016368   2018209   2020403   2022545   2024445  
  9580.000000   2026011   2027122   2027635   2027343   2026154  
  9570.000000   2024058   2021249   2017980   2014563   2011282  
  9560.000000   2008384   2006150   2004848   2004807   2006210  
  9550.000000   2009065   2013020   2017398   2021322   2023922  
  9540.000000   2024631   2023263   2020091   2015624   2010485  
  9530.000000   2005168   2000059   1995429   1991581   1988877  
  9520.000000   1987658   1988136   1990146   1993202   1996515  
  9510.000000   1999340   2001208   2002124   2002546   2003106  
  9500.000000   2004314   2006208   2008319   2009778   2009736  
  9490.000000   2007717   2003913   1999132   1994513   1991097  
  9480.000000   1989414   1989390   1990359   1991451   1991838  
  9470.000000   1991107   1989313   1986959   1984761   1983374  
  9460.000000   1983180   1984126   1985778   1987383   1988150  
  9450.000000   1987382   1984778   1980473   1975145   1969837  
  9440.000000   1965722   1963760   1964352   1967258   1971642  
  9430.000000   1976433   1980671   1983824   1985905   1987371  
  9420.000000   1988873   1990874   1993410   1995985   1997798  
  9410.000000   1998069   1996416   1993046   1988680   1984383  
  9400.000000   1981145   1979702   1980230   1982425   1985512  
  9390.000000   1988529   1990532   1990816   1989053   1985303  
  9380.000000   1979994   1973805   1967518   1961862   1957342  
  9370.000000   1954190   1952351   1951607   1951675   1952326  
  9360.000000   1953401   1954785   1956316   1957682   1958449  
  9350.000000   1958093   1956300   1953020   1948693   1944048  
  9340.000000   1939998   1937312   1936410   1937277   1939470  
  9330.000000   1942397   1945480   1948408   1951116   1953723  
  9320.000000   1956353   1958973   1961335   1962963   1963364  
  9310.000000   1962136   1959235   1954936   1949843   1944701  
  9300.000000   1940218   1936948   1935113   1934713   1935472  
  9290.000000   1937079   1939165   1941460   1943755   1945924  
  9280.000000   1947867   1949425   1950378   1950422   1949308  
  9270.000000   1946879   1943202   1938569   1933513   1928721  
  9260.000000   1924882   1922528   1921870   1922768   1924762  
  9250.000000   1927177   1929273   1930415   1930237   1928714  
  9240.000000   1926165   1923137   1920295   1918264   1917520  
  9230.000000   1918255   1920358   1923439   1926962   1930371  
  9220.000000   1933187   1935074   1935853   1935529   1934257  
  9210.000000   1932291   1929939   1927516   1925350   1923729  
  9200.000000   1922845   1922752   1923305   1924246   1925200  
  9190.000000   1925831   1925869   1925229   1924017   1922462  
  9180.000000   1920858   1919421   1918286   1917413   1916652  
  9170.000000   1915800   1914681   1913259   1911605   1909988  
  9160.000000   1908765   1908371   1909126   1911147   1914241  
  9150.000000   1917899   1921383   1923818   1924451   1922812  
  9140.000000   1918937   1913299   1906749   1900273   1894819  
  9130.000000   1891039   1889166   1889032   1890177   1892043  
  9120.000000   1894076   1895901   1897334   1898410   1899276  
  9110.000000   1900115   1901090   1902251   1903597   1904989  
  9100.000000   1906286   1907295   1907891   1908000   1907626  
  9090.000000   1906871   1905887   1904898   1904130   1903817  
  9080.000000   1904118   1905114   1906727   1908756   1910854  
  9070.000000   1912625   1913675   1913762   1912859   1911179  
  9060.000000   1909089   1906999   1905216   1903857   1902816  
  9050.000000   1901836   1900647   1899092   1897199   1895163  
  9040.000000   1893226   1891580   1890239   1889080   1887898  
  9030.000000   1886555   1885080   1883691   1882736   1882500  
  9020.000000   1883069   1884213   1885470   1886248   1886085  
  9010.000000   1884787   1882566   1879908   1877423   1875618  
  9000.000000   1874756   1874818   1875553   1876657   1877906  
  8990.000000   1879243   1880726   1882442   1884372   1886330  
  8980.000000   1887963   1888868   1888770   1887602   1885590  
  8970.000000   1883141   1880753   1878818   1877511   1876772  
  8960.000000   1876369   1876045   1875632   1875125   1874672  
  8950.000000   1874473   1874669   1875248   1876019   1876697  
  8940.000000   1877015   1876868   1876370   1875844   1875706  
  8930.000000   1876315   1877817   1880087   1882740   1885234  
  8920.000000   1887017   1887677   1887061   1885266   1882605  
  8910.000000   1879491   1876373   1873624   1871497   1870103  
  8900.000000   1869407   1869278   1869492   1869851   1870194  
  8890.000000   1870507   1870861   1871428   1872360   1873706  
  8880.000000   1875347   1876959   1878150   1878503   1877794  
  8870.000000   1875999   1873365   1870279   1867169   1864382  
  8860.000000   1862132   1860529   1859620   1859462   1860105  
  8850.000000   1861590   1863832   1866596   1869457   1871931  
  8840.000000   1873622   1874347   1874236   1873635   1873030  
  8830.000000   1872784   1873043   1873638   1874203   1874326  
  8820.000000   1873749   1872491   1870837   1869252   1868176  
  8810.000000   1867903   1868464   1869676   1871222   1872780  
  8800.000000   1874124   1875147   1875856   1876305   1876558  
  8790.000000   1876658   1876639   1876546   1876451   1876439  
  8780.000000   1876581   1876904   1877376   1877927   1878474  
  8770.000000   1878966   1879391   1879779   1880161   1880534  
  8760.000000   1880840   1880979   1880854   1880421   1879733  
  8750.000000   1878924   1878198   1877741   1877679   1878018  
  8740.000000   1878651   1879392   1880053   1880510   1880759  
  8730.000000   1880917   1881187   1881789   1882864   1884438  
  8720.000000   1886384   1888481   1890462   1892115   1893342  
  8710.000000   1894177   1894739   1895165   1895514   1895737  
  8700.000000   1895680   1895159   1894058   1892407   1890411  
  8690.000000   1888402   1886727   1885642   1885210   1885310  
  8680.000000   1885667   1885993   1886083   1885905   1885580  
  8670.000000   1885327   1885361   1885800   1886653   1887790  
  8660.000000   1889052   1890248   1891256   1891985   1892403  
  8650.000000   1892500   1892311   1891923   1891498   1891287  
  8640.000000   1891586   1892662   1894651   1897480   1900854  
  8630.000000   1904306   1907331   1909502   1910609   1910684  
  8620.000000   1909999   1908947   1907925   1907226   1906994  
  8610.000000   1907244   1907905   1908900   1910173   1911703  
  8600.000000   1913457   1915360   1917259   1918943   1920194  
  8590.000000   1920839   1920836   1920296   1919487   1918761  
  8580.000000   1918456   1918830   1919986   1921876   1924288  
  8570.000000   1926927   1929469   1931641   1933249   1934207  
  8560.000000   1934543   1934365   1933835   1933122   1932387  
  8550.000000   1931739   1931238   1930900   1930727   1930734  
  8540.000000   1930949   1931427   1932196   1933252   1934499  
  8530.000000   1935790   1936932   1937771   1938244   1938406  
  8520.000000   1938436   1938551   1938946   1939682   1940680  
  8510.000000   1941714   1942523   1942878   1942696   1942052  
  8500.000000   1941172   1940355   1939861   1939880   1940472  
  8490.000000   1941611   1943197   1945120   1947286   1949594  
  8480.000000   1951934   1954139   1956041   1957449   1958232  
  8470.000000   1958335   1957843   1956958   1955960   1955164  
  8460.000000   1954855   1955266   1956498   1958547   1961259  
  8450.000000   1964382   1967566   1970427   1972612   1973861  
  8440.000000   1974092   1973379   1971958   1970142   1968289  
  8430.000000   1966704   1965607   1965131   1965320   1966174  
  8420.000000   1967608   1969513   1971707   1973999   1976171  
  8410.000000   1978037   1979460   1980384   1980813   1980794  
  8400.000000   1980382   1979640   1978648   1977518   1976393  
  8390.000000   1975457   1974861   1974689   1974853   1975122  
  8380.000000   1975143   1974579   1973212   1971047   1968324  
  8370.000000   1965467   1962943   1961117   1960141   1959937  
  8360.000000   1960252   1960772   1961224   1961459   1961451  
  8350.000000   1961265   1960970   1960598   1960132   1959519  
  8340.000000   1958730   1957759   1956673   1955541   1954434  
  8330.000000   1953358   1952274   1951120   1949862   1948533  
  8320.000000   1947244   1946163   1945462   1945256   1945554  
  8310.000000   1946258   1947181   1948119   1948893   1949408  
  8300.000000   1949656   1949715   1949706   1949739   1949871  
  8290.000000   1950075   1950258   1950274   1949967   1949213  
  8280.000000   1947968   1946288   1944323   1942292   1940413  
  8270.000000   1938876   1937780   1937143   1936890   1936898  
  8260.000000   1937027   1937163   1937228   1937182   1937010  
  8250.000000   1936697   1936230   1935581   1934733   1933689  
  8240.000000   1932496   1931246   1930059   1929073   1928383  
  8230.000000   1928049   1928038   1928263   1928577   1928813  
  8220.000000   1928815   1928456   1927654   1926359   1924552  
  8210.000000   1922245   1919496   1916447   1913320   1910423  
  8200.000000   1908069   1906522   1905881   1906047   1906693  
  8190.000000   1907361   1907568   1906957   1905409   1903049  
  8180.000000   1900212   1897297   1894653   1892470   1890764  
  8170.000000   1889421   1888290   1887274   1886368   1885637  
  8160.000000   1885143   1884876   1884709   1884423   1883790  
  8150.000000   1882645   1880987   1878961   1876846   1874928  
  8140.000000   1873424   1872406   1871796   1871430   1871114  
  8130.000000   1870713   1870172   1869518   1868821   1868144  
  8120.000000   1867511   1866887   1866204   1865366   1864303  
  8110.000000   1862969   1861383   1859611   1857776   1856037  
  8100.000000   1854566   1853514   1852969   1852931   1853293  
  8090.000000   1853864   1854416   1854745   1854730   1854360  
  8080.000000   1853729   1852985   1852277   1851699   1851265  
  8070.000000   1850914   1850551   1850094   1849502   1848801  
  8060.000000   1848049   1847328   1846682   1846115   1845576  
  8050.000000   1844984   1844262   1843362   1842287   1841089  
  8040.000000   1839846   1838644   1837536   1836547   1835659  
  8030.000000   1834838   1834050   1833286   1832561   1831908  
  8020.000000   1831351   1830880   1830435   1829913   1829198  
  8010.000000   1828201   1826901   1825367   1823753   1822250  
  8000.000000   1821040   1820226   1819808   1819671   1819627  
  7990.000000   1819465   1819022   1818218   1817089   1815759  
  7980.000000   1814421   1813268   1812460   1812077   1812117  
  7970.000000   1812486   1813047   1813635   1814111   1814387  
  7960.000000   1814440   1814316   1814106   1813916   1813839  
  7950.000000   1813919   1814153   1814482   1814822   1815072  
  7940.000000   1815148   1814989   1814566   1813894   1813019  
  7930.000000   1812029   1811033   1810155   1809504   1809149  
  7920.000000   1809101   1809300   1809633   1809962   1810164  
  7910.000000   1810161   1809939   1809540   1809042   1808527  
  7900.000000   1808062   1807688   1807422   1807270   1807235  
  7890.000000   1807312   1807478   1807686   1807857   1807900  
  7880.000000   1807734   1807322   1806691   1805935   1805188  
  7870.000000   1804586   1804218   1804101   1804176   1804329  
  7860.000000   1804428   1804368   1804094   1803612   1802978  
  7850.000000   1802277   1801596   1801008   1800569   1800300  
  7840.000000   1800207   1800263   1800422   1800613   1800752  
  7830.000000   1800763   1800593   1800246   1799782   1799321  
  7820.000000   1799004   1798958   1799249   1799856   1800661  
  7810.000000   1801478   1802095   1802333   1802095   1801388  
  7800.000000   1800319   1799060   1797796   1796670   1795750  
  7790.000000   1795021   1794407   1793812   1793160   1792438  
  7780.000000   1791689   1791016   1790525   1790307   1790382  
  7770.000000   1790708   1791179   1791651   1791993   1792093  
  7760.000000   1791904   1791415   1790659   1789679   1788520  
  7750.000000   1787226   1785843   1784439   1783109   1781979  
  7740.000000   1781173   1780793   1780863   1781324   1782019  
  7730.000000   1782729   1783231   1783343   1782989   1782188  
  7720.000000   1781066   1779787   1778526   1777408   1776505  
  7710.000000   1775831   1775369   1775090   1774964   1774972  
  7700.000000   1775079   1775246   1775412   1775518   1775518  
  7690.000000   1775394   1775160   1774847   1774494   1774116  
  7680.000000   1773712   1773254   1772719   1772095   1771394  
  7670.000000   1770648   1769886   1769137   1768405   1767697  
  7660.000000   1767026   1766431   1765972   1765711   1765682  
  7650.000000   1765860   1766153   1766416   1766496   1766271  
  7640.000000   1765702   1764830   1763776   1762684   1761701  
  7630.000000   1760920   1760386   1760091   1760007   1760093  
  7620.000000   1760312   1760632   1761012   1761414   1761798  
  7610.000000   1762143   1762453   1762758   1763107   1763536  
  7600.000000   1764057   1764632   1765193   1765639   1765878  
  7590.000000   1765837   1765490   1764857   1764008   1763046  
  7580.000000   1762092   1761267   1760672   1760375   1760385  
  7570.000000   1760661   1761112   1761632   1762123   1762538  
  7560.000000   1762883   1763207   1763574   1764024   1764556  
  7550.000000   1765108   1765597   1765933   1766075   1766025  
  7540.000000   1765842   1765597   1765358   1765159   1765006  
  7530.000000   1764888   1764803   1764773   1764845   1765075  
  7520.000000   1765505   1766146   1766970   1767920   1768937  
  7510.000000   1769963   1770965   1771917   1772805   1773604  
  7500.000000   1774301   1774884   1775377   1775821   1776283  
  7490.000000   1776820   1777469   1778225   1779054   1779908  
  7480.000000   1780758   1781606   1782496   1783488   1784635  
  7470.000000   1785942   1787369   1788827   1790217   1791458  
  7460.000000   1792519   1793422   1794239   1795059   1795966  
  7450.000000   1797010   1798205   1799522   1800909   1802290  
  7440.000000   1803591   1804742   1805703   1806464   1807052  
  7430.000000   1807533   1808001   1808551   1809271   1810209  
  7420.000000   1811383   1812769   1814327   1815997   1817721  
  7410.000000   1819440   1821097   1822647   1824062   1825343  
  7400.000000   1826529   1827689   1828911   1830270   1831808  
  7390.000000   1833504   1835288   1837044   1838657   1840035  
  7380.000000   1841140   1841997   1842690   1843333   1844047  
  7370.000000   1844935   1846069   1847480   1849149   1851024  
  7360.000000   1853021   1855051   1857028   1858899   1860641  
  7350.000000   1862269   1863812   1865291   1866706   1868023  
  7340.000000   1869191   1870157   1870897   1871431   1871818  
  7330.000000   1872155   1872538   1873061   1873778   1874723  
  7320.000000   1875895   1877271   1878808   1880436   1882064  
  7310.000000   1883578   1884881   1885903   1886652   1887198  
  7300.000000   1887679   1888251   1889049   1890147   1891539  
  7290.000000   1893156   1894892   1896648   1898354   1899973  
  7280.000000   1901497   1902916   1904208   1905339   1906280  
  7270.000000   1907029   1907629   1908165   1908754   1909503  
  7260.000000   1910483   1911704   1913113   1914611   1916079  
  7250.000000   1917410   1918538   1919447   1920182   1920829  
  7240.000000   1921511   1922342   1923419   1924774   1926396  
  7230.000000   1928202   1930098   1931978   1933792   1935533  
  7220.000000   1937262   1939061   1941021   1943195   1945601  
  7210.000000   1948207   1950974   1953855   1956836   1959913  
  7200.000000   1963100   1966387   1969746   1973107   1976405  
  7190.000000   1979572   1982593   1985478   1988287   1991073  
  7180.000000   1993887   1996733   1999600   2002458   2005306  
  7170.000000   2008169   2011118   2014229   2017578   2021183  
  7160.000000   2025020   2028997   2033021   2036994   2040878  
  7150.000000   2044667   2048422   2052211   2056128   2060226  
  7140.000000   2064540   2069052   2073737   2078540   2083433  
  7130.000000   2088384   2093393   2098455   2103584   2108768  
  7120.000000   2114007   2119266   2124530   2129760   2134948  
  7110.000000   2140080   2145172   2150245   2155343   2160512  
  7100.000000   2165811   2171292   2177000   2182947   2189119  
  7090.000000   2195456   2201877   2208280   2214575   2220697  
  7080.000000   2226626   2232373   2237987   2243521   2249025  
  7070.000000   2254530   2260050   2265588   2271146   2276730  
  7060.000000   2282349   2288012   2293717   2299451   2305191  
  7050.000000   2310917   2316613   2322280   2327926   2333565  
  7040.000000   2339205   2344843   2350471   2356073   2361637  
  7030.000000   2367156   2372621   2378028   2383361   2388610  
  7020.000000   2393766   2398840   2403853   2408846   2413842  
  7010.000000   2418851   2423841   2428766   2433560   2438189  
  7000.000000   2442645   2446982   2451264   2455569   2459930  
  6990.000000   2464339   2468724   2472998   2477064   2480873  
  6980.000000   2484403   2487697   2490807   2493813   2496767  
  6970.000000   2499725   2502710   2505746   2508823   2511924  
  6960.000000   2514992   2517967   2520763   2523328   2525628  
  6950.000000   2527688   2529562   2531335   2533084   2534870  
  6940.000000   2536716   2538625   2540573   2542543   2544503  
  6930.000000   2546434   2548299   2550075   2551731   2553271  
  6920.000000   2554719   2556138   2557601   2559175   2560876  
  6910.000000   2562666   2564447   2566101   2567514   2568633  
  6900.000000   2569466   2570099   2570649   2571237   2571940  
  6890.000000   2572788   2573751   2574771   2575784   2576750  
  6880.000000   2577656   2578521   2579369   2580223   2581085  
  6870.000000   2581945   2582778   2583567   2584306   2585012  
  6860.000000   2585715   2586447   2587230   2588057   2588894  
  6850.000000   2589684   2590368   2590906   2591293   2591571  
  6840.000000   2591811   2592100   2592504   2593057   2593735  
  6830.000000   2594480   2595209   2595848   2596345   2596691  
  6820.000000   2596902   2597019   2597079   2597115   2597142  
  6810.000000   2597167   2597191   2597214   2597235   2597254  
  6800.000000   2597266   2597275   2597278   2597289   2597313  
  6790.000000   2597357   2597411   2597448   2597428   2597307  
  6780.000000   2597052   2596659   2596150   2595572   2594979  
  6770.000000   2594421   2593924   2593501   2593150   2592869  
  6760.000000   2592657   2592516   2592438   2592404   2592384  
  6750.000000   2592344   2592265   2592148   2592017   2591903  
  6740.000000   2591830   2591795   2591767   2591704   2591573  
  6730.000000   2591375   2591154   2590989   2590957   2591105  
  6720.000000   2591422   2591841   2592257   2592564   2592692  
  6710.000000   2592620   2592375   2592011   2591588   2591151  
  6700.000000   2590727   2590332   2589976   2589675   2589430  
  6690.000000   2589238   2589063   2588862   2588574   2588162  
  6680.000000   2587609   2586934   2586173   2585368   2584541  
  6670.000000   2583699   2582828   2581923   2580984   2580041  
  6660.000000   2579120   2578253   2577442   2576673   2575911  
  6650.000000   2575132   2574324   2573501   2572681   2571875  
  6640.000000   2571066   2570208   2569240   2568111   2566805  
  6630.000000   2565352   2563813   2562267   2560771   2559355  
  6620.000000   2558004   2556691   2555381   2554064   2552746  
  6610.000000   2551449   2550187   2548959   2547735   2546476  
  6600.000000   2545140   2543705   2542168   2540553   2538891  
  6590.000000   2537223   2535582   2534003   2532510   2531121  
  6580.000000   2529832   2528621   2527435   2526207   2524873  
  6570.000000   2523391   2521756   2520007   2518209   2516426  
  6560.000000   2514704   2513049   2511437   2509826   2508184  
  6550.000000   2506503   2504807   2503143   2501555   2500075  
  6540.000000   2498704   2497422   2496194   2494984   2493765  
  6530.000000   2492523   2491250   2489942   2488600   2487222  
  6520.000000   2485815   2484392   2482971   2481569   2480199  
  6510.000000   2478863   2477557   2476280   2475028   2473808  
  6500.000000   2472627   2471489   2470385   2469296   2468193  
  6490.000000   2467049   2465844   2464574   2463242   2461859  
  6480.000000   2460435   2458976   2457486   2455977   2454468  
  6470.000000   2452989   2451572   2450242   2449006   2447852  
  6460.000000   2446754   2445679   2444604   2443516   2442420  
  6450.000000   2441324   2440242   2439174   2438118   2437062  
  6440.000000   2435999   2434917   2433817   2432695   2431558  
  6430.000000   2430411   2429271   2428161   2427114   2426158  
  6420.000000   2425320   2424599   2423980   2423423   2422889  
  6410.000000   2422341   2421766   2421165   2420568   2420002  
  6400.000000   2419504   2419095   2418794   2418600   2418511  
  6390.000000   2418506   2418555   2418616   2418645   2418603  
  6380.000000   2418472   2418258   2417992   2417718   2417470  
  6370.000000   2417266   2417088   2416902   2416662   2416339  
  6360.000000   2415923   2415436   2414907   2414369   2413830  
  6350.000000   2413285   2412710   2412088   2411410   2410690  
  6340.000000   2409948   2409213   2408497   2407806   2407129  
  6330.000000   2406459   2405783   2405105   2404419   2403726  
  6320.000000   2403008   2402248   2401420   2400512   2399520  
  6310.000000   2398458   2397342   2396192   2395015   2393816  
  6300.000000   2392597   2391370   2390150   2388960   2387809  
  6290.000000   2386696   2385597   2384481   2383318   2382099  
  6280.000000   2380835   2379556   2378289   2377048   2375822  
  6270.000000   2374581   2373290   2371931   2370507   2369052  
  6260.000000   2367602   2366187   2364809   2363446   2362062  
  6250.000000   2360629   2359142   2357631   2356139   2354712  
  6240.000000   2353372   2352109   2350889   2349665   2348400  
  6230.000000   2347072   2345683   2344244   2342766   2341257  
  6220.000000   2339721   2338160   2336592   2335040   2333533  
  6210.000000   2332092   2330724   2329417   2328147   2326892  
  6200.000000   2325643   2324404   2323193   2322023   2320898  
  6190.000000   2319805   2318723   2317632   2316532   2315437  
  6180.000000   2314375   2313373   2312444   2311580   2310756  
  6170.000000   2309941   2309108   2308246   2307355   2306443  
  6160.000000   2305514   2304569   2303605   2302617   2301615  
  6150.000000   2300611   2299626   2298673   2297753   2296854  
  6140.000000   2295959   2295056   2294146   2293248   2292389  
  6130.000000   2291589   2290855   2290171   2289512   2288847  
  6120.000000   2288162   2287457   2286755   2286077   2285443  
  6110.000000   2284855   2284305   2283776   2283265   2282773  
  6100.000000   2282318   2281917   2281583   2281309   2281083  
  6090.000000   2280873   2280666   2280446   2280225   2280015  
  6080.000000   2279840   2279718   2279669   2279703   2279838  
  6070.000000   2280075   2280421   2280859   2281373   2281922  
  6060.000000   2282487   2283044   2283608   2284198   2284864  
  6050.000000   2285636   2286545   2287584   2288749   2290011  
  6040.000000   2291365   2292804   2294347   2295998   2297769  
  6030.000000   2299636   2301578   2303552   2305544   2307540  
  6020.000000   2309562   2311631   2313779   2316011   2318328  
  6010.000000   2320698   2323103   2325512   2327923   2330338  
  6000.000000   2332781   2335265   2337819   2340446   2343161  
  5990.000000   2345955   2348834   2351785   2354808   2357890  
  5980.000000   2361033   2364233   2367501   2370841   2374266  
  5970.000000   2377771   2381354   2384992   2388670   2392367  
  5960.000000   2396079   2399801   2403544   2407302   2411074  
  5950.000000   2414843   2418600   2422339   2426082   2429863  
  5940.000000   2433733   2437740   2441912   2446258   2450746  
  5930.000000   2455333   2459955   2464556   2469077   2473472  
  5920.000000   2477696   2481710   2485478   2488984   2492224  
  5910.000000   2495220   2498004   2500620   2503101   2505481  
  5900.000000   2507774   2510011   2512213   2514431   2516707  
  5890.000000   2519094   2521607   2524251   2526983   2529752  
  5880.000000   2532484   2535123   2537616   2539931   2542051  
  5870.000000   2543971   2545700   2547255   2548675   2550006  
  5860.000000   2551307   2552627   2554006   2555467   2557017  
  5850.000000   2558658   2560392   2562229   2564185   2566271  
  5840.000000   2568487   2570813   2573217   2575658   2578105  
  5830.000000   2580536   2582954   2585361   2587776   2590200  
  5820.000000   2592635   2595075   2597520   2599972   2602444  
  5810.000000   2604945   2607478   2610040   2612607   2615173  
  5800.000000   2617719   2620263   2622808   2625391   2628000  
  5790.000000   2630635   2633229   2635723   2638000   2639969  
  5780.000000   2641502   2642517   2642919   2642678   2641779  
  5770.000000   2640290   2638307   2635995   2633508   2631017  
  5760.000000   2628625   2626410   2624372   2622506   2620768  
  5750.000000   2619147   2617619   2616189   2614842   2613563  
  5740.000000   2612321   2611082   2609823   2608536   2607235  
  5730.000000   2605938   2604672   2603444   2602254   2601082  
  5720.000000   2599915   2598739   2597556   2596372   2595199  
  5710.000000   2594042   2592905   2591790   2590698   2589640  
  5700.000000   2588628   2587671   2586773   2585928   2585117  
  5690.000000   2584326   2583537   2582752   2581966   2581188  
  5680.000000   2580404   2579602   2578746   2577805   2576735  
  5670.000000   2575507   2574091   2572465   2570610   2568519  
  5660.000000   2566199   2563683   2561027   2558311   2555614  
  5650.000000   2553009   2550534   2548200   2545989   2543874  
  5640.000000   2541831   2539848   2537928   2536077   2534304  
  5630.000000   2532603   2530970   2529392   2527873   2526419  
  5620.000000   2525046   2523758   2522557   2521419   2520321  
  5610.000000   2519232   2518142   2517051   2515979   2514946  
  5600.000000   2513972   2513061   2512208   2511399   2510625  
  5590.000000   2509878   2509160   2508463   2507777   2507081  
  5580.000000   2506354   2505581   2504764   2503922   2503087  
  5570.000000   2502285   2501532   2500821   2500128   2499422  
  5560.000000   2498675   2497872   2497009   2496093   2495130  
  5550.000000   2494128   2493090   2492027   2490957   2489907  
  5540.000000   2488905   2487968   2487092   2486252   2485408  
  5530.000000   2484522   2483569   2482547   2481476   2480386  
  5520.000000   2479304   2478244   2477204   2476173   2475138  
  5510.000000   2474094   2473039   2471980   2470919   2469855  
  5500.000000   2468782   2467699   2466604   2465505   2464405  
  5490.000000   2463305   2462184   2461018   2459774   2458437  
  5480.000000   2457006   2455507   2453975   2452453   2450963  
  5470.000000   2449511   2448082   2446655   2445207   2443728  
  5460.000000   2442213   2440658   2439054   2437385   2435639  
  5450.000000   2433812   2431922   2430007   2428113   2426284  
  5440.000000   2424542   2422887   2421305   2419777   2418301  
  5430.000000   2416878   2415524   2414235   2413001   2411788  
  5420.000000   2410570   2409328   2408089   2406897   2405832  
  5410.000000   2404945   2404272   2403786   2403449   2403194  
  5400.000000   2402992   2402818   2402701   2402658   2402729  
  5390.000000   2402916   2403232   2403663   2404231   2404942  
  5380.000000   2405844   2406941   2408254   2409739   2411371  
  5370.000000   2413085   2414877   2416727   2418686   2420766  
  5360.000000   2423033   2425482   2428160   2431052   2434226  
  5350.000000   2437693   2441555   2445827   2450583   2455782  
  5340.000000   2461439   2467469   2473894   2480655   2487816  
  5330.000000   2495342   2503309   2511671   2520495   2529739  
  5320.000000   2539503   2549785   2560727   2572330   2584713  
  5310.000000   2597816   2611691   2626226   2641459   2657307  
  5300.000000   2673862   2691109   2709192   2728127   2748051  
  5290.000000   2768940   2790850   2813653   2837289   2861556  
  5280.000000   2886368   2911581   2937224   2963299   2989941  
  5270.000000   3017196   3045112   3073582   3102441   3131452  
  5260.000000   3160415   3189216   3217840   3246375   3274896  
  5250.000000   3303459   3331963   3360266   3388085   3415239  
  5240.000000   3441526   3466965   3491556   3515484   3538803  
  5230.000000   3561657   3583980   3605770   3626837   3647135  
  5220.000000   3666508   3685018   3702640   3719554   3735800  
  5210.000000   3751546   3766750   3781450   3795471   3808774  
  5200.000000   3821187   3832757   3843441   3853404   3862668  
  5190.000000   3871383   3879509   3887102   3894052   3900390  
  5180.000000   3906036   3911076   3915479   3919350   3922642  
  5170.000000   3925415   3927596   3929234   3930280   3930819  
  5160.000000   3930839   3930429   3929563   3928295   3926575  
  5150.000000   3924454   3921904   3919001   3915743   3912202  
  5140.000000   3908359   3904252   3899849   3895190   3890268  
  5130.000000   3885149   3879849   3874426   3868875   3863218  
  5120.000000   3857429   3851527   3845510   3839421   3833285  
  5110.000000   3827141   3820995   3814856   3808707   3802548  
  5100.000000   3796376   3790216   3784087   3778018   3772016  
  5090.000000   3766085   3760211   3754384   3748592   3742837  
  5080.000000   3737114   3731424   3725748   3720068   3714350  
  5070.000000   3708572   3702713   3696770   3690744   3684646  
  5060.000000   3678479   3672252   3665962   3659623   3653238  
  5050.000000   3646824   3640384   3633926   3627433   3620889  
  5040.000000   3614270   3607564   3600772   3593912   3587016  
  5030.000000   3580116   3573242   3566409   3559628   3552900  
  5020.000000   3546232   3539632   3533120   3526707   3520412  
  5010.000000   3514230   3508162   3502187   3496309   3490513  
  5000.000000   3484822   3479235   3473787   3468474   3463324  
  4990.000000   3458323   3453495   3448827   3444357   3440083  
  4980.000000   3436051   3432258   3428746   3425497   3422543  
  4970.000000   3419859   3417477   3415372   3413578   3412064  
  4960.000000   3410861   3409935   3409319   3408988   3408993  
  4950.000000   3409317   3410023   3411089   3412567   3414417  
  4940.000000   3416675   3419291   3422297   3425646   3429373  
  4930.000000   3433435   3437866   3442627   3447759   3453233  
  4920.000000   3459102   3465346   3472014   3479077   3486557  
  4910.000000   3494403   3502611   3511124   3519927   3528972  
  4900.000000   3538241   3547688   3557281   3566974   3576715  
  4890.000000   3586461   3596151   3605747   3615182   3624419  
  4880.000000   3633376   3642021   3650265   3658088   3665406  
  4870.000000   3672214   3678436   3684076   3689063   3693416  
  4860.000000   3697078   3700092   3702431   3704167   3705302  
  4850.000000   3705925   3706057   3705795   3705168   3704274  
  4840.000000   3703146   3701875   3700495   3699081   3697655  
  4830.000000   3696264   3694915   3693628   3692396   3691222  
  4820.000000   3690104   3689047   3688066   3687180   3686417  
  4810.000000   3685796   3685342   3685051   3684923   3684931  
  4800.000000   3685063   3685289   3685611   3686020   3686540  
  4790.000000   3687173   3687939   3688826   3689831   3690923  
  4780.000000   3692084   3693287   3694528   3695799   3697109  
  4770.000000   3698455   3699841   3701253   3702679   3704105  
  4760.000000   3705520   3706919   3708307   3709685   3711057  
  4750.000000   3712415   3713748   3715039   3716277   3717453  
  4740.000000   3718574   3719657   3720728   3721809   3722923  
  4730.000000   3724075   3725260   3726461   3727661   3728838  
  4720.000000   3729989   3731116   3732244   3733398   3734621  
  4710.000000   3735938   3737390   3738984   3740742   3742657  
  4700.000000   3744736   3746973   3749377   3751948   3754705  
  4690.000000   3757649   3760796   3764136   3767666   3771346  
  4680.000000   3775146   3778999   3782858   3786655   3790358  
  4670.000000   3793933   3797393   3800752   3804068   3807385  
  4660.000000   3810772   3814271   3817931   3821773   3825819  
  4650.000000   3830071   3834528   3839178   3844000   3848969  
  4640.000000   3854046   3859199   3864383   3869570   3874721  
  4630.000000   3879820   3884832   3889739   3894499   3899082  
  4620.000000   3903426   3907487   3911197   3914523   3917418  
  4610.000000   3919894   3921950   3923654   3925049   3926234  
  4600.000000   3927252   3928184   3929037   3929848   3930579  
  4590.000000   3931230   3931739   3932088   3932212   3932093  
  4580.000000   3931680   3930968   3929932   3928597   3926972  
  4570.000000   3925111   3923044   3920835   3918513   3916129  
  4560.000000   3913697   3911249   3908787   3906329   3903865  
  4550.000000   3901401   3898922   3896423   3893890   3891323  
  4540.000000   3888721   3886094   3883457   3880826   3878214  
  4530.000000   3875628   3873075   3870547   3868052   3865577  
  4520.000000   3863141   3860734   3858383   3856076   3853850  
  4510.000000   3851694   3849667   3847779   3846123   3844731  
  4500.000000   3843721   3843122   3843042   3843478   3844515  
  4490.000000   3846128   3848397   3851299   3854930   3859269  
  4480.000000   3864408   3870305   3877021   3884478   3892704  
  4470.000000   3901599   3911180   3921354   3932141   3943461  
  4460.000000   3955339   3967702   3980564   3993844   4007534  
  4450.000000   4021541   4035837   4050335   4065005   4079790  
  4440.000000   4094674   4109629   4124641   4139693   4154748  
  4430.000000   4169783   4184731   4199558   4214177   4228551  
  4420.000000   4242581   4256234   4269415   4282107   4294230  
  4410.000000   4305787   4316714   4327028   4336673   4345673  
  4400.000000   4353985   4361659   4368687   4375164   4381138  
  4390.000000   4386746   4392071   4397265   4402402   4407595  
  4380.000000   4412872   4418283   4423798   4429420   4435099  
  4370.000000   4440830   4446576   4452343   4458112   4463890  
  4360.000000   4469652   4475396   4481076   4486687   4492157  
  4350.000000   4497492   4502603   4507521   4512177   4516650  
  4340.000000   4520914   4525063   4529029   4532761   4535973  
  4330.000000   4538321   4539273   4538339   4535081   4529327  
  4320.000000   4521185   4511118   4499816   4488120   4476808  
  4310.000000   4466519   4457618   4450246   4444316   4439646  
  4300.000000   4436007   4433200   4431093   4429580   4428624  
  4290.000000   4428156   4428170   4428600   4429459   4430700  
  4280.000000   4432345   4434355   4436715   4439368   4442252  
  4270.000000   4445304   4448441   4451582   4454583   4457266  
  4260.000000   4459365   4460588   4460628   4459264   4456386  
  4250.000000   4452079   4446567   4440237   4433497   4426780  
  4240.000000   4420396   4414583   4409409   4404875   4400872  
  4230.000000   4397281   4393950   4390749   4387568   4384325  
  4220.000000   4381001   4377593   4374187   4370858   4367753  
  4210.000000   4364967   4362625   4360766   4359435   4358594  
  4200.000000   4358220   4358231   4358578   4359170   4359965  
  4190.000000   4360882   4361898   4362955   4364063   4365191  
  4180.000000   4366379   4367615   4368956   4370399   4372010  
  4170.000000   4373802   4375851   4378178   4380857   4383893  
  4160.000000   4387333   4391152   4395375   4399963   4404949  
  4150.000000   4410307   4416084   4422256   4428868   4435876  
  4140.000000   4443310   4451112   4459311   4467853   4476774  
  4130.000000   4486024   4495638   4505564   4515840   4526435  
  4120.000000   4537414   4548785   4560641   4573014   4585986  
  4110.000000   4599560   4613766   4628551   4643885   4659671  
  4100.000000   4675844   4692294   4708949   4725717   4742547  
  4090.000000   4759389   4776219   4793021   4809786   4826524  
  4080.000000   4843221   4859897   4876523   4893111   4909591  
  4070.000000   4925940   4942033   4957811   4973126   4987929  
  4060.000000   5002101   5015641   5028472   5040636   5052077  
  4050.000000   5062871   5072989   5082539   5091511   5100018  
  4040.000000   5108021   5115589   5122629   5129175   5135126  
  4030.000000   5140534   5145329   5149578   5153226   5156318  
  4020.000000   5158770   5160637   5161916   5162696   5162964  
  4010.000000   5162848   5162410   5161636   5160297   5158402  
  4000.000000   5156222  
##END= 
