##TITLE= Sample 013 By ssteindl date Donnerstag, November 22 2018
##JCAMP-DX= 4.24
##DATA TYPE= INFRARED SPECTRUM
##ORIGIN= Exported PE Spectrum Data File
##OWNER= Sandra Steindl
##DATE= 18/11/22
##TIME= 10:22:51.00
##SPECTROMETER/DATA SYSTEM= PERKIN-ELMER Frontier FT-IR/NIR IR
##INSTRUMENT PARAMETERS=
  APODIZATION=stark
  DETECTOR=INGAAS
##RESOLUTION= 16.000000
##DELTAX= -2.000000
##XUNITS= 1/CM
##YUNITS= A
##XFACTOR= 1.00
##YFACTOR= 0.00000011920928955078
##FIRSTX= 10000.00
##LASTX= 4000.00
##NPOINTS= 3001
##FIRSTY= 0.216761
##MAXY= 0.657732
##MINY= 0.187567
##XYDATA= (X++(Y..Y))
 10000.000000   1818325   1814651   1812040   1811940   1814487  
  9990.000000   1818510   1822595   1825578   1826706   1825660  
  9980.000000   1822783   1818666   1813914   1808927   1804078  
  9970.000000   1799762   1796401   1794456   1794205   1795696  
  9960.000000   1798628   1802540   1806900   1811331   1815566  
  9950.000000   1819386   1822460   1824247   1824145   1821682  
  9940.000000   1816859   1810282   1803062   1796522   1791676  
  9930.000000   1788932   1787977   1788002   1788145   1787766  
  9920.000000   1786707   1785032   1782882   1780117   1776378  
  9910.000000   1771276   1764797   1757646   1751250   1747505  
  9900.000000   1748109   1754010   1764904   1779308   1794882  
  9890.000000   1809097   1819860   1825900   1826961   1823531  
  9880.000000   1816686   1807652   1797742   1788130   1779850  
  9870.000000   1773633   1769818   1768289   1768469   1769618  
  9860.000000   1770931   1771975   1772552   1772869   1773180  
  9850.000000   1773749   1774702   1776024   1777732   1779805  
  9840.000000   1782314   1785128   1787890   1789854   1790080  
  9830.000000   1787743   1782518   1774913   1766210   1758227  
  9820.000000   1752693   1750752   1752542   1757212   1763220  
  9810.000000   1768825   1772599   1773704   1772011   1767913  
  9800.000000   1762178   1755688   1749382   1744138   1740730  
  9790.000000   1739698   1741198   1744955   1750207   1756002  
  9780.000000   1761313   1765480   1768200   1769613   1770064  
  9770.000000   1769834   1769065   1767564   1765094   1761357  
  9760.000000   1756291   1750015   1742858   1735263   1727716  
  9750.000000   1720789   1715135   1711514   1710627   1712918  
  9740.000000   1718256   1725839   1734238   1741790   1747089  
  9730.000000   1749480   1749294   1747707   1746299   1746419  
  9720.000000   1748688   1752778   1757588   1761670   1763790  
  9710.000000   1763290   1760255   1755328   1749369   1743129  
  9700.000000   1737024   1731190   1725603   1720320   1715558  
  9690.000000   1711736   1709272   1708517   1709512   1712070  
  9680.000000   1715719   1719886   1723990   1727504   1730065  
  9670.000000   1731374   1731282   1729721   1726775   1722692  
  9660.000000   1717882   1712887   1708303   1704682   1702444  
  9650.000000   1701762   1702487   1704108   1705791   1706546  
  9640.000000   1705477   1702059   1696386   1689217   1681873  
  9630.000000   1675865   1672479   1672377   1675398   1680641  
  9620.000000   1686755   1692376   1696513   1698772   1699364  
  9610.000000   1698881   1698013   1697236   1696731   1696336  
  9600.000000   1695789   1694811   1693346   1691516   1689588  
  9590.000000   1687850   1686466   1685497   1684872   1684536  
  9580.000000   1684480   1684787   1685574   1686923   1688793  
  9570.000000   1690998   1693231   1695165   1696558   1697338  
  9560.000000   1697626   1697656   1697674   1697800   1697979  
  9550.000000   1697997   1697580   1696540   1694852   1692717  
  9540.000000   1690452   1688434   1686913   1685991   1685563  
  9530.000000   1685414   1685292   1684997   1684420   1683510  
  9520.000000   1682243   1680563   1678426   1675832   1672919  
  9510.000000   1669965   1667353   1665450   1664483   1664470  
  9500.000000   1665203   1666369   1667653   1668870   1669969  
  9490.000000   1670996   1671972   1672798   1673274   1673123  
  9480.000000   1672192   1670466   1668188   1665699   1663362  
  9470.000000   1661376   1659705   1658172   1656539   1654796  
  9460.000000   1653157   1652134   1652267   1653945   1657177  
  9450.000000   1661505   1666134   1670076   1672462   1672664  
  9440.000000   1670471   1666050   1659954   1653015   1646247  
  9430.000000   1640707   1637292   1636580   1638619   1642898  
  9420.000000   1648376   1653766   1657824   1659741   1659295  
  9410.000000   1656905   1653390   1649691   1646599   1644548  
  9400.000000   1643673   1643808   1644696   1645965   1647190  
  9390.000000   1647844   1647358   1645272   1641428   1636169  
  9380.000000   1630338   1625159   1621855   1621293   1623635  
  9370.000000   1628305   1634163   1639919   1644542   1647504  
  9360.000000   1648815   1648810   1647903   1646323   1644098  
  9350.000000   1641126   1637461   1633406   1629578   1626671  
  9340.000000   1625214   1625357   1626764   1628783   1630624  
  9330.000000   1631732   1631902   1631343   1630495   1629834  
  9320.000000   1629712   1630286   1631527   1633279   1635302  
  9310.000000   1637305   1638957   1639912   1639865   1638656  
  9300.000000   1636348   1633278   1629942   1626853   1624329  
  9290.000000   1622397   1620818   1619226   1617349   1615137  
  9280.000000   1612802   1610686   1609078   1608039   1607370  
  9270.000000   1606709   1605756   1604451   1603096   1602231  
  9260.000000   1602445   1604073   1607051   1610909   1614949  
  9250.000000   1618474   1621009   1622408   1622847   1622660  
  9240.000000   1622173   1621592   1620993   1620380   1619748  
  9230.000000   1619120   1618531   1617987   1617420   1616703  
  9220.000000   1615690   1614308   1612609   1610788   1609113  
  9210.000000   1607832   1607072   1606828   1606984   1607427  
  9200.000000   1608087   1608991   1610211   1611800   1613731  
  9190.000000   1615826   1617807   1619302   1619992   1619661  
  9180.000000   1618285   1616016   1613158   1610166   1607555  
  9170.000000   1605853   1605414   1606387   1608607   1611650  
  9160.000000   1614875   1617565   1619127   1619214   1617835  
  9150.000000   1615241   1611848   1608086   1604364   1601008  
  9140.000000   1598289   1596456   1595743   1596339   1598240  
  9130.000000   1601217   1604746   1608184   1610872   1612367  
  9120.000000   1612517   1611537   1609898   1608135   1606652  
  9110.000000   1605620   1604998   1604573   1604067   1603228  
  9100.000000   1601907   1600028   1597555   1594478   1590857  
  9090.000000   1586863   1582792   1579038   1576025   1574098  
  9080.000000   1573422   1573944   1575423   1577545   1580029  
  9070.000000   1582683   1585388   1588040   1590494   1592499  
  9060.000000   1593768   1594031   1593238   1591548   1589384  
  9050.000000   1587245   1585594   1584679   1584459   1584677  
  9040.000000   1584950   1584999   1584710   1584240   1583886  
  9030.000000   1584003   1584810   1586319   1588302   1590366  
  9020.000000   1592082   1593079   1593162   1592300   1590635  
  9010.000000   1588403   1585887   1583359   1581061   1579178  
  9000.000000   1577831   1577055   1576810   1576967   1577347  
  8990.000000   1577758   1578046   1578128   1578003   1577755  
  8980.000000   1577531   1577503   1577838   1578667   1580083  
  8970.000000   1582091   1584603   1587416   1590239   1592702  
  8960.000000   1594431   1595137   1594726   1593320   1591255  
  8950.000000   1588997   1587048   1585797   1585392   1585748  
  8940.000000   1586564   1587494   1588222   1588626   1588775  
  8930.000000   1588913   1589315   1590165   1591450   1592933  
  8920.000000   1594209   1594841   1594529   1593215   1591128  
  8910.000000   1588726   1586570   1585151   1584729   1585248  
  8900.000000   1586355   1587510   1588163   1587916   1586649  
  8890.000000   1584561   1582116   1579902   1578446   1578071  
  8880.000000   1578813   1580439   1582537   1584642   1586377  
  8870.000000   1587536   1588116   1588254   1588157   1587994  
  8860.000000   1587886   1587838   1587828   1587784   1587690  
  8850.000000   1587545   1587387   1587271   1587250   1587407  
  8840.000000   1587825   1588633   1589953   1591885   1594430  
  8830.000000   1597455   1600681   1603719   1606172   1607719  
  8820.000000   1608236   1607810   1606740   1605426   1604261  
  8810.000000   1603531   1603343   1603649   1604280   1605060  
  8800.000000   1605856   1606643   1607462   1608392   1609465  
  8790.000000   1610633   1611746   1612592   1612980   1612805  
  8780.000000   1612149   1611242   1610445   1610101   1610430  
  8770.000000   1611447   1612925   1614490   1615731   1616379  
  8760.000000   1616413   1616084   1615839   1616126   1617243  
  8750.000000   1619179   1621614   1623995   1625739   1626427  
  8740.000000   1625982   1624698   1623155   1622029   1621876  
  8730.000000   1622975   1625258   1628335   1631644   1634594  
  8720.000000   1636759   1637945   1638228   1637882   1637292  
  8710.000000   1636850   1636871   1637541   1638900   1640850  
  8700.000000   1643202   1645731   1648222   1650515   1652510  
  8690.000000   1654179   1655540   1656634   1657509   1658195  
  8680.000000   1658732   1659162   1659561   1660018   1660636  
  8670.000000   1661501   1662656   1664092   1665734   1667473  
  8660.000000   1669177   1670739   1672089   1673221   1674187  
  8650.000000   1675083   1676027   1677118   1678417   1679906  
  8640.000000   1681499   1683053   1684417   1685476   1686206  
  8630.000000   1686684   1687093   1687644   1688535   1689845  
  8620.000000   1691535   1693431   1695302   1696933   1698221  
  8610.000000   1699216   1700121   1701233   1702844   1705141  
  8600.000000   1708130   1711629   1715306   1718773   1721688  
  8590.000000   1723841   1725208   1725941   1726310   1726617  
  8580.000000   1727096   1727865   1728892   1730039   1731117  
  8570.000000   1731965   1732507   1732782   1732914   1733071  
  8560.000000   1733381   1733906   1734611   1735413   1736217  
  8550.000000   1736983   1737745   1738614   1739714   1741139  
  8540.000000   1742879   1744822   1746767   1748483   1749798  
  8530.000000   1750622   1751004   1751050   1750916   1750703  
  8520.000000   1750460   1750169   1749795   1749353   1748947  
  8510.000000   1748792   1749144   1750249   1752238   1755072  
  8500.000000   1758514   1762190   1765692   1768656   1770870  
  8490.000000   1772273   1772990   1773235   1773270   1773329  
  8480.000000   1773608   1774246   1775329   1776893   1778915  
  8470.000000   1781305   1783863   1786340   1788458   1790013  
  8460.000000   1790926   1791291   1791357   1791444   1791838  
  8450.000000   1792685   1793962   1795480   1796967   1798179  
  8440.000000   1798980   1799393   1799553   1799666   1799912  
  8430.000000   1800408   1801183   1802203   1803418   1804778  
  8420.000000   1806238   1807738   1809187   1810465   1811441  
  8410.000000   1812043   1812292   1812328   1812371   1812647  
  8400.000000   1813306   1814360   1815673   1817019   1818163  
  8390.000000   1818956   1819375   1819523   1819561   1819642  
  8380.000000   1819834   1820112   1820387   1820553   1820551  
  8370.000000   1820386   1820118   1819837   1819605   1819457  
  8360.000000   1819380   1819371   1819450   1819686   1820162  
  8350.000000   1820944   1822027   1823310   1824604   1825671  
  8340.000000   1826311   1826409   1826001   1825236   1824349  
  8330.000000   1823570   1823061   1822877   1822960   1823198  
  8320.000000   1823471   1823730   1824013   1824441   1825146  
  8310.000000   1826207   1827571   1829058   1830382   1831248  
  8300.000000   1831450   1830956   1829943   1828733   1827687  
  8290.000000   1827081   1827003   1827337   1827794   1828040  
  8280.000000   1827811   1827026   1825799   1824407   1823163  
  8270.000000   1822323   1821996   1822137   1822576   1823094  
  8260.000000   1823507   1823709   1823682   1823469   1823127  
  8250.000000   1822709   1822238   1821731   1821205   1820689  
  8240.000000   1820221   1819826   1819506   1819222   1818895  
  8230.000000   1818435   1817752   1816807   1815608   1814228  
  8220.000000   1812776   1811383   1810164   1809195   1808479  
  8210.000000   1807946   1807451   1806818   1805883   1804561  
  8200.000000   1802867   1800940   1798988   1797247   1795889  
  8190.000000   1794981   1794456   1794148   1793849   1793378  
  8180.000000   1792636   1791607   1790351   1788953   1787490  
  8170.000000   1786012   1784553   1783144   1781838   1780709  
  8160.000000   1779824   1779224   1778878   1778704   1778567  
  8150.000000   1778348   1777961   1777395   1776697   1775933  
  8140.000000   1775147   1774316   1773362   1772169   1770646  
  8130.000000   1768762   1766578   1764236   1761920   1759812  
  8120.000000   1758038   1756657   1755641   1754917   1754378  
  8110.000000   1753927   1753487   1753010   1752471   1751858  
  8100.000000   1751167   1750389   1749520   1748549   1747481  
  8090.000000   1746322   1745099   1743846   1742609   1741429  
  8080.000000   1740336   1739348   1738456   1737647   1736895  
  8070.000000   1736190   1735523   1734904   1734337   1733827  
  8060.000000   1733360   1732906   1732426   1731867   1731188  
  8050.000000   1730348   1729327   1728113   1726716   1725161  
  8040.000000   1723501   1721806   1720166   1718673   1717409  
  8030.000000   1716420   1715715   1715261   1714989   1714825  
  8020.000000   1714698   1714566   1714422   1714291   1714223  
  8010.000000   1714263   1714445   1714758   1715150   1715520  
  8000.000000   1715743   1715695   1715291   1714513   1713421  
  7990.000000   1712143   1710844   1709676   1708737   1708044  
  7980.000000   1707531   1707089   1706600   1705996   1705273  
  7970.000000   1704502   1703783   1703217   1702860   1702707  
  7960.000000   1702697   1702729   1702705   1702535   1702172  
  7950.000000   1701593   1700817   1699885   1698873   1697878  
  7940.000000   1697017   1696406   1696127   1696205   1696586  
  7930.000000   1697153   1697743   1698205   1698429   1698382  
  7920.000000   1698101   1697666   1697168   1696664   1696175  
  7910.000000   1695682   1695158   1694590   1693993   1693408  
  7900.000000   1692880   1692439   1692083   1691781   1691492  
  7890.000000   1691183   1690846   1690504   1690192   1689945  
  7880.000000   1689776   1689682   1689646   1689657   1689726  
  7870.000000   1689874   1690128   1690483   1690895   1691270  
  7860.000000   1691494   1691462   1691124   1690501   1689688  
  7850.000000   1688823   1688040   1687428   1687010   1686747  
  7840.000000   1686563   1686385   1686166   1685909   1685640  
  7830.000000   1685404   1685226   1685114   1685050   1685010  
  7820.000000   1684974   1684932   1684875   1684785   1684624  
  7810.000000   1684336   1683861   1683165   1682259   1681210  
  7800.000000   1680126   1679131   1678317   1677728   1677331  
  7790.000000   1677047   1676766   1676398   1675888   1675234  
  7780.000000   1674475   1673667   1672858   1672068   1671286  
  7770.000000   1670478   1669609   1668658   1667638   1666598  
  7760.000000   1665614   1664770   1664128   1663707   1663464  
  7750.000000   1663300   1663080   1662671   1661990   1661031  
  7740.000000   1659881   1658690   1657630   1656837   1656360  
  7730.000000   1656149   1656074   1655966   1655689   1655175  
  7720.000000   1654447   1653594   1652732   1651954   1651303  
  7710.000000   1650763   1650289   1649830   1649367   1648908  
  7700.000000   1648487   1648132   1647851   1647617   1647388  
  7690.000000   1647117   1646788   1646408   1646013   1645640  
  7680.000000   1645314   1645032   1644776   1644525   1644275  
  7670.000000   1644047   1643878   1643804   1643833   1643936  
  7660.000000   1644046   1644078   1643964   1643669   1643217  
  7650.000000   1642669   1642114   1641628   1641262   1641028  
  7640.000000   1640905   1640860   1640861   1640897   1640979  
  7630.000000   1641131   1641377   1641723   1642142   1642571  
  7620.000000   1642927   1643116   1643068   1642752   1642201  
  7610.000000   1641499   1640778   1640177   1639817   1639762  
  7600.000000   1640013   1640510   1641157   1641847   1642493  
  7590.000000   1643040   1643477   1643824   1644131   1644446  
  7580.000000   1644821   1645282   1645846   1646495   1647198  
  7570.000000   1647894   1648529   1649050   1649446   1649742  
  7560.000000   1650008   1650332   1650802   1651473   1652356  
  7550.000000   1653408   1654559   1655725   1656851   1657906  
  7540.000000   1658901   1659859   1660809   1661761   1662718  
  7530.000000   1663668   1664616   1665577   1666588   1667686  
  7520.000000   1668902   1670227   1671624   1673025   1674365  
  7510.000000   1675596   1676723   1677792   1678892   1680117  
  7500.000000   1681547   1683215   1685102   1687141   1689250  
  7490.000000   1691347   1693388   1695360   1697292   1699221  
  7480.000000   1701188   1703198   1705242   1707274   1709264  
  7470.000000   1711179   1713026   1714831   1716640   1718499  
  7460.000000   1720445   1722503   1724695   1727040   1729566  
  7450.000000   1732286   1735203   1738268   1741398   1744462  
  7440.000000   1747333   1749911   1752175   1754183   1756062  
  7430.000000   1757971   1760054   1762399   1765016   1767849  
  7420.000000   1770805   1773794   1776750   1779642   1782466  
  7410.000000   1785226   1787921   1790538   1793062   1795488  
  7400.000000   1797833   1800128   1802412   1804714   1807039  
  7390.000000   1809375   1811693   1813967   1816184   1818348  
  7380.000000   1820468   1822554   1824607   1826617   1828578  
  7370.000000   1830492   1832386   1834297   1836274   1838349  
  7360.000000   1840536   1842826   1845198   1847634   1850128  
  7350.000000   1852689   1855331   1858052   1860825   1863599  
  7340.000000   1866308   1868902   1871355   1873681   1875921  
  7330.000000   1878126   1880331   1882545   1884740   1886874  
  7320.000000   1888892   1890760   1892463   1894021   1895471  
  7310.000000   1896872   1898276   1899733   1901266   1902882  
  7300.000000   1904551   1906231   1907862   1909396   1910797  
  7290.000000   1912070   1913242   1914371   1915510   1916708  
  7280.000000   1917980   1919311   1920657   1921959   1923153  
  7270.000000   1924186   1925026   1925673   1926161   1926560  
  7260.000000   1926965   1927479   1928197   1929166   1930383  
  7250.000000   1931771   1933221   1934603   1935833   1936881  
  7240.000000   1937812   1938737   1939808   1941136   1942793  
  7230.000000   1944764   1946997   1949395   1951892   1954426  
  7220.000000   1956987   1959563   1962167   1964793   1967458  
  7210.000000   1970162   1972946   1975832   1978865   1982043  
  7200.000000   1985357   1988743   1992153   1995531   1998890  
  7190.000000   2002266   2005759   2009452   2013425   2017683  
  7180.000000   2022197   2026875   2031637   2036399   2041140  
  7170.000000   2045847   2050561   2055300   2060102   2064961  
  7160.000000   2069892   2074873   2079918   2085019   2090197  
  7150.000000   2095458   2100834   2106347   2112047   2117970  
  7140.000000   2124165   2130635   2137368   2144282   2151295  
  7130.000000   2158281   2165161   2171863   2178405   2184828  
  7120.000000   2191251   2197783   2204556   2211646   2219106  
  7110.000000   2226913   2235020   2243325   2251740   2260170  
  7100.000000   2268570   2276921   2285260   2293628   2302086  
  7090.000000   2310651   2319330   2328082   2336871   2345655  
  7080.000000   2354428   2363201   2372014   2380898   2389879  
  7070.000000   2398948   2408084   2417245   2426397   2435506  
  7060.000000   2444554   2453522   2462401   2471186   2479887  
  7050.000000   2488538   2497190   2505902   2514719   2523651  
  7040.000000   2532660   2541677   2550615   2559409   2568026  
  7030.000000   2576483   2584821   2593094   2601334   2609551  
  7020.000000   2617723   2625836   2633872   2641845   2649769  
  7010.000000   2657668   2665532   2673341   2681040   2688592  
  7000.000000   2695956   2703135   2710129   2716967   2723647  
  6990.000000   2730179   2736541   2742741   2748776   2754683  
  6980.000000   2760472   2766171   2771756   2777214   2782505  
  6970.000000   2787635   2792619   2797525   2802402   2807300  
  6960.000000   2812201   2817064   2821795   2826325   2830601  
  6950.000000   2834640   2838478   2842188   2845814   2849393  
  6940.000000   2852915   2856377   2859761   2863075   2866316  
  6930.000000   2869490   2872566   2875514   2878284   2880864  
  6920.000000   2883257   2885521   2887714   2889903   2892105  
  6910.000000   2894310   2896470   2898549   2900521   2902403  
  6900.000000   2904222   2906012   2907776   2909499   2911140  
  6890.000000   2912676   2914109   2915491   2916889   2918375  
  6880.000000   2919979   2921684   2923430   2925137   2926735  
  6870.000000   2928184   2929475   2930625   2931654   2932582  
  6860.000000   2933431   2934237   2935056   2935969   2937043  
  6850.000000   2938323   2939791   2941381   2942983   2944498  
  6840.000000   2945855   2947050   2948118   2949127   2950126  
  6830.000000   2951140   2952154   2953143   2954083   2954974  
  6820.000000   2955820   2956632   2957386   2958043   2958537  
  6810.000000   2958829   2958909   2958833   2958685   2958571  
  6800.000000   2958554   2958658   2958843   2959050   2959215  
  6790.000000   2959313   2959346   2959349   2959344   2959339  
  6780.000000   2959303   2959196   2958975   2958622   2958145  
  6770.000000   2957577   2956952   2956303   2955649   2955009  
  6760.000000   2954400   2953850   2953379   2952994   2952665  
  6750.000000   2952336   2951935   2951403   2950716   2949900  
  6740.000000   2949012   2948118   2947259   2946439   2945624  
  6730.000000   2944773   2943856   2942886   2941906   2940975  
  6720.000000   2940129   2939369   2938647   2937894   2937041  
  6710.000000   2936053   2934935   2933726   2932474   2931217  
  6700.000000   2929970   2928729   2927481   2926223   2924956  
  6690.000000   2923693   2922436   2921182   2919907   2918594  
  6680.000000   2917227   2915816   2914375   2912929   2911483  
  6670.000000   2910032   2908549   2907014   2905415   2903767  
  6660.000000   2902089   2900403   2898703   2896962   2895132  
  6650.000000   2893182   2891105   2888949   2886789   2884717  
  6640.000000   2882791   2881028   2879384   2877791   2876169  
  6630.000000   2874471   2872683   2870834   2868963   2867107  
  6620.000000   2865278   2863473   2861669   2859849   2858000  
  6610.000000   2856119   2854205   2852256   2850268   2848243  
  6600.000000   2846194   2844148   2842136   2840182   2838287  
  6590.000000   2836420   2834538   2832593   2830566   2828471  
  6580.000000   2826360   2824303   2822361   2820571   2818931  
  6570.000000   2817414   2815978   2814584   2813208   2811828  
  6560.000000   2810429   2808984   2807464   2805846   2804125  
  6550.000000   2802327   2800507   2798731   2797059   2795517  
  6540.000000   2794097   2792756   2791441   2790102   2788713  
  6530.000000   2787269   2785793   2784311   2782855   2781451  
  6520.000000   2780122   2778886   2777759   2776749   2775857  
  6510.000000   2775066   2774352   2773680   2773023   2772354  
  6500.000000   2771654   2770911   2770114   2769256   2768340  
  6490.000000   2767381   2766412   2765479   2764626   2763881  
  6480.000000   2763239   2762660   2762075   2761410   2760605  
  6470.000000   2759634   2758509   2757273   2755987   2754713  
  6460.000000   2753501   2752387   2751390   2750512   2749741  
  6450.000000   2749053   2748410   2747773   2747109   2746400  
  6440.000000   2745652   2744879   2744106   2743339   2742566  
  6430.000000   2741752   2740863   2739878   2738813   2737720  
  6420.000000   2736680   2735773   2735057   2734544   2734202  
  6410.000000   2733967   2733764   2733528   2733218   2732813  
  6400.000000   2732315   2731734   2731095   2730424   2729764  
  6390.000000   2729153   2728630   2728206   2727867   2727573  
  6380.000000   2727266   2726900   2726451   2725937   2725405  
  6370.000000   2724913   2724505   2724190   2723936   2723685  
  6360.000000   2723373   2722952   2722406   2721752   2721027  
  6350.000000   2720278   2719537   2718831   2718168   2717552  
  6340.000000   2716976   2716429   2715891   2715339   2714744  
  6330.000000   2714088   2713358   2712565   2711725   2710864  
  6320.000000   2709995   2709125   2708239   2707325   2706363  
  6310.000000   2705353   2704294   2703201   2702070   2700901  
  6300.000000   2699667   2698350   2696925   2695390   2693749  
  6290.000000   2692030   2690249   2688435   2686590   2684724  
  6280.000000   2682828   2680905   2678946   2676960   2674940  
  6270.000000   2672891   2670806   2668687   2666526   2664325  
  6260.000000   2662073   2659765   2657383   2654917   2652360  
  6250.000000   2649721   2647023   2644307   2641611   2638974  
  6240.000000   2636407   2633912   2631466   2629045   2626619  
  6230.000000   2624170   2621682   2619151   2616572   2613950  
  6220.000000   2611294   2608621   2605955   2603316   2600716  
  6210.000000   2598153   2595607   2593052   2590465   2587842  
  6200.000000   2585197   2582562   2579971   2577449   2574998  
  6190.000000   2572598   2570217   2567822   2565394   2562927  
  6180.000000   2560430   2557916   2555402   2552901   2550433  
  6170.000000   2548024   2545708   2543518   2541472   2539559  
  6160.000000   2537738   2535943   2534104   2532171   2530129  
  6150.000000   2528002   2525846   2523716   2521652   2519662  
  6140.000000   2517726   2515802   2513856   2511866   2509833  
  6130.000000   2507776   2505721   2503691   2501703   2499767  
  6120.000000   2497892   2496084   2494354   2492702   2491126  
  6110.000000   2489611   2488144   2486709   2485306   2483936  
  6100.000000   2482614   2481342   2480120   2478926   2477741  
  6090.000000   2476538   2475318   2474087   2472882   2471737  
  6080.000000   2470688   2469752   2468937   2468226   2467606  
  6070.000000   2467053   2466555   2466090   2465655   2465231  
  6060.000000   2464822   2464424   2464058   2463741   2463507  
  6050.000000   2463370   2463348   2463431   2463611   2463862  
  6040.000000   2464176   2464538   2464955   2465424   2465959  
  6030.000000   2466554   2467213   2467928   2468701   2469528  
  6020.000000   2470414   2471355   2472350   2473388   2474460  
  6010.000000   2475551   2476651   2477746   2478825   2479871  
  6000.000000   2480871   2481811   2482694   2483533   2484365  
  5990.000000   2485231   2486179   2487238   2488428   2489738  
  5980.000000   2491150   2492630   2494158   2495710   2497287  
  5970.000000   2498881   2500505   2502164   2503881   2505672  
  5960.000000   2507571   2509594   2511763   2514063   2516472  
  5950.000000   2518938   2521416   2523857   2526246   2528581  
  5940.000000   2530891   2533207   2535565   2537984   2540473  
  5930.000000   2543025   2545629   2548270   2550932   2553597  
  5920.000000   2556246   2558856   2561409   2563889   2566292  
  5910.000000   2568620   2570879   2573078   2575221   2577313  
  5900.000000   2579360   2581378   2583387   2585417   2587492  
  5890.000000   2589627   2591821   2594063   2596332   2598613  
  5880.000000   2600894   2603173   2605445   2607695   2609900  
  5870.000000   2612020   2614025   2615892   2617632   2619275  
  5860.000000   2620879   2622499   2624188   2625980   2627893  
  5850.000000   2629935   2632110   2634422   2636870   2639442  
  5840.000000   2642114   2644848   2647604   2650348   2653067  
  5830.000000   2655767   2658469   2661192   2663943   2666707  
  5820.000000   2669451   2672137   2674730   2677214   2679581  
  5810.000000   2681844   2684001   2686061   2688009   2689848  
  5800.000000   2691566   2693189   2694723   2696201   2697616  
  5790.000000   2698973   2700226   2701344   2702266   2702961  
  5780.000000   2703381   2703511   2703329   2702838   2702046  
  5770.000000   2700995   2699737   2698354   2696926   2695533  
  5760.000000   2694227   2693043   2691986   2691062   2690265  
  5750.000000   2689603   2689078   2688691   2688432   2688274  
  5740.000000   2688190   2688150   2688148   2688179   2688261  
  5730.000000   2688394   2688583   2688799   2689019   2689205  
  5720.000000   2689348   2689448   2689533   2689628   2689765  
  5710.000000   2689958   2690220   2690555   2690978   2691506  
  5700.000000   2692160   2692948   2693857   2694850   2695872  
  5690.000000   2696869   2697800   2698654   2699440   2700188  
  5680.000000   2700916   2701633   2702319   2702946   2703473  
  5670.000000   2703874   2704125   2704221   2704152   2703924  
  5660.000000   2703535   2703004   2702354   2701637   2700900  
  5650.000000   2700195   2699543   2698951   2698389   2697825  
  5640.000000   2697223   2696575   2695885   2695180   2694483  
  5630.000000   2693813   2693170   2692543   2691915   2691276  
  5620.000000   2690620   2689953   2689284   2688621   2687965  
  5610.000000   2687319   2686676   2686038   2685398   2684752  
  5600.000000   2684086   2683388   2682642   2681841   2680984  
  5590.000000   2680083   2679145   2678177   2677170   2676111  
  5580.000000   2674977   2673762   2672469   2671124   2669754  
  5570.000000   2668389   2667037   2665694   2664339   2662961  
  5560.000000   2661556   2660141   2658743   2657390   2656093  
  5550.000000   2654846   2653624   2652398   2651148   2649873  
  5540.000000   2648587   2647311   2646066   2644857   2643680  
  5530.000000   2642525   2641384   2640259   2639155   2638080  
  5520.000000   2637031   2635996   2634953   2633882   2632770  
  5510.000000   2631620   2630436   2629228   2627993   2626725  
  5500.000000   2625413   2624057   2622670   2621286   2619936  
  5490.000000   2618646   2617405   2616182   2614919   2613569  
  5480.000000   2612097   2610513   2608842   2607132   2605414  
  5470.000000   2603705   2601990   2600243   2598432   2596543  
  5460.000000   2594567   2592509   2590367   2588140   2585819  
  5450.000000   2583409   2580930   2578425   2575948   2573549  
  5440.000000   2571257   2569068   2566957   2564888   2562839  
  5430.000000   2560800   2558784   2556799   2554854   2552934  
  5420.000000   2551031   2549135   2547277   2545500   2543885  
  5410.000000   2542481   2541327   2540394   2539641   2538995  
  5400.000000   2538423   2537900   2537457   2537114   2536916  
  5390.000000   2536862   2536955   2537162   2537490   2537936  
  5380.000000   2538554   2539367   2540424   2541705   2543197  
  5370.000000   2544824   2546555   2548328   2550161   2552044  
  5360.000000   2554043   2556171   2558507   2561064   2563928  
  5350.000000   2567112   2570705   2574705   2579176   2584076  
  5340.000000   2589441   2595216   2601454   2608118   2615286  
  5330.000000   2622915   2631061   2639646   2648705   2658162  
  5320.000000   2668098   2678495   2689502   2701130   2713532  
  5310.000000   2726676   2740658   2755389   2770934   2787211  
  5300.000000   2804316   2822212   2841037   2860780   2881577  
  5290.000000   2903385   2926265   2950090   2974821   3000272  
  5280.000000   3026394   3053072   3080373   3108317   3137055  
  5270.000000   3166615   3197022   3228115   3259681   3291428  
  5260.000000   3323115   3354603   3385864   3416983   3448028  
  5250.000000   3479056   3509957   3540590   3570664   3600007  
  5240.000000   3628401   3655866   3682370   3708082   3733012  
  5230.000000   3757295   3780840   3803671   3825607   3846649  
  5220.000000   3866653   3885710   3903781   3921047   3937514  
  5210.000000   3953351   3968489   3982978   3996632   4009433  
  5200.000000   4021203   4032008   4041798   4050757   4058904  
  5190.000000   4066412   4073240   4079467   4084983   4089837  
  5180.000000   4093942   4097391   4100144   4102303   4103812  
  5170.000000   4104736   4104999   4104671   4103720   4102259  
  5160.000000   4100294   4097932   4095147   4091988   4088391  
  5150.000000   4084390   4079948   4075138   4069958   4064488  
  5140.000000   4058712   4052673   4046337   4039739   4032872  
  5130.000000   4025804   4018553   4011186   4003702   3996127  
  5120.000000   3988433   3980637   3972730   3964757   3956735  
  5110.000000   3948710   3940681   3932654   3924595   3916493  
  5100.000000   3908328   3900118   3891881   3883655   3875461  
  5090.000000   3867321   3859228   3851179   3843154   3835150  
  5080.000000   3827152   3819159   3811157   3803139   3795090  
  5070.000000   3787003   3778871   3770703   3762503   3754284  
  5060.000000   3746045   3737787   3729501   3721186   3712841  
  5050.000000   3704479   3696113   3687758   3679422   3671106  
  5040.000000   3662804   3654508   3646218   3637940   3629693  
  5030.000000   3621496   3613378   3605354   3597446   3589655  
  5020.000000   3581999   3574474   3567098   3559863   3552786  
  5010.000000   3545851   3539070   3532425   3525939   3519606  
  5000.000000   3513469   3507532   3501847   3496411   3491267  
  4990.000000   3486399   3481843   3477580   3473650   3470033  
  4980.000000   3466774   3463845   3461287   3459063   3457215  
  4970.000000   3455709   3454597   3453853   3453527   3453585  
  4960.000000   3454066   3454920   3456182   3457807   3459841  
  4950.000000   3462252   3465091   3468325   3471990   3476033  
  4940.000000   3480474   3485255   3490398   3495854   3501654  
  4930.000000   3507758   3514198   3520931   3527986   3535324  
  4920.000000   3542973   3550899   3559127   3567621   3576396  
  4910.000000   3585412   3594681   3604169   3613892   3623826  
  4900.000000   3633978   3644318   3654833   3665484   3676244  
  4890.000000   3687075   3697954   3708857   3719761   3730645  
  4880.000000   3741481   3752247   3762912   3773458   3783853  
  4870.000000   3794086   3804125   3813959   3823558   3832925  
  4860.000000   3842044   3850942   3859619   3868114   3876419  
  4850.000000   3884559   3892505   3900269   3907818   3915172  
  4840.000000   3922316   3929285   3936076   3942725   3949217  
  4830.000000   3955572   3961759   3967783   3973605   3979225  
  4820.000000   3984608   3989769   3994690   3999408   4003926  
  4810.000000   4008290   4012506   4016602   4020561   4024390  
  4800.000000   4028061   4031584   4034949   4038191   4041322  
  4790.000000   4044382   4047373   4050315   4053188   4055994  
  4780.000000   4058711   4061349   4063895   4066367   4068751  
  4770.000000   4071055   4073247   4075327   4077260   4079051  
  4760.000000   4080675   4082142   4083424   4084524   4085405  
  4750.000000   4086065   4086472   4086641   4086563   4086275  
  4740.000000   4085779   4085115   4084275   4083283   4082113  
  4730.000000   4080772   4079228   4077485   4075519   4073344  
  4720.000000   4070956   4068388   4065658   4062814   4059884  
  4710.000000   4056913   4053917   4050918   4047911   4044900  
  4700.000000   4041871   4038826   4035762   4032692   4029622  
  4690.000000   4026571   4023544   4020549   4017585   4014646  
  4680.000000   4011721   4008793   4005847   4002861   3999822  
  4670.000000   3996716   3993550   3990332   3987096   3983874  
  4660.000000   3980715   3977654   3974733   3971967   3969373  
  4650.000000   3966944   3964677   3962557   3960580   3958735  
  4640.000000   3957021   3955429   3953960   3952598   3951334  
  4630.000000   3950143   3949009   3947901   3946803   3945689  
  4620.000000   3944551   3943375   3942160   3940901   3939600  
  4610.000000   3938256   3936874   3935456   3934014   3932563  
  4600.000000   3931118   3929698   3928317   3926984   3925701  
  4590.000000   3924469   3923283   3922141   3921038   3919970  
  4580.000000   3918927   3917897   3916854   3915778   3914643  
  4570.000000   3913436   3912147   3910783   3909349   3907863  
  4560.000000   3906331   3904759   3903145   3901489   3899783  
  4550.000000   3898029   3896222   3894364   3892451   3890482  
  4540.000000   3888457   3886379   3884266   3882131   3880010  
  4530.000000   3877921   3875905   3873973   3872162   3870475  
  4520.000000   3868956   3867604   3866470   3865550   3864901  
  4510.000000   3864512   3864454   3864724   3865421   3866556  
  4500.000000   3868247   3870500   3873418   3876977   3881252  
  4490.000000   3886197   3891882   3898265   3905423   3913317  
  4480.000000   3922010   3931437   3941626   3952484   3964015  
  4470.000000   3976121   3988803   4001971   4015621   4029664  
  4460.000000   4044079   4058773   4073713   4088810   4104032  
  4450.000000   4119309   4134611   4149890   4165122   4180277  
  4440.000000   4195333   4210283   4225100   4239795   4254338  
  4430.000000   4268754   4282998   4297099   4310989   4324678  
  4420.000000   4338059   4351121   4363722   4375836   4387307  
  4410.000000   4398110   4408091   4417226   4425369   4432511  
  4400.000000   4438536   4443480   4447293   4450077   4451858  
  4390.000000   4452791   4452946   4452487   4451494   4450112  
  4380.000000   4448413   4446524   4444521   4442524   4440623  
  4370.000000   4438936   4437568   4436622   4436199   4436366  
  4360.000000   4437192   4438690   4440874   4443694   4447107  
  4350.000000   4451024   4455378   4460096   4465142   4470492  
  4340.000000   4476154   4482116   4488342   4494723   4501077  
  4330.000000   4507141   4512610   4517186   4520642   4522882  
  4320.000000   4523963   4524107   4523628   4522910   4522268  
  4310.000000   4521972   4522120   4522746   4523741   4525001  
  4300.000000   4526365   4527739   4529014   4530146   4531081  
  4290.000000   4531799   4532278   4532524   4532547   4532387  
  4280.000000   4532081   4531690   4531249   4530818   4530417  
  4270.000000   4530099   4529865   4529731   4529644   4529533  
  4260.000000   4529251   4528646   4527539   4525806   4523377  
  4250.000000   4520287   4516646   4512647   4508496   4504406  
  4240.000000   4500526   4496962   4493733   4490826   4488173  
  4230.000000   4485704   4483340   4481011   4478659   4476235  
  4220.000000   4473717   4471086   4468367   4465580   4462792  
  4210.000000   4460050   4457433   4454983   4452757   4450771  
  4200.000000   4449056   4447600   4446414   4445464   4444748  
  4190.000000   4444215   4443862   4443634   4443548   4443566  
  4180.000000   4443738   4444053   4444589   4445353   4446446  
  4170.000000   4447892   4449805   4452215   4455234   4458871  
  4160.000000   4463203   4468189   4473860   4480135   4487021  
  4150.000000   4494426   4502367   4510762   4519643   4528943  
  4140.000000   4538714   4548914   4559614   4570789   4582514  
  4130.000000   4594751   4607547   4620836   4634633   4648869  
  4120.000000   4663561   4678665   4694224   4710216   4726687  
  4110.000000   4743605   4760987   4778772   4796939   4815407  
  4100.000000   4834138   4853059   4872146   4891360   4910709  
  4090.000000   4930192   4949830   4969632   4989597   5009719  
  4080.000000   5029968   5050333   5070779   5091303   5111857  
  4070.000000   5132428   5152935   5173345   5193553   5213543  
  4060.000000   5233230   5252637   5271694   5290428   5308739  
  4050.000000   5326634   5343985   5360809   5376987   5392566  
  4040.000000   5407423   5421598   5434937   5447466   5459028  
  4030.000000   5469681   5479302   5487971   5495575   5502162  
  4020.000000   5507562   5511817   5514851   5516755   5517458  
  4010.000000   5517160   5515979   5513993   5510960   5507021  
  4000.000000   5502627  
##END= 
