##TITLE= Sample 005 By ssteindl date Donnerstag, November 22 2018
##JCAMP-DX= 4.24
##DATA TYPE= INFRARED SPECTRUM
##ORIGIN= Exported PE Spectrum Data File
##OWNER= Sandra Steindl
##DATE= 18/11/22
##TIME= 12:41:17.00
##SPECTROMETER/DATA SYSTEM= PERKIN-ELMER Frontier FT-IR/NIR IR
##INSTRUMENT PARAMETERS=
  APODIZATION=stark
  DETECTOR=INGAAS
##RESOLUTION= 16.000000
##DELTAX= -2.000000
##XUNITS= 1/CM
##YUNITS= A
##XFACTOR= 1.00
##YFACTOR= 0.00000011920928955078
##FIRSTX= 10000.00
##LASTX= 4000.00
##NPOINTS= 3001
##FIRSTY= 0.299164
##MAXY= 0.642439
##MINY= 0.215565
##XYDATA= (X++(Y..Y))
 10000.000000   2509567   2507373   2504131   2499370   2494729  
  9990.000000   2492284   2492274   2493073   2492864   2490371  
  9980.000000   2484989   2476896   2467312   2457914   2450103  
  9970.000000   2444612   2441513   2440400   2440673   2441861  
  9960.000000   2443767   2446375   2449657   2453375   2456947  
  9950.000000   2459598   2460587   2459548   2456714   2452851  
  9940.000000   2449083   2446399   2445348   2445735   2446727  
  9930.000000   2447094   2445698   2441892   2435754   2428110  
  9920.000000   2420152   2413164   2407973   2404936   2403885  
  9910.000000   2404459   2406354   2409374   2413416   2418069  
  9900.000000   2422556   2425581   2425773   2422036   2414166  
  9890.000000   2403015   2390519   2379160   2371355   2368752  
  9880.000000   2371797   2379730   2390796   2402889   2413952  
  9870.000000   2422513   2427761   2429661   2428774   2426091  
  9860.000000   2422807   2419983   2418392   2418178   2418935  
  9850.000000   2419677   2419231   2416604   2411340   2403802  
  9840.000000   2394988   2386355   2379279   2374754   2373143  
  9830.000000   2374210   2377298   2381562   2386159   2390364  
  9820.000000   2393621   2395587   2396215   2395779   2394896  
  9810.000000   2394331   2394791   2396559   2399377   2402423  
  9800.000000   2404647   2405185   2403735   2400754   2397202  
  9790.000000   2394215   2392513   2392196   2392695   2393138  
  9780.000000   2392789   2391387   2389218   2386883   2384881  
  9770.000000   2383335   2381880   2379930   2377057   2373310  
  9760.000000   2369347   2366131   2364541   2364867   2366620  
  9750.000000   2368699   2369798   2369025   2366239   2362161  
  9740.000000   2358058   2355233   2354559   2356162   2359483  
  9730.000000   2363471   2366972   2368981   2368873   2366449  
  9720.000000   2361948   2356011   2349583   2343805   2339775  
  9710.000000   2338293   2339583   2343164   2347926   2352460  
  9700.000000   2355449   2356145   2354487   2351129   2347067  
  9690.000000   2343285   2340451   2338756   2338059   2337963  
  9680.000000   2338076   2337997   2337395   2335928   2333303  
  9670.000000   2329377   2324305   2318659   2313367   2309514  
  9660.000000   2307984   2309171   2312795   2318025   2323710  
  9650.000000   2328788   2332535   2334714   2335521   2335344  
  9640.000000   2334611   2333551   2332248   2330617   2328555  
  9630.000000   2325985   2322898   2319403   2315707   2312196  
  9620.000000   2309337   2307695   2307656   2309326   2312282  
  9610.000000   2315655   2318308   2319207   2317817   2314279  
  9600.000000   2309420   2304393   2300278   2297623   2296330  
  9590.000000   2295714   2294951   2293420   2291048   2288257  
  9580.000000   2285739   2284115   2283621   2284108   2285137  
  9570.000000   2286302   2287453   2288758   2290609   2293329  
  9560.000000   2296944   2301058   2304923   2307709   2308763  
  9550.000000   2307888   2305361   2301845   2298131   2294913  
  9540.000000   2292604   2291301   2290802   2290680   2290393  
  9530.000000   2289354   2287095   2283338   2278154   2271976  
  9520.000000   2265561   2259825   2255584   2253368   2253272  
  9510.000000   2255034   2258154   2262132   2266572   2271240  
  9500.000000   2275961   2280500   2284480   2287361   2288620  
  9490.000000   2287897   2285235   2281080   2276216   2271500  
  9480.000000   2267610   2264895   2263288   2262473   2261975  
  9470.000000   2261404   2260488   2259157   2257430   2255382  
  9460.000000   2253050   2250462   2247662   2244764   2241975  
  9450.000000   2239548   2237728   2236666   2236344   2236585  
  9440.000000   2237069   2237431   2237375   2236720   2235483  
  9430.000000   2233759   2231738   2229524   2227183   2224653  
  9420.000000   2221891   2218894   2215845   2213113   2211173  
  9410.000000   2210514   2211382   2213783   2217353   2221570  
  9400.000000   2225847   2229766   2233156   2236037   2238478  
  9390.000000   2240357   2241301   2240713   2238060   2233103  
  9380.000000   2226139   2217995   2209868   2203007   2198298  
  9370.000000   2196035   2195791   2196695   2197725   2198107  
  9360.000000   2197513   2196087   2194343   2192865   2192100  
  9350.000000   2192148   2192800   2193658   2194354   2194686  
  9340.000000   2194705   2194687   2195041   2196182   2198323  
  9330.000000   2201365   2204803   2207860   2209665   2209516  
  9320.000000   2207103   2202625   2196806   2190673   2185278  
  9310.000000   2181313   2178941   2177756   2177020   2175925  
  9300.000000   2173900   2170829   2167060   2163347   2160519  
  9290.000000   2159299   2160047   2162773   2167167   2172702  
  9280.000000   2178726   2184486   2189242   2192327   2193310  
  9270.000000   2192051   2188793   2184095   2178747   2173551  
  9260.000000   2169129   2165805   2163558   2162185   2161331  
  9250.000000   2160730   2160145   2159504   2158765   2157930  
  9240.000000   2156973   2155854   2154552   2153035   2151280  
  9230.000000   2149207   2146748   2143848   2140609   2137283  
  9220.000000   2134319   2132203   2131300   2131641   2132848  
  9210.000000   2134235   2135058   2134795   2133370   2131230  
  9200.000000   2129200   2128151   2128615   2130598   2133568  
  9190.000000   2136679   2139075   2140184   2139910   2138543  
  9180.000000   2136609   2134565   2132658   2130846   2128903  
  9170.000000   2126599   2123849   2120801   2117779   2115241  
  9160.000000   2113616   2113253   2114256   2116535   2119736  
  9150.000000   2123323   2126619   2128928   2129727   2128790  
  9140.000000   2126330   2122890   2119226   2116028   2113726  
  9130.000000   2112348   2111554   2110846   2109805   2108314  
  9120.000000   2106551   2104943   2103901   2103671   2104164  
  9110.000000   2105015   2105725   2105866   2105248   2103928  
  9100.000000   2102168   2100278   2098523   2097032   2095820  
  9090.000000   2094814   2093930   2093067   2092119   2090958  
  9080.000000   2089465   2087591   2085411   2083170   2081233  
  9070.000000   2080006   2079766   2080558   2082110   2083945  
  9060.000000   2085515   2086407   2086462   2085806   2084783  
  9050.000000   2083748   2082935   2082308   2081633   2080543  
  9040.000000   2078736   2076084   2072724   2069045   2065575  
  9030.000000   2062872   2061324   2061120   2062160   2064126  
  9020.000000   2066533   2068847   2070620   2071533   2071464  
  9010.000000   2070460   2068725   2066524   2064143   2061835  
  9000.000000   2059837   2058333   2057446   2057208   2057535  
  8990.000000   2058222   2058953   2059392   2059283   2058534  
  8980.000000   2057256   2055720   2054285   2053244   2052767  
  8970.000000   2052829   2053301   2053986   2054734   2055467  
  8960.000000   2056155   2056798   2057332   2057694   2057821  
  8950.000000   2057778   2057755   2058055   2058961   2060579  
  8940.000000   2062729   2064918   2066476   2066749   2065355  
  8930.000000   2062326   2058134   2053528   2049308   2046091  
  8920.000000   2044179   2043537   2043874   2044807   2045976  
  8910.000000   2047147   2048164   2048971   2049539   2049900  
  8900.000000   2050136   2050377   2050801   2051522   2052571  
  8890.000000   2053778   2054838   2055362   2055024   2053695  
  8880.000000   2051474   2048716   2045889   2043506   2041944  
  8870.000000   2041411   2041870   2043084   2044661   2046125  
  8860.000000   2047009   2046904   2045581   2043029   2039528  
  8850.000000   2035554   2031707   2028529   2026416   2025513  
  8840.000000   2025735   2026840   2028542   2030607   2032865  
  8830.000000   2035202   2037485   2039535   2041152   2042158  
  8820.000000   2042537   2042428   2042144   2042011   2042247  
  8810.000000   2042853   2043591   2044117   2044116   2043504  
  8800.000000   2042467   2041422   2040812   2040916   2041686  
  8790.000000   2042755   2043564   2043580   2042520   2040461  
  8780.000000   2037828   2035236   2033278   2032344   2032512  
  8770.000000   2033588   2035210   2036990   2038622   2039938  
  8760.000000   2040892   2041536   2041941   2042192   2042358  
  8750.000000   2042497   2042668   2042892   2043159   2043395  
  8740.000000   2043480   2043274   2042649   2041569   2040092  
  8730.000000   2038395   2036712   2035281   2034283   2033783  
  8720.000000   2033720   2033911   2034109   2034069   2033631  
  8710.000000   2032767   2031608   2030409   2029478   2029093  
  8700.000000   2029404   2030411   2031946   2033743   2035503  
  8690.000000   2036989   2038084   2038777   2039145   2039255  
  8680.000000   2039152   2038784   2038063   2036864   2035145  
  8670.000000   2032950   2030471   2028000   2025887   2024477  
  8660.000000   2024006   2024583   2026124   2028430   2031204  
  8650.000000   2034139   2036974   2039526   2041714   2043507  
  8640.000000   2044903   2045867   2046355   2046311   2045736  
  8630.000000   2044712   2043449   2042230   2041354   2041039  
  8620.000000   2041353   2042181   2043244   2044199   2044727  
  8610.000000   2044649   2043963   2042856   2041654   2040737  
  8600.000000   2040442   2041000   2042472   2044746   2047531  
  8590.000000   2050444   2053064   2055045   2056177   2056451  
  8580.000000   2056059   2055318   2054565   2054022   2053743  
  8570.000000   2053573   2053241   2052458   2051058   2049082  
  8560.000000   2046761   2044488   2042660   2041607   2041466  
  8550.000000   2042211   2043669   2045597   2047728   2049807  
  8540.000000   2051612   2052942   2053647   2053651   2053012  
  8530.000000   2051912   2050649   2049538   2048840   2048657  
  8520.000000   2048908   2049356   2049716   2049756   2049395  
  8510.000000   2048718   2047939   2047297   2046963   2046979  
  8500.000000   2047272   2047708   2048184   2048685   2049314  
  8490.000000   2050232   2051587   2053427   2055656   2058044  
  8480.000000   2060289   2062114   2063364   2064037   2064280  
  8470.000000   2064338   2064462   2064850   2065575   2066602  
  8460.000000   2067800   2069005   2070051   2070824   2071265  
  8450.000000   2071382   2071200   2070773   2070150   2069389  
  8440.000000   2068549   2067697   2066903   2066235   2065741  
  8430.000000   2065445   2065330   2065366   2065502   2065719  
  8420.000000   2066009   2066400   2066913   2067562   2068327  
  8410.000000   2069140   2069896   2070469   2070749   2070651  
  8400.000000   2070138   2069221   2067963   2066474   2064896  
  8390.000000   2063398   2062140   2061261   2060831   2060841  
  8380.000000   2061183   2061687   2062156   2062420   2062373  
  8370.000000   2061999   2061361   2060569   2059732   2058934  
  8360.000000   2058225   2057639   2057215   2057000   2057039  
  8350.000000   2057348   2057883   2058518   2059052   2059252  
  8340.000000   2058928   2057991   2056501   2054648   2052708  
  8330.000000   2050976   2049692   2048996   2048896   2049300  
  8320.000000   2050040   2050939   2051821   2052552   2053030  
  8310.000000   2053203   2053059   2052624   2051960   2051151  
  8300.000000   2050302   2049503   2048818   2048257   2047781  
  8290.000000   2047323   2046795   2046132   2045306   2044351  
  8280.000000   2043346   2042406   2041624   2041056   2040676  
  8270.000000   2040404   2040102   2039652   2038988   2038148  
  8260.000000   2037250   2036455   2035889   2035578   2035416  
  8250.000000   2035171   2034560   2033338   2031407   2028860  
  8240.000000   2025960   2023069   2020530   2018584   2017294  
  8230.000000   2016573   2016225   2016034   2015824   2015497  
  8220.000000   2015016   2014373   2013546   2012496   2011171  
  8210.000000   2009553   2007695   2005721   2003811   2002135  
  8200.000000   2000801   1999805   1999037   1998308   1997419  
  8190.000000   1996218   1994648   1992754   1990672   1988577  
  8180.000000   1986652   1985044   1983846   1983083   1982715  
  8170.000000   1982641   1982716   1982787   1982723   1982464  
  8160.000000   1982022   1981486   1980967   1980562   1980284  
  8150.000000   1980065   1979752   1979178   1978229   1976902  
  8140.000000   1975309   1973631   1972027   1970566   1969177  
  8130.000000   1967680   1965862   1963574   1960819   1957771  
  8120.000000   1954735   1952046   1949944   1948518   1947666  
  8110.000000   1947182   1946829   1946456   1946030   1945633  
  8100.000000   1945390   1945384   1945596   1945879   1946007  
  8090.000000   1945743   1944941   1943570   1941743   1939648  
  8080.000000   1937500   1935465   1933636   1932027   1930595  
  8070.000000   1929279   1928019   1926774   1925522   1924257  
  8060.000000   1922990   1921749   1920583   1919559   1918743  
  8050.000000   1918181   1917881   1917802   1917872   1918005  
  8040.000000   1918129   1918197   1918188   1918084   1917866  
  8030.000000   1917485   1916886   1916020   1914882   1913521  
  8020.000000   1912046   1910598   1909309   1908273   1907512  
  8010.000000   1907001   1906660   1906414   1906190   1905949  
  8000.000000   1905666   1905334   1904945   1904490   1903964  
  7990.000000   1903359   1902679   1901915   1901057   1900074  
  7980.000000   1898939   1897636   1896194   1894691   1893256  
  7970.000000   1892030   1891125   1890590   1890387   1890418  
  7960.000000   1890551   1890688   1890783   1890861   1890981  
  7950.000000   1891189   1891478   1891765   1891914   1891771  
  7940.000000   1891238   1890291   1889017   1887565   1886112  
  7930.000000   1884808   1883734   1882914   1882311   1881878  
  7920.000000   1881564   1881345   1881202   1881122   1881079  
  7910.000000   1881039   1880967   1880832   1880625   1880336  
  7900.000000   1879957   1879458   1878801   1877947   1876894  
  7890.000000   1875697   1874481   1873420   1872687   1872403  
  7880.000000   1872578   1873106   1873788   1874392   1874729  
  7870.000000   1874709   1874364   1873824   1873258   1872811  
  7860.000000   1872553   1872467   1872473   1872473   1872396  
  7850.000000   1872218   1871961   1871662   1871340   1870983  
  7840.000000   1870547   1869994   1869313   1868545   1867772  
  7830.000000   1867093   1866575   1866237   1866031   1865871  
  7820.000000   1865664   1865344   1864890   1864315   1863645  
  7810.000000   1862899   1862072   1861151   1860137   1859071  
  7800.000000   1858042   1857169   1856558   1856264   1856258  
  7790.000000   1856437   1856647   1856738   1856599   1856192  
  7780.000000   1855541   1854708   1853770   1852785   1851797  
  7770.000000   1850833   1849924   1849099   1848387   1847796  
  7760.000000   1847307   1846870   1846423   1845914   1845326  
  7750.000000   1844685   1844043   1843464   1842990   1842630  
  7740.000000   1842363   1842160   1841995   1841865   1841775  
  7730.000000   1841726   1841682   1841575   1841308   1840794  
  7720.000000   1839989   1838918   1837669   1836369   1835135  
  7710.000000   1834043   1833104   1832284   1831528   1830804  
  7700.000000   1830118   1829512   1829044   1828746   1828609  
  7690.000000   1828561   1828496   1828297   1827885   1827229  
  7680.000000   1826370   1825396   1824424   1823567   1822918  
  7670.000000   1822529   1822414   1822545   1822861   1823277  
  7660.000000   1823693   1824015   1824167   1824113   1823860  
  7650.000000   1823452   1822965   1822479   1822064   1821765  
  7640.000000   1821589   1821506   1821450   1821341   1821089  
  7630.000000   1820636   1819959   1819102   1818155   1817245  
  7620.000000   1816493   1815974   1815693   1815574   1815483  
  7610.000000   1815272   1814834   1814144   1813268   1812349  
  7600.000000   1811549   1811004   1810778   1810847   1811120  
  7590.000000   1811465   1811757   1811905   1811876   1811676  
  7580.000000   1811354   1810955   1810529   1810101   1809695  
  7570.000000   1809314   1808969   1808669   1808434   1808296  
  7560.000000   1808294   1808478   1808891   1809561   1810483  
  7550.000000   1811606   1812837   1814045   1815098   1815876  
  7540.000000   1816314   1816393   1816158   1815683   1815076  
  7530.000000   1814433   1813845   1813374   1813062   1812928  
  7520.000000   1812969   1813172   1813509   1813953   1814482  
  7510.000000   1815090   1815784   1816578   1817492   1818528  
  7500.000000   1819676   1820891   1822127   1823317   1824415  
  7490.000000   1825377   1826191   1826851   1827382   1827816  
  7480.000000   1828210   1828625   1829134   1829801   1830670  
  7470.000000   1831752   1833017   1834399   1835816   1837191  
  7460.000000   1838475   1839650   1840737   1841766   1842768  
  7450.000000   1843753   1844711   1845620   1846466   1847255  
  7440.000000   1848029   1848844   1849760   1850813   1852003  
  7430.000000   1853288   1854604   1855879   1857068   1858161  
  7420.000000   1859196   1860232   1861348   1862605   1864045  
  7410.000000   1865673   1867466   1869376   1871341   1873291  
  7400.000000   1875158   1876887   1878449   1879843   1881103  
  7390.000000   1882286   1883456   1884662   1885918   1887199  
  7380.000000   1888449   1889607   1890637   1891552   1892410  
  7370.000000   1893303   1894319   1895516   1896887   1898374  
  7360.000000   1899886   1901333   1902661   1903870   1905006  
  7350.000000   1906138   1907321   1908572   1909854   1911100  
  7340.000000   1912240   1913231   1914085   1914855   1915625  
  7330.000000   1916476   1917455   1918566   1919769   1920999  
  7320.000000   1922194   1923312   1924347   1925325   1926296  
  7310.000000   1927315   1928427   1929656   1930996   1932415  
  7300.000000   1933867   1935293   1936641   1937872   1938971  
  7290.000000   1939948   1940836   1941683   1942541   1943455  
  7280.000000   1944453   1945543   1946710   1947920   1949124  
  7270.000000   1950264   1951291   1952170   1952900   1953510  
  7260.000000   1954070   1954666   1955392   1956319   1957488  
  7250.000000   1958887   1960472   1962162   1963879   1965544  
  7240.000000   1967114   1968564   1969912   1971189   1972466  
  7230.000000   1973814   1975334   1977108   1979209   1981650  
  7220.000000   1984400   1987355   1990393   1993371   1996193  
  7210.000000   1998808   2001256   2003613   2006001   2008509  
  7200.000000   2011198   2014058   2017059   2020139   2023268  
  7190.000000   2026430   2029653   2032963   2036395   2039937  
  7180.000000   2043565   2047216   2050839   2054387   2057865  
  7170.000000   2061298   2064765   2068343   2072129   2076172  
  7160.000000   2080494   2085047   2089759   2094515   2099224  
  7150.000000   2103806   2108257   2112612   2116980   2121464  
  7140.000000   2126167   2131110   2136273   2141555   2146867  
  7130.000000   2152122   2157315   2162484   2167736   2173169  
  7120.000000   2178873   2184860   2191098   2197485   2203921  
  7110.000000   2210304   2216591   2222769   2228885   2234996  
  7100.000000   2241181   2247495   2253982   2260637   2267431  
  7090.000000   2274294   2281152   2287933   2294608   2301184  
  7080.000000   2307725   2314313   2321033   2327929   2334995  
  7070.000000   2342162   2349340   2356432   2363381   2370175  
  7060.000000   2376843   2383434   2389993   2396543   2403090  
  7050.000000   2409624   2416138   2422635   2429120   2435598  
  7040.000000   2442053   2448459   2454778   2460992   2467106  
  7030.000000   2473162   2479216   2485324   2491500   2497723  
  7020.000000   2503920   2510016   2515940   2521674   2527240  
  7010.000000   2532703   2538125   2543558   2549003   2554436  
  7000.000000   2559795   2565033   2570106   2575016   2579775  
  6990.000000   2584429   2589007   2593549   2598053   2602522  
  6980.000000   2606924   2611237   2615424   2619479   2623392  
  6970.000000   2627187   2630876   2634485   2638004   2641419  
  6960.000000   2644687   2647782   2650688   2653437   2656074  
  6950.000000   2658676   2661283   2663915   2666528   2669067  
  6940.000000   2671457   2673672   2675717   2677654   2679550  
  6930.000000   2681465   2683408   2685351   2687228   2688980  
  6920.000000   2690573   2692015   2693339   2694599   2695826  
  6910.000000   2697047   2698259   2699476   2700718   2702028  
  6900.000000   2703440   2704972   2706589   2708219   2709754  
  6890.000000   2711101   2712203   2713065   2713742   2714323  
  6880.000000   2714893   2715516   2716216   2716998   2717846  
  6870.000000   2718749   2719689   2720651   2721604   2722516  
  6860.000000   2723350   2724091   2724747   2725357   2725967  
  6850.000000   2726620   2727327   2728069   2728805   2729495  
  6840.000000   2730115   2730671   2731182   2731674   2732145  
  6830.000000   2732584   2732956   2733250   2733473   2733679  
  6820.000000   2733933   2734303   2734810   2735433   2736094  
  6810.000000   2736702   2737169   2737445   2737519   2737415  
  6800.000000   2737167   2736812   2736375   2735880   2735353  
  6790.000000   2734834   2734360   2733971   2733676   2733473  
  6780.000000   2733338   2733255   2733215   2733230   2733308  
  6770.000000   2733443   2733588   2733664   2733579   2733256  
  6760.000000   2732671   2731861   2730917   2729951   2729054  
  6750.000000   2728270   2727588   2726965   2726348   2725714  
  6740.000000   2725067   2724440   2723869   2723369   2722926  
  6730.000000   2722502   2722053   2721548   2720983   2720384  
  6720.000000   2719787   2719231   2718743   2718334   2717999  
  6710.000000   2717727   2717495   2717268   2716995   2716616  
  6700.000000   2716070   2715319   2714361   2713242   2712040  
  6690.000000   2710850   2709747   2708769   2707905   2707109  
  6680.000000   2706314   2705470   2704539   2703520   2702422  
  6670.000000   2701272   2700084   2698879   2697665   2696460  
  6660.000000   2695272   2694115   2692982   2691857   2690705  
  6650.000000   2689490   2688176   2686750   2685209   2683572  
  6640.000000   2681859   2680097   2678304   2676504   2674717  
  6630.000000   2672971   2671282   2669663   2668102   2666576  
  6620.000000   2665047   2663483   2661861   2660184   2658469  
  6610.000000   2656744   2655031   2653343   2651679   2650030  
  6600.000000   2648391   2646757   2645130   2643510   2641891  
  6590.000000   2640265   2638622   2636963   2635300   2633662  
  6580.000000   2632076   2630563   2629118   2627714   2626310  
  6570.000000   2624861   2623342   2621748   2620095   2618409  
  6560.000000   2616713   2615017   2613325   2611635   2609958  
  6550.000000   2608315   2606740   2605258   2603881   2602594  
  6540.000000   2601356   2600116   2598827   2597454   2595990  
  6530.000000   2594448   2592854   2591240   2589641   2588091  
  6520.000000   2586623   2585268   2584042   2582944   2581947  
  6510.000000   2581004   2580053   2579040   2577931   2576723  
  6500.000000   2575440   2574121   2572806   2571521   2570273  
  6490.000000   2569054   2567849   2566649   2565452   2564267  
  6480.000000   2563104   2561973   2560873   2559797   2558731  
  6470.000000   2557657   2556556   2555407   2554196   2552914  
  6460.000000   2551565   2550164   2548744   2547339   2545987  
  6450.000000   2544709   2543514   2542394   2541337   2540327  
  6440.000000   2539362   2538440   2537565   2536735   2535941  
  6430.000000   2535167   2534403   2533645   2532909   2532218  
  6420.000000   2531601   2531070   2530624   2530239   2529885  
  6410.000000   2529530   2529162   2528776   2528380   2527977  
  6400.000000   2527560   2527115   2526627   2526090   2525519  
  6390.000000   2524945   2524408   2523938   2523546   2523219  
  6380.000000   2522921   2522617   2522276   2521891   2521467  
  6370.000000   2521017   2520554   2520079   2519586   2519070  
  6360.000000   2518530   2517974   2517415   2516867   2516326  
  6350.000000   2515787   2515231   2514649   2514040   2513421  
  6340.000000   2512808   2512215   2511632   2511035   2510380  
  6330.000000   2509634   2508773   2507809   2506769   2505705  
  6320.000000   2504656   2503654   2502707   2501810   2500942  
  6310.000000   2500087   2499226   2498344   2497419   2496436  
  6300.000000   2495373   2494225   2492996   2491716   2490417  
  6290.000000   2489142   2487915   2486750   2485632   2484540  
  6280.000000   2483438   2482295   2481078   2479763   2478333  
  6270.000000   2476781   2475113   2473356   2471552   2469758  
  6260.000000   2468029   2466408   2464906   2463513   2462185  
  6250.000000   2460875   2459529   2458115   2456612   2455020  
  6240.000000   2453351   2451622   2449855   2448075   2446303  
  6230.000000   2444562   2442867   2441226   2439633   2438078  
  6220.000000   2436547   2435028   2433513   2432000   2430487  
  6210.000000   2428966   2427427   2425858   2424253   2422613  
  6200.000000   2420958   2419309   2417693   2416123   2414606  
  6190.000000   2413134   2411697   2410292   2408928   2407622  
  6180.000000   2406391   2405243   2404173   2403159   2402172  
  6170.000000   2401184   2400180   2399150   2398101   2397032  
  6160.000000   2395947   2394839   2393703   2392537   2391347  
  6150.000000   2390147   2388958   2387797   2386676   2385602  
  6140.000000   2384575   2383594   2382658   2381765   2380904  
  6130.000000   2380056   2379198   2378306   2377371   2376393  
  6120.000000   2375402   2374430   2373514   2372674   2371918  
  6110.000000   2371234   2370613   2370044   2369532   2369087  
  6100.000000   2368721   2368431   2368203   2368003   2367803  
  6090.000000   2367574   2367317   2367040   2366773   2366533  
  6080.000000   2366336   2366176   2366051   2365949   2365886  
  6070.000000   2365876   2365953   2366139   2366456   2366896  
  6060.000000   2367455   2368109   2368850   2369663   2370553  
  6050.000000   2371511   2372537   2373615   2374739   2375895  
  6040.000000   2377086   2378312   2379589   2380917   2382311  
  6030.000000   2383765   2385288   2386881   2388559   2390329  
  6020.000000   2392198   2394150   2396166   2398203   2400231  
  6010.000000   2402216   2404151   2406036   2407892   2409734  
  6000.000000   2411584   2413453   2415359   2417317   2419350  
  5990.000000   2421469   2423685   2425980   2428327   2430681  
  5980.000000   2433014   2435305   2437571   2439840   2442161  
  5970.000000   2444566   2447079   2449690   2452388   2455147  
  5960.000000   2457961   2460821   2463738   2466709   2469735  
  5950.000000   2472796   2475883   2478984   2482109   2485280  
  5940.000000   2488525   2491865   2495308   2498841   2502437  
  5930.000000   2506066   2509698   2513314   2516891   2520402  
  5920.000000   2523807   2527058   2530108   2532926   2535510  
  5910.000000   2537887   2540103   2542214   2544263   2546288  
  5900.000000   2548308   2550354   2552451   2554648   2556981  
  5890.000000   2559481   2562140   2564924   2567762   2570582  
  5880.000000   2573314   2575911   2578355   2580642   2582785  
  5870.000000   2584796   2586692   2588495   2590242   2591980  
  5860.000000   2593766   2595644   2597644   2599765   2601991  
  5850.000000   2604295   2606659   2609077   2611564   2614134  
  5840.000000   2616801   2619560   2622394   2625273   2628176  
  5830.000000   2631081   2633986   2636884   2639769   2642626  
  5820.000000   2645438   2648187   2650871   2653504   2656108  
  5810.000000   2658708   2661313   2663923   2666510   2669066  
  5800.000000   2671569   2674054   2676538   2679085   2681701  
  5790.000000   2684402   2687118   2689776   2692232   2694357  
  5780.000000   2695987   2697008   2697309   2696855   2695650  
  5770.000000   2693791   2691418   2688736   2685933   2683200  
  5760.000000   2680637   2678310   2676194   2674263   2672458  
  5750.000000   2670768   2669184   2667729   2666417   2665250  
  5740.000000   2664208   2663254   2662352   2661462   2660572  
  5730.000000   2659663   2658739   2657791   2656828   2655854  
  5720.000000   2654897   2653989   2653172   2652472   2651900  
  5710.000000   2651436   2651043   2650674   2650298   2649902  
  5700.000000   2649498   2649107   2648751   2648438   2648164  
  5690.000000   2647919   2647693   2647491   2647321   2647199  
  5680.000000   2647118   2647064   2646987   2646836   2646545  
  5670.000000   2646068   2645361   2644403   2643177   2641683  
  5660.000000   2639929   2637951   2635804   2633569   2631327  
  5650.000000   2629160   2627108   2625191   2623386   2621664  
  5640.000000   2619989   2618347   2616737   2615170   2613658  
  5630.000000   2612203   2610803   2609446   2608136   2606873  
  5620.000000   2605676   2604550   2603496   2602495   2601522  
  5610.000000   2600549   2599566   2598577   2597607   2596681  
  5600.000000   2595816   2595005   2594227   2593451   2592653  
  5590.000000   2591826   2590983   2590146   2589337   2588565  
  5580.000000   2587823   2587099   2586378   2585660   2584951  
  5570.000000   2584265   2583606   2582965   2582313   2581613  
  5560.000000   2580826   2579927   2578909   2577786   2576582  
  5550.000000   2575328   2574058   2572803   2571594   2570463  
  5540.000000   2569428   2568499   2567662   2566885   2566122  
  5530.000000   2565331   2564479   2563560   2562583   2561572  
  5520.000000   2560550   2559534   2558527   2557526   2556525  
  5510.000000   2555525   2554523   2553523   2552517   2551499  
  5500.000000   2550453   2549377   2548271   2547153   2546036  
  5490.000000   2544935   2543837   2542720   2541545   2540284  
  5480.000000   2538922   2537473   2535963   2534429   2532893  
  5470.000000   2531359   2529805   2528207   2526535   2524783  
  5460.000000   2522956   2521075   2519160   2517227   2515287  
  5450.000000   2513351   2511432   2509551   2507731   2505987  
  5440.000000   2504324   2502731   2501193   2499695   2498237  
  5430.000000   2496823   2495466   2494159   2492892   2491628  
  5420.000000   2490350   2489040   2487734   2486479   2485357  
  5410.000000   2484416   2483692   2483158   2482778   2482493  
  5400.000000   2482286   2482144   2482105   2482192   2482442  
  5390.000000   2482839   2483380   2484022   2484770   2485618  
  5380.000000   2486616   2487783   2489162   2490735   2492500  
  5370.000000   2494402   2496443   2498593   2500897   2503354  
  5360.000000   2506022   2508890   2512004   2515341   2518966  
  5350.000000   2522882   2527186   2531886   2537064   2542681  
  5340.000000   2548772   2555266   2562204   2569537   2577339  
  5330.000000   2585573   2594308   2603481   2613141   2623218  
  5320.000000   2633799   2644865   2656565   2668910   2682056  
  5310.000000   2695976   2710763   2726328   2742728   2759870  
  5300.000000   2777837   2796588   2816257   2836841   2858482  
  5290.000000   2881147   2904898   2929601   2955196   2981475  
  5280.000000   3008365   3035733   3063638   3092105   3121293  
  5270.000000   3151253   3182024   3213470   3245393   3277524  
  5260.000000   3309637   3341610   3373422   3405158   3436875  
  5250.000000   3468608   3500220   3531547   3562282   3592253  
  5240.000000   3621261   3649355   3676535   3702997   3728768  
  5230.000000   3753983   3778534   3802414   3825410   3847489  
  5220.000000   3868489   3888499   3907492   3925674   3943086  
  5210.000000   3959919   3976124   3991752   4006604   4020636  
  5200.000000   4033649   4045688   4056698   4066862   4076209  
  5190.000000   4084916   4092944   4100368   4107071   4113093  
  5180.000000   4118348   4122933   4126820   4130124   4132801  
  5170.000000   4134917   4136399   4137307   4137607   4137408  
  5160.000000   4136721   4135663   4134216   4132439   4130266  
  5150.000000   4127724   4124761   4121427   4117704   4113653  
  5140.000000   4109251   4104539   4099492   4094159   4088547  
  5130.000000   4082736   4076755   4070671   4064483   4058211  
  5120.000000   4051822   4045322   4038698   4031989   4025214  
  5110.000000   4018421   4011620   4004831   3998041   3991254  
  5100.000000   3984463   3977682   3970917   3964185   3957479  
  5090.000000   3950798   3944121   3937444   3930753   3924055  
  5080.000000   3917343   3910619   3903863   3897063   3890197  
  5070.000000   3883262   3876257   3869203   3862109   3854992  
  5060.000000   3847840   3840645   3833381   3826040   3818617  
  5050.000000   3811134   3803609   3796072   3788528   3780981  
  5040.000000   3773414   3765816   3758177   3750505   3742816  
  5030.000000   3735137   3727491   3719894   3712354   3704868  
  5020.000000   3697434   3690044   3682701   3675401   3668157  
  5010.000000   3660971   3653863   3646843   3639942   3633173  
  5000.000000   3626574   3620149   3613925   3607890   3602060  
  4990.000000   3596413   3590970   3585716   3580683   3575860  
  4980.000000   3571283   3566933   3562842   3558990   3555414  
  4970.000000   3552101   3549097   3546388   3544014   3541939  
  4960.000000   3540188   3538714   3537541   3536638   3536057  
  4950.000000   3535790   3535904   3536390   3537300   3538596  
  4940.000000   3540303   3542361   3544783   3547511   3550569  
  4930.000000   3553913   3557584   3561552   3565864   3570498  
  4920.000000   3575496   3580827   3586517   3592526   3598867  
  4910.000000   3605500   3612438   3619652   3627152   3634903  
  4900.000000   3642894   3651072   3659400   3667821   3676296  
  4890.000000   3684787   3693265   3701704   3710065   3718311  
  4880.000000   3726377   3734224   3741789   3749054   3755982  
  4870.000000   3762582   3768823   3774719   3780225   3785350  
  4860.000000   3790052   3794359   3798260   3801813   3805029  
  4850.000000   3807975   3810660   3813134   3815393   3817473  
  4840.000000   3819367   3821112   3822712   3824209   3825614  
  4830.000000   3826968   3828282   3829584   3830875   3832164  
  4820.000000   3833438   3834692   3835916   3837110   3838285  
  4810.000000   3839461   3840666   3841923   3843251   3844655  
  4800.000000   3846134   3847675   3849271   3850916   3852612  
  4790.000000   3854360   3856164   3858017   3859913   3861836  
  4780.000000   3863776   3865723   3867679   3869646   3871627  
  4770.000000   3873626   3875633   3877638   3879620   3881563  
  4760.000000   3883446   3885256   3886973   3888592   3890095  
  4750.000000   3891483   3892749   3893905   3894956   3895922  
  4740.000000   3896808   3897626   3898370   3899044   3899637  
  4730.000000   3900155   3900597   3900977   3901303   3901591  
  4720.000000   3901846   3902077   3902290   3902494   3902700  
  4710.000000   3902923   3903179   3903480   3903839   3904261  
  4700.000000   3904755   3905324   3905983   3906740   3907614  
  4690.000000   3908617   3909761   3911046   3912472   3914020  
  4680.000000   3915669   3917378   3919112   3920820   3922467  
  4670.000000   3924015   3925460   3926801   3928073   3929307  
  4660.000000   3930555   3931854   3933245   3934750   3936394  
  4650.000000   3938189   3940148   3942275   3944569   3947012  
  4640.000000   3949575   3952219   3954897   3957571   3960207  
  4630.000000   3962790   3965306   3967750   3970108   3972367  
  4620.000000   3974495   3976467   3978247   3979819   3981164  
  4610.000000   3982293   3983209   3983947   3984528   3984997  
  4600.000000   3985375   3985706   3985997   3986275   3986523  
  4590.000000   3986747   3986910   3987000   3986975   3986818  
  4580.000000   3986490   3985982   3985265   3984342   3983204  
  4570.000000   3981875   3980367   3978721   3976959   3975119  
  4560.000000   3973210   3971251   3969232   3967155   3965004  
  4550.000000   3962781   3960477   3958102   3955660   3953167  
  4540.000000   3950637   3948092   3945559   3943058   3940619  
  4530.000000   3938250   3935967   3933758   3931630   3929566  
  4520.000000   3927586   3925682   3923899   3922239   3920756  
  4510.000000   3919449   3918378   3917544   3917028   3916845  
  4500.000000   3917100   3917810   3919077   3920890   3923325  
  4490.000000   3926346   3930017   3934305   3939283   3944922  
  4480.000000   3951291   3958339   3966101   3974493   3983520  
  4470.000000   3993084   4003185   4013732   4024731   4036098  
  4460.000000   4047832   4059856   4072164   4084689   4097430  
  4450.000000   4110332   4123397   4136584   4149885   4163271  
  4440.000000   4176729   4190242   4203798   4217392   4231002  
  4430.000000   4244628   4258225   4271781   4285228   4298542  
  4420.000000   4311632   4324469   4336948   4349035   4360619  
  4410.000000   4371663   4382061   4391785   4400749   4408957  
  4400.000000   4416365   4423025   4428951   4434250   4438990  
  4390.000000   4443314   4447321   4451160   4454918   4458707  
  4380.000000   4462569   4466562   4470689   4474977   4479431  
  4370.000000   4484085   4488968   4494119   4499565   4505321  
  4360.000000   4511377   4517707   4524252   4530962   4537737  
  4350.000000   4544522   4551193   4557725   4564030   4570164  
  4340.000000   4576124   4582020   4587832   4593529   4598841  
  4330.000000   4603399   4606626   4607968   4606917   4603253  
  4320.000000   4597059   4588809   4579219   4569175   4559482  
  4310.000000   4550797   4543470   4537624   4533131   4529788  
  4300.000000   4527344   4525605   4524438   4523758   4523528  
  4290.000000   4523684   4524208   4525027   4526144   4527516  
  4280.000000   4529174   4531109   4533332   4535829   4538578  
  4270.000000   4541561   4544737   4548065   4551431   4554673  
  4260.000000   4557516   4559637   4560677   4560350   4558486  
  4250.000000   4555124   4550473   4544929   4538935   4532967  
  4240.000000   4527370   4522402   4518125   4514521   4511447  
  4230.000000   4508754   4506268   4503850   4501390   4498809  
  4220.000000   4496088   4493223   4490288   4487356   4484571  
  4210.000000   4482038   4479899   4478212   4477041   4476361  
  4200.000000   4476149   4476319   4476814   4477540   4478456  
  4190.000000   4479491   4480641   4481864   4483190   4484597  
  4180.000000   4486131   4487774   4489576   4491518   4493653  
  4170.000000   4495974   4498553   4501405   4504612   4508188  
  4160.000000   4512202   4516636   4521527   4526828   4532564  
  4150.000000   4538687   4545231   4552159   4559514   4567258  
  4140.000000   4575441   4584022   4593056   4602510   4612441  
  4130.000000   4622814   4633675   4644975   4656746   4668935  
  4120.000000   4681577   4694641   4708180   4722189   4736727  
  4110.000000   4751782   4767384   4783485   4800060   4817012  
  4100.000000   4834270   4851717   4869277   4886862   4904434  
  4090.000000   4921970   4939477   4956979   4974500   4992077  
  4080.000000   5009716   5027446   5045236   5063084   5080907  
  4070.000000   5098660   5116212   5133497   5150381   5166833  
  4060.000000   5182763   5198193   5213054   5227382   5241101  
  4050.000000   5254252   5266773   5278748   5290152   5301095  
  4040.000000   5311530   5321517   5330936   5339789   5347931  
  4030.000000   5355381   5362040   5367973   5373126   5377562  
  4020.000000   5381205   5384125   5386318   5387881   5388783  
  4010.000000   5389169   5389109   5388600   5387394   5385528  
  4000.000000   5383326  
##END= 
