##TITLE= Sample 021 By ssteindl date Donnerstag, November 22 2018
##JCAMP-DX= 4.24
##DATA TYPE= INFRARED SPECTRUM
##ORIGIN= Exported PE Spectrum Data File
##OWNER= Sandra Steindl
##DATE= 18/11/22
##TIME= 12:59:55.00
##SPECTROMETER/DATA SYSTEM= PERKIN-ELMER Frontier FT-IR/NIR IR
##INSTRUMENT PARAMETERS=
  APODIZATION=stark
  DETECTOR=INGAAS
##RESOLUTION= 16.000000
##DELTAX= -2.000000
##XUNITS= 1/CM
##YUNITS= A
##XFACTOR= 1.00
##YFACTOR= 0.00000011920928955078
##FIRSTX= 10000.00
##LASTX= 4000.00
##NPOINTS= 3001
##FIRSTY= 0.217666
##MAXY= 0.589316
##MINY= 0.182454
##XYDATA= (X++(Y..Y))
 10000.000000   1825915   1833631   1840762   1846331   1849460  
  9990.000000   1849690   1846731   1840830   1832854   1824298  
  9980.000000   1816625   1810933   1807462   1805638   1804185  
  9970.000000   1801722   1797274   1790636   1782417   1773719  
  9960.000000   1765742   1759305   1754702   1751696   1749835  
  9950.000000   1748721   1748282   1748781   1750700   1754453  
  9940.000000   1760162   1767509   1775813   1784139   1791585  
  9930.000000   1797358   1800984   1802236   1801224   1798326  
  9920.000000   1794200   1789702   1785729   1783079   1782184  
  9910.000000   1783079   1785232   1787802   1789714   1790100  
  9900.000000   1788484   1784995   1780311   1775392   1771158  
  9890.000000   1768113   1766177   1764749   1762972   1760189  
  9880.000000   1756263   1751793   1747906   1745907   1746697  
  9870.000000   1750368   1756065   1762156   1766825   1768544  
  9860.000000   1766671   1761480   1754084   1745965   1738537  
  9850.000000   1732810   1729282   1728062   1729020   1731956  
  9840.000000   1736518   1742195   1748123   1753258   1756545  
  9830.000000   1757289   1755484   1751763   1747334   1743313  
  9820.000000   1740446   1738639   1737162   1734994   1731370  
  9810.000000   1726317   1720663   1715937   1713694   1715067  
  9800.000000   1720267   1728551   1738430   1748055   1755734  
  9790.000000   1760188   1760825   1757660   1751350   1743014  
  9780.000000   1734193   1726584   1721745   1720674   1723420  
  9770.000000   1729043   1735761   1741630   1745095   1745613  
  9760.000000   1743711   1740745   1738275   1737395   1738325  
  9750.000000   1740315   1742060   1742256   1740223   1736197  
  9740.000000   1731210   1726694   1723832   1723215   1724610  
  9730.000000   1727189   1729842   1731552   1731685   1730020  
  9720.000000   1726737   1722237   1717040   1711724   1706872  
  9710.000000   1703060   1700732   1700120   1701128   1703347  
  9700.000000   1706132   1708798   1710793   1711818   1711838  
  9690.000000   1710962   1709342   1707036   1704070   1700481  
  9680.000000   1696491   1692527   1689177   1687027   1686419  
  9670.000000   1687340   1689355   1691762   1693801   1694879  
  9660.000000   1694761   1693548   1691611   1689382   1687190  
  9650.000000   1685200   1683417   1681849   1680596   1679932  
  9640.000000   1680190   1681643   1684260   1687646   1691023  
  9630.000000   1693425   1694000   1692229   1688194   1682443  
  9620.000000   1675922   1669566   1664115   1659886   1656827  
  9610.000000   1654666   1653142   1652202   1652024   1652961  
  9600.000000   1655287   1659056   1663951   1669364   1674569  
  9590.000000   1678944   1682179   1684295   1685580   1686388  
  9580.000000   1686966   1687382   1687528   1687264   1686501  
  9570.000000   1685274   1683688   1681827   1679643   1676956  
  9560.000000   1673506   1669118   1663833   1657982   1652149  
  9550.000000   1647015   1643176   1640972   1640423   1641290  
  9540.000000   1643161   1645646   1648404   1651247   1654037  
  9530.000000   1656694   1659155   1661373   1663383   1665194  
  9520.000000   1666848   1668176   1668881   1668428   1666291  
  9510.000000   1662105   1655935   1648392   1640564   1633838  
  9500.000000   1629457   1628272   1630369   1635168   1641478  
  9490.000000   1647948   1653371   1657017   1658730   1658815  
  9480.000000   1657850   1656373   1654747   1653002   1650961  
  9470.000000   1648322   1644929   1640873   1636564   1632632  
  9460.000000   1629679   1628102   1627870   1628597   1629629  
  9450.000000   1630321   1630252   1629351   1627916   1626446  
  9440.000000   1625463   1625275   1625910   1627109   1628516  
  9430.000000   1629789   1630750   1631365   1631685   1631777  
  9420.000000   1631637   1631265   1630657   1629951   1629364  
  9410.000000   1629184   1629594   1630567   1631816   1632836  
  9400.000000   1633111   1632236   1630093   1626800   1622674  
  9390.000000   1618063   1613276   1608580   1604240   1600627  
  9380.000000   1598184   1597392   1598553   1601660   1606263  
  9370.000000   1611530   1616455   1620122   1622002   1622004  
  9360.000000   1620482   1617975   1615068   1612183   1609604  
  9350.000000   1607505   1606061   1605478   1605920   1607416  
  9340.000000   1609720   1612350   1614656   1616069   1616289  
  9330.000000   1615394   1613813   1612099   1610726   1609915  
  9320.000000   1609612   1609610   1609667   1609730   1609905  
  9310.000000   1610469   1611614   1613366   1615476   1617498  
  9300.000000   1618924   1619307   1618383   1616062   1612431  
  9290.000000   1607695   1602148   1596203   1590376   1585326  
  9280.000000   1581699   1580006   1580365   1582435   1585424  
  9270.000000   1588316   1590147   1590252   1588463   1585090  
  9260.000000   1580842   1576505   1572767   1570003   1568325  
  9250.000000   1567610   1567637   1568173   1569028   1570069  
  9240.000000   1571169   1572202   1573032   1573543   1573701  
  9230.000000   1573519   1573099   1572521   1571878   1571205  
  9220.000000   1570512   1569814   1569141   1568619   1568407  
  9210.000000   1568703   1569621   1571186   1573260   1575557  
  9200.000000   1577657   1579090   1579466   1578545   1576343  
  9190.000000   1573096   1569255   1565349   1561878   1559185  
  9180.000000   1557407   1556489   1556240   1556446   1556915  
  9170.000000   1557556   1558359   1559369   1560619   1562078  
  9160.000000   1563651   1565172   1566467   1567366   1567793  
  9150.000000   1567755   1567401   1566960   1566709   1566876  
  9140.000000   1567548   1568649   1569896   1570920   1571344  
  9130.000000   1570997   1569970   1568648   1567527   1567078  
  9120.000000   1567507   1568666   1570037   1570936   1570782  
  9110.000000   1569285   1566559   1563047   1559355   1556019  
  9100.000000   1553305   1551199   1549490   1547967   1546553  
  9090.000000   1545371   1544666   1544672   1545444   1546784  
  9080.000000   1548280   1549453   1549944   1549598   1548532  
  9070.000000   1547022   1545450   1544124   1543227   1542798  
  9060.000000   1542783   1543099   1543626   1544253   1544846  
  9050.000000   1545297   1545527   1545510   1545308   1545007  
  9040.000000   1544713   1544401   1543937   1543067   1541580  
  9030.000000   1539396   1536676   1533867   1531600   1530534  
  9020.000000   1531096   1533396   1537161   1541831   1546673  
  9010.000000   1550977   1554214   1556072   1556483   1555559  
  9000.000000   1553603   1551013   1548260   1545780   1543955  
  8990.000000   1542995   1542897   1543458   1544323   1545145  
  8980.000000   1545636   1545730   1545524   1545292   1545322  
  8970.000000   1545836   1546903   1548420   1550173   1551871  
  8960.000000   1553251   1554105   1554334   1553915   1552903  
  8950.000000   1551408   1549594   1547665   1545829   1544293  
  8940.000000   1543232   1542768   1542927   1543651   1544784  
  8930.000000   1546115   1547371   1548306   1548746   1548640  
  8920.000000   1548089   1547299   1546539   1546028   1545862  
  8910.000000   1545966   1546143   1546157   1545857   1545248  
  8900.000000   1544507   1543899   1543656   1543854   1544381  
  8890.000000   1544961   1545283   1545132   1544495   1543574  
  8880.000000   1542705   1542235   1542399   1543261   1544731  
  8870.000000   1546605   1548652   1550632   1552328   1553531  
  8860.000000   1554061   1553808   1552802   1551278   1549670  
  8850.000000   1548525   1548332   1549337   1551426   1554142  
  8840.000000   1556822   1558817   1559709   1559436   1558288  
  8830.000000   1556759   1555344   1554380   1553974   1554049  
  8820.000000   1554453   1555070   1555886   1556955   1558337  
  8810.000000   1559993   1561740   1563275   1564277   1564518  
  8800.000000   1563968   1562802   1561364   1560071   1559307  
  8790.000000   1559355   1560319   1562149   1564635   1567473  
  8780.000000   1570303   1572766   1574555   1575475   1575475  
  8770.000000   1574656   1573243   1571539   1569886   1568593  
  8760.000000   1567920   1568002   1568840   1570278   1571996  
  8750.000000   1573587   1574626   1574823   1574123   1572771  
  8740.000000   1571270   1570240   1570209   1571417   1573719  
  8730.000000   1576616   1579458   1581644   1582863   1583134  
  8720.000000   1582779   1582227   1581822   1581700   1581764  
  8710.000000   1581823   1581734   1581567   1581593   1582217  
  8700.000000   1583751   1586276   1589535   1592985   1595978  
  8690.000000   1597918   1598491   1597639   1595615   1592789  
  8680.000000   1589607   1586473   1583750   1581776   1580866  
  8670.000000   1581330   1583369   1587013   1592012   1597878  
  8660.000000   1603940   1609498   1613971   1617005   1618561  
  8650.000000   1618852   1618309   1617411   1616624   1616288  
  8640.000000   1616598   1617581   1619101   1620913   1622697  
  8630.000000   1624169   1625102   1625416   1625138   1624429  
  8620.000000   1623513   1622637   1622014   1621785   1622025  
  8610.000000   1622737   1623874   1625336   1626987   1628664  
  8600.000000   1630208   1631485   1632433   1633069   1633493  
  8590.000000   1633848   1634279   1634885   1635712   1636754  
  8580.000000   1637988   1639381   1640913   1642549   1644226  
  8570.000000   1645819   1647159   1648071   1648451   1648322  
  8560.000000   1647870   1647412   1647317   1647898   1649302  
  8550.000000   1651471   1654140   1656927   1659426   1661333  
  8540.000000   1662525   1663071   1663193   1663172   1663266  
  8530.000000   1663628   1664280   1665120   1666002   1666793  
  8520.000000   1667455   1668056   1668739   1669683   1670983  
  8510.000000   1672644   1674515   1676390   1678054   1679396  
  8500.000000   1680439   1681338   1682300   1683477   1684870  
  8490.000000   1686300   1687467   1688048   1687852   1686885  
  8480.000000   1685397   1683777   1682429   1681637   1681475  
  8470.000000   1681834   1682497   1683271   1684084   1685018  
  8460.000000   1686249   1687945   1690140   1692693   1695314  
  8450.000000   1697656   1699460   1700625   1701270   1701635  
  8440.000000   1701998   1702538   1703285   1704130   1704892  
  8430.000000   1705434   1705741   1705945   1706260   1706896  
  8420.000000   1707930   1709290   1710743   1712015   1712872  
  8410.000000   1713244   1713246   1713139   1713215   1713694  
  8400.000000   1714627   1715894   1717234   1718357   1719036  
  8390.000000   1719189   1718878   1718277   1717592   1717002  
  8380.000000   1716590   1716361   1716247   1716174   1716081  
  8370.000000   1715951   1715804   1715680   1715609   1715605  
  8360.000000   1715642   1715674   1715625   1715433   1715053  
  8350.000000   1714484   1713771   1713021   1712373   1711980  
  8340.000000   1711930   1712226   1712741   1713257   1713499  
  8330.000000   1713234   1712335   1710847   1708966   1706983  
  8320.000000   1705184   1703759   1702748   1702029   1701376  
  8310.000000   1700546   1699376   1697835   1696034   1694174  
  8300.000000   1692486   1691166   1690320   1689955   1689993  
  8290.000000   1690310   1690774   1691271   1691725   1692086  
  8280.000000   1692337   1692472   1692493   1692387   1692149  
  8270.000000   1691755   1691197   1690477   1689615   1688670  
  8260.000000   1687716   1686858   1686177   1685744   1685575  
  8250.000000   1685650   1685883   1686146   1686262   1686044  
  8240.000000   1685324   1683994   1682054   1679613   1676909  
  8230.000000   1674242   1671919   1670158   1669028   1668443  
  8220.000000   1668186   1668021   1667751   1667321   1666805  
  8210.000000   1666387   1666243   1666460   1666964   1667532  
  8200.000000   1667865   1667684   1666835   1665316   1663289  
  8190.000000   1660992   1658664   1656468   1654454   1652592  
  8180.000000   1650803   1649038   1647286   1645608   1644087  
  8170.000000   1642817   1641845   1641166   1640699   1640317  
  8160.000000   1639870   1639217   1638267   1636990   1635442  
  8150.000000   1633740   1632050   1630519   1629248   1628229  
  8140.000000   1627365   1626476   1625386   1623968   1622211  
  8130.000000   1620225   1618212   1616408   1615018   1614158  
  8120.000000   1613845   1613992   1614458   1615058   1615614  
  8110.000000   1615960   1615973   1615578   1614774   1613637  
  8100.000000   1612326   1611047   1610013   1609384   1609217  
  8090.000000   1609460   1609952   1610501   1610909   1611060  
  8080.000000   1610896   1610447   1609773   1608949   1608031  
  8070.000000   1607040   1605980   1604817   1603507   1601982  
  8060.000000   1600181   1598066   1595662   1593090   1590564  
  8050.000000   1588374   1586795   1586020   1586065   1586766  
  8040.000000   1587808   1588825   1589518   1589731   1589498  
  8030.000000   1588975   1588368   1587822   1587365   1586916  
  8020.000000   1586348   1585582   1584650   1583704   1582962  
  8010.000000   1582609   1582689   1583073   1583467   1583519  
  8000.000000   1582935   1581588   1579570   1577159   1574740  
  7990.000000   1572679   1571229   1570462   1570284   1570475  
  7980.000000   1570781   1570982   1570950   1570658   1570170  
  7970.000000   1569596   1569057   1568646   1568420   1568384  
  7960.000000   1568525   1568798   1569166   1569579   1569996  
  7950.000000   1570369   1570645   1570776   1570721   1570471  
  7940.000000   1570054   1569537   1569015   1568572   1568266  
  7930.000000   1568088   1567976   1567818   1567505   1566966  
  7920.000000   1566205   1565313   1564441   1563765   1563430  
  7910.000000   1563512   1564002   1564806   1565783   1566765  
  7900.000000   1567613   1568207   1568487   1568421   1568030  
  7890.000000   1567365   1566523   1565627   1564831   1564290  
  7880.000000   1564132   1564438   1565203   1566356   1567746  
  7870.000000   1569196   1570520   1571566   1572241   1572510  
  7860.000000   1572403   1571981   1571334   1570543   1569695  
  7850.000000   1568863   1568120   1567543   1567193   1567122  
  7840.000000   1567335   1567800   1568424   1569097   1569692  
  7830.000000   1570121   1570342   1570372   1570269   1570104  
  7820.000000   1569925   1569736   1569500   1569154   1568652  
  7810.000000   1567982   1567185   1566339   1565524   1564803  
  7800.000000   1564177   1563621   1563078   1562523   1561969  
  7790.000000   1561483   1561149   1561031   1561130   1561356  
  7780.000000   1561555   1561540   1561164   1560357   1559163  
  7770.000000   1557713   1556196   1554802   1553679   1552919  
  7760.000000   1552542   1552528   1552815   1553325   1553951  
  7750.000000   1554574   1555060   1555290   1555189   1554741  
  7740.000000   1554015   1553133   1552251   1551500   1550960  
  7730.000000   1550633   1550456   1550344   1550206   1550009  
  7720.000000   1549758   1549510   1549330   1549271   1549347  
  7710.000000   1549520   1549711   1549809   1549705   1549300  
  7700.000000   1548550   1547462   1546119   1544663   1543278  
  7690.000000   1542149   1541411   1541122   1541234   1541613  
  7680.000000   1542081   1542470   1542675   1542675   1542526  
  7670.000000   1542321   1542149   1542047   1542002   1541947  
  7660.000000   1541816   1541558   1541178   1540725   1540280  
  7650.000000   1539917   1539684   1539588   1539600   1539675  
  7640.000000   1539766   1539846   1539908   1539960   1540025  
  7630.000000   1540124   1540275   1540489   1540760   1541076  
  7620.000000   1541407   1541721   1541990   1542196   1542341  
  7610.000000   1542437   1542494   1542503   1542432   1542224  
  7600.000000   1541828   1541224   1540450   1539613   1538867  
  7590.000000   1538372   1538241   1538500   1539067   1539777  
  7580.000000   1540442   1540896   1541064   1540955   1540672  
  7570.000000   1540349   1540124   1540092   1540292   1540713  
  7560.000000   1541314   1542043   1542856   1543712   1544582  
  7550.000000   1545435   1546251   1547013   1547714   1548350  
  7540.000000   1548923   1549421   1549837   1550160   1550399  
  7530.000000   1550585   1550785   1551080   1551549   1552239  
  7520.000000   1553149   1554227   1555385   1556526   1557576  
  7510.000000   1558500   1559311   1560044   1560749   1561467  
  7500.000000   1562224   1563029   1563887   1564793   1565740  
  7490.000000   1566709   1567673   1568594   1569438   1570190  
  7480.000000   1570865   1571509   1572189   1572963   1573868  
  7470.000000   1574890   1575986   1577084   1578129   1579089  
  7460.000000   1579987   1580872   1581829   1582927   1584223  
  7450.000000   1585731   1587441   1589310   1591291   1593325  
  7440.000000   1595366   1597377   1599348   1601282   1603208  
  7430.000000   1605156   1607149   1609188   1611242   1613251  
  7420.000000   1615154   1616902   1618487   1619941   1621331  
  7410.000000   1622726   1624171   1625665   1627168   1628623  
  7400.000000   1629992   1631285   1632566   1633943   1635525  
  7390.000000   1637384   1639515   1641841   1644236   1646565  
  7380.000000   1648725   1650666   1652408   1654002   1655510  
  7370.000000   1656967   1658383   1659750   1661059   1662331  
  7360.000000   1663615   1664988   1666520   1668259   1670196  
  7350.000000   1672277   1674398   1676448   1678324   1679968  
  7340.000000   1681369   1682564   1683619   1684616   1685633  
  7330.000000   1686738   1687974   1689357   1690867   1692457  
  7320.000000   1694054   1695582   1696976   1698198   1699249  
  7310.000000   1700167   1701012   1701850   1702736   1703698  
  7300.000000   1704742   1705855   1707023   1708234   1709482  
  7290.000000   1710765   1712074   1713400   1714727   1716044  
  7280.000000   1717348   1718646   1719948   1721255   1722555  
  7270.000000   1723814   1724990   1726045   1726973   1727804  
  7260.000000   1728607   1729472   1730487   1731706   1733136  
  7250.000000   1734732   1736421   1738110   1739737   1741258  
  7240.000000   1742678   1744022   1745343   1746686   1748109  
  7230.000000   1749647   1751342   1753204   1755239   1757413  
  7220.000000   1759681   1761970   1764228   1766408   1768520  
  7210.000000   1770593   1772698   1774899   1777257   1779791  
  7200.000000   1782508   1785389   1788431   1791628   1794991  
  7190.000000   1798512   1802166   1805881   1809567   1813116  
  7180.000000   1816453   1819541   1822416   1825149   1827846  
  7170.000000   1830590   1833444   1836422   1839516   1842695  
  7160.000000   1845943   1849250   1852634   1856109   1859698  
  7150.000000   1863407   1867242   1871185   1875232   1879354  
  7140.000000   1883542   1887764   1892014   1896272   1900556  
  7130.000000   1904882   1909305   1913862   1918605   1923543  
  7120.000000   1928683   1933988   1939431   1944972   1950603  
  7110.000000   1956312   1962107   1967967   1973870   1979760  
  7100.000000   1985591   1991314   1996922   2002426   2007878  
  7090.000000   2013329   2018831   2024412   2030085   2035845  
  7080.000000   2041682   2047586   2053549   2059558   2065600  
  7070.000000   2071644   2077659   2083604   2089450   2095171  
  7060.000000   2100765   2106236   2111613   2116937   2122274  
  7050.000000   2127699   2133289   2139106   2145169   2151451  
  7040.000000   2157866   2164299   2170623   2176740   2182598  
  7030.000000   2188209   2193630   2198953   2204267   2209640  
  7020.000000   2215097   2220634   2226204   2231760   2237242  
  7010.000000   2242612   2247835   2252906   2257821   2262596  
  7000.000000   2267235   2271754   2276144   2280408   2284537  
  6990.000000   2288547   2292456   2296310   2300138   2303974  
  6980.000000   2307811   2311628   2315368   2318989   2322454  
  6970.000000   2325768   2328948   2332032   2335041   2337986  
  6960.000000   2340846   2343610   2346270   2348855   2351401  
  6950.000000   2353962   2356553   2359167   2361746   2364229  
  6940.000000   2366558   2368723   2370748   2372696   2374616  
  6930.000000   2376539   2378443   2380288   2382023   2383636  
  6920.000000   2385144   2386611   2388099   2389658   2391285  
  6910.000000   2392947   2394583   2396143   2397593   2398926  
  6900.000000   2400138   2401228   2402178   2402982   2403652  
  6890.000000   2404250   2404875   2405650   2406661   2407927  
  6880.000000   2409375   2410865   2412234   2413357   2414189  
  6870.000000   2414773   2415218   2415647   2416150   2416760  
  6860.000000   2417464   2418237   2419061   2419959   2420958  
  6850.000000   2422088   2423327   2424611   2425835   2426901  
  6840.000000   2427746   2428368   2428813   2429143   2429405  
  6830.000000   2429607   2429726   2429733   2429621   2429436  
  6820.000000   2429254   2429174   2429259   2429537   2429970  
  6810.000000   2430502   2431063   2431619   2432157   2432681  
  6800.000000   2433186   2433635   2433966   2434109   2434021  
  6790.000000   2433707   2433234   2432700   2432213   2431846  
  6780.000000   2431624   2431526   2431504   2431512   2431518  
  6770.000000   2431520   2431531   2431568   2431637   2431735  
  6760.000000   2431852   2431980   2432119   2432268   2432429  
  6750.000000   2432587   2432728   2432827   2432868   2432846  
  6740.000000   2432772   2432659   2432527   2432390   2432261  
  6730.000000   2432160   2432120   2432188   2432408   2432814  
  6720.000000   2433403   2434135   2434931   2435699   2436354  
  6710.000000   2436843   2437146   2437279   2437273   2437167  
  6700.000000   2436987   2436759   2436494   2436207   2435899  
  6690.000000   2435574   2435211   2434791   2434284   2433678  
  6680.000000   2432977   2432214   2431431   2430677   2429977  
  6670.000000   2429339   2428739   2428151   2427551   2426935  
  6660.000000   2426312   2425705   2425126   2424576   2424034  
  6650.000000   2423477   2422879   2422235   2421547   2420832  
  6640.000000   2420096   2419341   2418551   2417707   2416791  
  6630.000000   2415795   2414721   2413576   2412364   2411089  
  6620.000000   2409749   2408356   2406931   2405523   2404181  
  6610.000000   2402958   2401876   2400933   2400087   2399278  
  6600.000000   2398439   2397513   2396466   2395281   2393958  
  6590.000000   2392505   2390940   2389293   2387602   2385927  
  6580.000000   2384327   2382862   2381567   2380453   2379490  
  6570.000000   2378628   2377797   2376928   2375962   2374857  
  6560.000000   2373594   2372172   2370613   2368956   2367252  
  6550.000000   2365557   2363922   2362382   2360949   2359616  
  6540.000000   2358362   2357165   2356005   2354874   2353768  
  6530.000000   2352684   2351613   2350538   2349441   2348304  
  6520.000000   2347125   2345910   2344675   2343436   2342208  
  6510.000000   2340994   2339797   2338617   2337456   2336322  
  6500.000000   2335220   2334149   2333099   2332051   2330984  
  6490.000000   2329886   2328761   2327625   2326505   2325428  
  6480.000000   2324407   2323444   2322522   2321620   2320709  
  6470.000000   2319768   2318781   2317739   2316644   2315505  
  6460.000000   2314343   2313183   2312052   2310969   2309940  
  6450.000000   2308950   2307976   2306993   2305988   2304968  
  6440.000000   2303958   2302991   2302091   2301257   2300474  
  6430.000000   2299703   2298918   2298109   2297299   2296528  
  6420.000000   2295846   2295282   2294842   2294500   2294220  
  6410.000000   2293964   2293716   2293474   2293256   2293068  
  6400.000000   2292911   2292764   2292604   2292410   2292184  
  6390.000000   2291944   2291721   2291548   2291442   2291406  
  6380.000000   2291424   2291477   2291545   2291618   2291686  
  6370.000000   2291742   2291773   2291768   2291714   2291614  
  6360.000000   2291474   2291304   2291105   2290864   2290546  
  6350.000000   2290119   2289560   2288881   2288122   2287353  
  6340.000000   2286633   2286002   2285451   2284939   2284397  
  6330.000000   2283778   2283058   2282258   2281424   2280608  
  6320.000000   2279836   2279103   2278372   2277600   2276754  
  6310.000000   2275832   2274860   2273884   2272944   2272063  
  6300.000000   2271237   2270450   2269674   2268894   2268101  
  6290.000000   2267298   2266482   2265651   2264792   2263893  
  6280.000000   2262942   2261939   2260884   2259782   2258631  
  6270.000000   2257431   2256177   2254878   2253549   2252224  
  6260.000000   2250930   2249688   2248494   2247328   2246152  
  6250.000000   2244930   2243641   2242286   2240878   2239442  
  6240.000000   2237996   2236550   2235103   2233657   2232217  
  6230.000000   2230799   2229424   2228102   2226832   2225592  
  6220.000000   2224349   2223067   2221725   2220318   2218866  
  6210.000000   2217395   2215940   2214524   2213170   2211885  
  6200.000000   2210679   2209555   2208510   2207533   2206606  
  6190.000000   2205702   2204802   2203893   2202980   2202075  
  6180.000000   2201197   2200352   2199533   2198718   2197884  
  6170.000000   2197017   2196126   2195236   2194385   2193607  
  6160.000000   2192911   2192286   2191695   2191094   2190446  
  6150.000000   2189725   2188926   2188053   2187117   2186129  
  6140.000000   2185103   2184059   2183027   2182044   2181144  
  6130.000000   2180348   2179658   2179050   2178488   2177933  
  6120.000000   2177362   2176766   2176160   2175557   2174979  
  6110.000000   2174429   2173914   2173427   2172979   2172579  
  6100.000000   2172251   2172005   2171849   2171769   2171749  
  6090.000000   2171765   2171812   2171889   2172014   2172196  
  6080.000000   2172444   2172744   2173077   2173412   2173741  
  6070.000000   2174058   2174388   2174755   2175194   2175718  
  6060.000000   2176338   2177042   2177824   2178665   2179566  
  6050.000000   2180516   2181524   2182582   2183700   2184875  
  6040.000000   2186125   2187454   2188882   2190413   2192056  
  6030.000000   2193798   2195636   2197556   2199559   2201642  
  6020.000000   2203814   2206065   2208390   2210756   2213143  
  6010.000000   2215516   2217869   2220195   2222517   2224849  
  6000.000000   2227218   2229632   2232106   2234639   2237240  
  5990.000000   2239911   2242658   2245471   2248344   2251247  
  5980.000000   2254165   2257079   2259999   2262940   2265943  
  5970.000000   2269032   2272234   2275543   2278947   2282414  
  5960.000000   2285926   2289465   2293038   2296646   2300309  
  5950.000000   2304027   2307804   2311636   2315528   2319487  
  5940.000000   2323529   2327667   2331908   2336245   2340652  
  5930.000000   2345096   2349533   2353927   2358240   2362441  
  5920.000000   2366492   2370359   2374002   2377396   2380525  
  5910.000000   2383402   2386049   2388516   2390845   2393091  
  5900.000000   2395286   2397475   2399676   2401921   2404214  
  5890.000000   2406567   2408957   2411365   2413751   2416091  
  5880.000000   2418358   2420546   2422651   2424675   2426611  
  5870.000000   2428444   2430159   2431743   2433201   2434555  
  5860.000000   2435842   2437106   2438385   2439709   2441099  
  5850.000000   2442571   2444146   2445849   2447701   2449711  
  5840.000000   2451869   2454135   2456458   2458777   2461054  
  5830.000000   2463266   2465429   2467565   2469712   2471890  
  5820.000000   2474115   2476386   2478704   2481067   2483485  
  5810.000000   2485964   2488502   2491090   2493695   2496295  
  5800.000000   2498853   2501374   2503853   2506325   2508789  
  5790.000000   2511262   2513694   2516038   2518185   2520038  
  5780.000000   2521470   2522396   2522731   2522458   2521581  
  5770.000000   2520183   2518364   2516277   2514049   2511821  
  5760.000000   2509665   2507642   2505750   2503994   2502349  
  5750.000000   2500817   2499381   2498041   2496774   2495554  
  5740.000000   2494342   2493105   2491823   2490493   2489131  
  5730.000000   2487758   2486395   2485053   2483737   2482444  
  5720.000000   2481177   2479938   2478732   2477558   2476412  
  5710.000000   2475279   2474148   2473014   2471885   2470781  
  5700.000000   2469726   2468735   2467805   2466925   2466066  
  5690.000000   2465217   2464369   2463539   2462740   2461989  
  5680.000000   2461268   2460551   2459781   2458908   2457884  
  5670.000000   2456683   2455290   2453701   2451908   2449905  
  5660.000000   2447689   2445281   2442721   2440087   2437462  
  5650.000000   2434930   2432541   2430314   2428226   2426241  
  5640.000000   2424318   2422434   2420583   2418775   2417025  
  5630.000000   2415341   2413728   2412178   2410698   2409286  
  5620.000000   2407955   2406704   2405529   2404404   2403306  
  5610.000000   2402203   2401088   2399964   2398858   2397794  
  5600.000000   2396799   2395876   2395020   2394213   2393438  
  5590.000000   2392683   2391942   2391207   2390471   2389714  
  5580.000000   2388920   2388075   2387179   2386248   2385304  
  5570.000000   2384370   2383454   2382552   2381648   2380727  
  5560.000000   2379783   2378829   2377883   2376969   2376099  
  5550.000000   2375267   2374456   2373641   2372807   2371949  
  5540.000000   2371074   2370194   2369317   2368440   2367555  
  5530.000000   2366653   2365734   2364808   2363891   2362997  
  5520.000000   2362127   2361268   2360396   2359490   2358537  
  5510.000000   2357542   2356520   2355488   2354454   2353418  
  5500.000000   2352368   2351297   2350208   2349118   2348047  
  5490.000000   2347010   2345998   2344986   2343929   2342792  
  5480.000000   2341552   2340219   2338821   2337400   2335984  
  5470.000000   2334587   2333197   2331795   2330359   2328884  
  5460.000000   2327367   2325818   2324233   2322606   2320923  
  5450.000000   2319178   2317380   2315560   2313761   2312023  
  5440.000000   2310373   2308807   2307309   2305854   2304430  
  5430.000000   2303036   2301685   2300380   2299119   2297872  
  5420.000000   2296617   2295333   2294040   2292777   2291618  
  5410.000000   2290619   2289818   2289197   2288719   2288322  
  5400.000000   2287980   2287678   2287450   2287327   2287352  
  5390.000000   2287523   2287834   2288243   2288740   2289314  
  5380.000000   2290005   2290839   2291859   2293056   2294421  
  5370.000000   2295890   2297438   2299012   2300631   2302289  
  5360.000000   2304044   2305904   2307933   2310135   2312581  
  5350.000000   2315286   2318332   2321732   2325550   2329757  
  5340.000000   2334380   2339358   2344728   2350448   2356585  
  5330.000000   2363109   2370084   2377455   2385261   2393436  
  5320.000000   2402045   2411061   2420602   2430672   2441395  
  5310.000000   2452742   2464789   2477455   2490785   2504703  
  5300.000000   2519285   2534503   2550477   2567208   2584810  
  5290.000000   2603245   2622554   2642612   2663369   2684652  
  5280.000000   2706416   2728565   2751163   2774243   2797950  
  5270.000000   2822324   2847404   2873070   2899157   2925425  
  5260.000000   2951680   2977801   3003769   3029651   3055512  
  5250.000000   3081402   3107243   3132923   3158213   3182970  
  5240.000000   3207026   3230397   3253073   3275190   3296771  
  5230.000000   3317911   3338529   3358612   3377994   3396649  
  5220.000000   3414463   3431515   3447809   3463518   3478681  
  5210.000000   3493440   3507736   3521580   3534792   3547323  
  5200.000000   3559014   3569914   3579997   3589418   3598206  
  5190.000000   3606492   3614235   3621478   3628116   3634181  
  5180.000000   3639602   3644461   3648736   3652515   3655754  
  5170.000000   3658503   3660696   3662387   3663546   3664270  
  5160.000000   3664562   3664512   3664090   3663336   3662187  
  5150.000000   3660672   3658752   3656485   3653861   3650935  
  5140.000000   3647683   3644137   3640268   3636123   3631716  
  5130.000000   3627132   3622410   3617618   3612754   3607830  
  5120.000000   3602807   3597684   3592450   3587147   3581808  
  5110.000000   3576483   3571194   3565951   3560736   3555532  
  5100.000000   3550323   3545117   3539931   3534796   3529735  
  5090.000000   3524768   3519894   3515110   3510398   3505745  
  5080.000000   3501126   3496521   3491901   3487244   3482527  
  5070.000000   3477746   3472903   3468016   3463096   3458152  
  5060.000000   3453165   3448112   3442954   3437669   3432240  
  5050.000000   3426683   3421019   3415293   3409528   3403751  
  5040.000000   3397960   3392157   3386329   3380473   3374586  
  5030.000000   3368673   3362737   3356782   3350814   3344837  
  5020.000000   3338867   3332921   3327029   3321212   3315499  
  5010.000000   3309894   3304411   3299035   3293772   3288609  
  5000.000000   3283563   3278632   3273852   3269228   3264805  
  4990.000000   3260589   3256619   3252888   3249422   3246193  
  4980.000000   3243209   3240426   3237854   3235459   3233278  
  4970.000000   3231307   3229606   3228178   3227079   3226285  
  4960.000000   3225825   3225657   3225804   3226231   3226986  
  4950.000000   3228053   3229488   3231270   3233440   3235952  
  4940.000000   3238834   3242035   3245590   3249463   3253702  
  4930.000000   3258283   3263255   3268588   3274323   3280426  
  4920.000000   3286931   3293799   3301049   3308636   3316567  
  4910.000000   3324796   3333328   3342129   3351208   3360538  
  4900.000000   3370111   3379885   3389821   3399865   3409958  
  4890.000000   3420054   3430100   3440064   3449889   3459544  
  4880.000000   3468953   3478078   3486831   3495184   3503053  
  4870.000000   3510430   3517238   3523481   3529089   3534078  
  4860.000000   3538396   3542087   3545130   3547598   3549492  
  4850.000000   3550897   3551824   3552357   3552512   3552375  
  4840.000000   3551969   3551382   3550647   3549843   3548998  
  4830.000000   3548175   3547389   3546675   3546035   3545477  
  4820.000000   3544989   3544564   3544198   3543887   3543647  
  4810.000000   3543489   3543443   3543520   3543739   3544091  
  4800.000000   3544576   3545166   3545856   3546626   3547482  
  4790.000000   3548419   3549453   3550582   3551817   3553148  
  4780.000000   3554576   3556087   3557675   3559323   3561020  
  4770.000000   3562746   3564483   3566212   3567920   3569599  
  4760.000000   3571251   3572881   3574496   3576096   3577676  
  4750.000000   3579222   3580714   3582132   3583460   3584694  
  4740.000000   3585837   3586910   3587934   3588938   3589947  
  4730.000000   3590981   3592048   3593147   3594270   3595401  
  4720.000000   3596526   3597629   3598711   3599768   3600823  
  4710.000000   3601892   3603015   3604222   3605562   3607067  
  4700.000000   3608783   3610731   3612937   3615400   3618121  
  4690.000000   3621078   3624252   3627606   3631114   3634729  
  4680.000000   3638417   3642119   3645794   3649381   3652853  
  4670.000000   3656176   3659361   3662421   3665411   3668377  
  4660.000000   3671387   3674491   3677743   3681178   3684830  
  4650.000000   3688712   3692833   3697184   3701742   3706472  
  4640.000000   3711326   3716261   3721226   3726189   3731115  
  4630.000000   3735984   3740767   3745444   3749974   3754328  
  4620.000000   3758450   3762302   3765824   3768991   3771758  
  4610.000000   3774131   3776106   3777739   3779067   3780181  
  4600.000000   3781128   3781993   3782787   3783551   3784252  
  4590.000000   3784891   3785408   3785790   3785975   3785949  
  4580.000000   3785661   3785106   3784258   3783139   3781758  
  4570.000000   3780167   3778396   3776500   3774496   3772412  
  4560.000000   3770239   3767987   3765647   3763239   3760776  
  4550.000000   3758293   3755808   3753346   3750906   3748488  
  4540.000000   3746077   3743665   3741247   3738825   3736407  
  4530.000000   3733999   3731609   3729234   3726881   3724541  
  4520.000000   3722234   3719953   3717731   3715560   3713479  
  4510.000000   3711478   3709613   3707889   3706397   3705168  
  4500.000000   3704319   3703879   3703952   3704530   3705686  
  4490.000000   3707382   3709688   3712575   3716136   3720360  
  4480.000000   3725348   3731077   3737617   3744905   3752973  
  4470.000000   3761732   3771196   3781273   3791977   3803217  
  4460.000000   3815001   3827232   3839902   3852912   3866245  
  4450.000000   3879816   3893614   3907585   3921730   3936018  
  4440.000000   3950442   3964967   3979556   3994158   4008707  
  4430.000000   4023159   4037449   4051566   4065460   4079137  
  4420.000000   4092538   4105656   4118397   4130731   4142551  
  4410.000000   4153830   4164478   4174495   4183819   4192482  
  4400.000000   4200448   4207776   4214465   4220610   4226255  
  4390.000000   4231530   4236511   4241333   4246054   4250765  
  4380.000000   4255469   4260194   4264897   4269584   4274224  
  4370.000000   4278847   4283465   4288132   4292868   4297703  
  4360.000000   4302618   4307597   4312574   4317521   4322356  
  4350.000000   4327074   4331599   4335966   4340123   4344147  
  4340.000000   4348017   4351819   4355490   4358980   4362032  
  4330.000000   4364327   4365377   4364726   4361954   4356887  
  4320.000000   4349600   4340504   4330225   4319536   4309162  
  4310.000000   4299708   4291522   4284747   4279308   4275037  
  4300.000000   4271714   4269149   4267205   4265776   4264817  
  4290.000000   4264259   4264093   4264258   4264768   4265588  
  4280.000000   4266739   4268197   4269947   4271944   4274130  
  4270.000000   4276450   4278826   4281181   4283382   4285261  
  4260.000000   4286571   4287047   4286409   4284465   4281126  
  4250.000000   4276481   4270753   4264305   4257518   4250789  
  4240.000000   4244400   4238561   4233327   4228697   4224572  
  4230.000000   4220854   4217416   4214154   4210980   4207819  
  4220.000000   4204647   4201439   4198249   4195114   4192148  
  4210.000000   4189422   4187048   4185068   4183536   4182433  
  4200.000000   4181748   4181415   4181397   4181617   4182042  
  4190.000000   4182608   4183301   4184071   4184925   4185823  
  4180.000000   4186787   4187785   4188850   4189964   4191178  
  4170.000000   4192499   4194004   4195720   4197738   4200088  
  4160.000000   4202850   4206033   4209688   4213794   4218378  
  4150.000000   4223393   4228847   4234673   4240874   4247376  
  4140.000000   4254197   4261282   4268679   4276358   4284391  
  4130.000000   4292757   4301527   4310675   4320265   4330275  
  4120.000000   4340768   4351738   4363251   4375306   4387957  
  4110.000000   4401188   4415022   4429408   4444325   4459678  
  4100.000000   4475405   4491390   4507561   4523827   4540150  
  4090.000000   4556497   4572860   4589239   4605621   4622000  
  4080.000000   4638336   4654621   4670799   4686869   4702762  
  4070.000000   4718457   4733843   4748867   4763387   4777357  
  4060.000000   4790666   4803329   4815293   4826632   4837324  
  4050.000000   4847469   4857059   4866207   4874898   4883232  
  4040.000000   4891149   4898692   4905740   4912296   4918232  
  4030.000000   4923574   4928242   4932297   4935695   4938493  
  4020.000000   4940629   4942166   4943107   4943543   4943465  
  4010.000000   4942999   4942213   4941108   4939482   4937352  
  4000.000000   4934960  
##END= 
