##TITLE= Sample 023 By ssteindl date Donnerstag, November 22 2018
##JCAMP-DX= 4.24
##DATA TYPE= INFRARED SPECTRUM
##ORIGIN= Exported PE Spectrum Data File
##OWNER= Sandra Steindl
##DATE= 18/11/22
##TIME= 10:49:27.00
##SPECTROMETER/DATA SYSTEM= PERKIN-ELMER Frontier FT-IR/NIR IR
##INSTRUMENT PARAMETERS=
  APODIZATION=stark
  DETECTOR=INGAAS
##RESOLUTION= 16.000000
##DELTAX= -2.000000
##XUNITS= 1/CM
##YUNITS= A
##XFACTOR= 1.00
##YFACTOR= 0.00000011920928955078
##FIRSTX= 10000.00
##LASTX= 4000.00
##NPOINTS= 3001
##FIRSTY= 0.211923
##MAXY= 0.624458
##MINY= 0.186989
##XYDATA= (X++(Y..Y))
 10000.000000   1777741   1781165   1784862   1789068   1793382  
  9990.000000   1797045   1799401   1800121   1799095   1796474  
  9980.000000   1792656   1788165   1783423   1778740   1774361  
  9970.000000   1770580   1767686   1765970   1765520   1766184  
  9960.000000   1767485   1768838   1769723   1769950   1769715  
  9950.000000   1769493   1769814   1770906   1772633   1774405  
  9940.000000   1775580   1775620   1774464   1772441   1770149  
  9930.000000   1768171   1766799   1766092   1765894   1766202  
  9920.000000   1767216   1769413   1773263   1778927   1785979  
  9910.000000   1793322   1799434   1802788   1802379   1798059  
  9900.000000   1790590   1781421   1772226   1764533   1759363  
  9890.000000   1757186   1757864   1760845   1765199   1769822  
  9880.000000   1773503   1775157   1774031   1769925   1763358  
  9870.000000   1755424   1747599   1741223   1737175   1735595  
  9860.000000   1735959   1737359   1738891   1740031   1740790  
  9850.000000   1741611   1743099   1745585   1748930   1752389  
  9840.000000   1754951   1755638   1754020   1750388   1745743  
  9830.000000   1741538   1739172   1739687   1743362   1749761  
  9820.000000   1757781   1766009   1773059   1777841   1779761  
  9810.000000   1778662   1774790   1768616   1760807   1752144  
  9800.000000   1743537   1735948   1730262   1727175   1726909  
  9790.000000   1729262   1733445   1738444   1743146   1746746  
  9780.000000   1748883   1749623   1749374   1748488   1747176  
  9770.000000   1745257   1742407   1738286   1732874   1726623  
  9760.000000   1720405   1715373   1712529   1712530   1715343  
  9750.000000   1720360   1726456   1732323   1736752   1738833  
  9740.000000   1738173   1734824   1729358   1722605   1715597  
  9730.000000   1709258   1704297   1701025   1699378   1699015  
  9720.000000   1699493   1700503   1701924   1703879   1706492  
  9710.000000   1709770   1713411   1716837   1719414   1720659  
  9700.000000   1720557   1719508   1718248   1717457   1717485  
  9690.000000   1718170   1718943   1719129   1718289   1716473  
  9680.000000   1714178   1712161   1711025   1711005   1711811  
  9670.000000   1712845   1713460   1713288   1712383   1711120  
  9660.000000   1709997   1709295   1708979   1708669   1707886  
  9650.000000   1706290   1703875   1701000   1698221   1696119  
  9640.000000   1695072   1695245   1696598   1699013   1702320  
  9630.000000   1706275   1710489   1714345   1717115   1718067  
  9620.000000   1716823   1713459   1708668   1703479   1699008  
  9610.000000   1696036   1694798   1695026   1696108   1697539  
  9600.000000   1699052   1700863   1703373   1707031   1711893  
  9590.000000   1717570   1723217   1727793   1730411   1730506  
  9580.000000   1728040   1723315   1716920   1709478   1701586  
  9570.000000   1693771   1686490   1680202   1675292   1672078  
  9560.000000   1670664   1670962   1672616   1675131   1677899  
  9550.000000   1680364   1682088   1682817   1682555   1681497  
  9540.000000   1680082   1678811   1678188   1678501   1679743  
  9530.000000   1681532   1683225   1684107   1683649   1681727  
  9520.000000   1678657   1675102   1671786   1669255   1667679  
  9510.000000   1666856   1666355   1665740   1664762   1663444  
  9500.000000   1662009   1660753   1659857   1659323   1658986  
  9490.000000   1658628   1658137   1657537   1657005   1656684  
  9480.000000   1656635   1656706   1656667   1656265   1655423  
  9470.000000   1654265   1653102   1652303   1652122   1652648  
  9460.000000   1653772   1655353   1657287   1659599   1662385  
  9450.000000   1665680   1669341   1672929   1675795   1677189  
  9440.000000   1676554   1673719   1669052   1663390   1657803  
  9430.000000   1653341   1650705   1650204   1651641   1654538  
  9420.000000   1658203   1661978   1665296   1667760   1669100  
  9410.000000   1669143   1667810   1665127   1661286   1656629  
  9400.000000   1651666   1646968   1643099   1640496   1639355  
  9390.000000   1639614   1640901   1642684   1644349   1645394  
  9380.000000   1645512   1644649   1642983   1640824   1638546  
  9370.000000   1636434   1634683   1633329   1632343   1631631  
  9360.000000   1631115   1630729   1630417   1630135   1629825  
  9350.000000   1629459   1629048   1628668   1628454   1628551  
  9340.000000   1629077   1630048   1631350   1632739   1633890  
  9330.000000   1634514   1634439   1633677   1632420   1630964  
  9320.000000   1629637   1628675   1628154   1627932   1627699  
  9310.000000   1627073   1625768   1623702   1621066   1618289  
  9300.000000   1615916   1614458   1614187   1615081   1616800  
  9290.000000   1618850   1620760   1622266   1623370   1624293  
  9280.000000   1625297   1626503   1627761   1628677   1628799  
  9270.000000   1627795   1625703   1622905   1620048   1617738  
  9260.000000   1616270   1615528   1615008   1614127   1612483  
  9250.000000   1610150   1607697   1606005   1605874   1607642  
  9240.000000   1610979   1614938   1618294   1619911   1619201  
  9230.000000   1616279   1611992   1607521   1603985   1602093  
  9220.000000   1602007   1603429   1605757   1608387   1610862  
  9210.000000   1613007   1614822   1616422   1617868   1619126  
  9200.000000   1620062   1620476   1620206   1619112   1617168  
  9190.000000   1614406   1610982   1607162   1603313   1599881  
  9180.000000   1597275   1595823   1595635   1596592   1598319  
  9170.000000   1600326   1602116   1603352   1603901   1603853  
  9160.000000   1603450   1602976   1602677   1602649   1602872  
  9150.000000   1603196   1603454   1603458   1603065   1602192  
  9140.000000   1600833   1599077   1597078   1595075   1593342  
  9130.000000   1592131   1591606   1591780   1592523   1593562  
  9120.000000   1594571   1595234   1595371   1594970   1594200  
  9110.000000   1593336   1592682   1592494   1592917   1593969  
  9100.000000   1595529   1597425   1599455   1601470   1603339  
  9090.000000   1604984   1606339   1607335   1607873   1607811  
  9080.000000   1607005   1605338   1602783   1599423   1595474  
  9070.000000   1591286   1587286   1583915   1581506   1580244  
  9060.000000   1580100   1580835   1582028   1583202   1583963  
  9050.000000   1584084   1583564   1582608   1581584   1580871  
  9040.000000   1580751   1581326   1582532   1584168   1585980  
  9030.000000   1587739   1589306   1590627   1591670   1592401  
  9020.000000   1592732   1592559   1591786   1590403   1588528  
  9010.000000   1586396   1584288   1582451   1581017   1579962  
  9000.000000   1579129   1578296   1577292   1576024   1574532  
  8990.000000   1572938   1571422   1570136   1569184   1568636  
  8980.000000   1568576   1569116   1570370   1572439   1575331  
  8970.000000   1578923   1582908   1586862   1590338   1592953  
  8960.000000   1594489   1594899   1594353   1593091   1591384  
  8950.000000   1589420   1587315   1585115   1582827   1580511  
  8940.000000   1578291   1576408   1575114   1574676   1575231  
  8930.000000   1576778   1579076   1581727   1584238   1586133  
  8920.000000   1587093   1587004   1586057   1584609   1583114  
  8910.000000   1581914   1581177   1580822   1580597   1580207  
  8900.000000   1579482   1578480   1577489   1576948   1577258  
  8890.000000   1578634   1580960   1583846   1586727   1589058  
  8880.000000   1590493   1590975   1590745   1590203   1589758  
  8870.000000   1589651   1589922   1590388   1590781   1590830  
  8860.000000   1590405   1589525   1588348   1587101   1586007  
  8850.000000   1585247   1584930   1585121   1585856   1587145  
  8840.000000   1588948   1591158   1593583   1595975   1598080  
  8830.000000   1599712   1600817   1601484   1601933   1602393  
  8820.000000   1603041   1603889   1604803   1605533   1605822  
  8810.000000   1605520   1604648   1603431   1602200   1601328  
  8800.000000   1601073   1601562   1602723   1604362   1606209  
  8790.000000   1607998   1609531   1610668   1611344   1611512  
  8780.000000   1611174   1610342   1609094   1607559   1605948  
  8770.000000   1604515   1603526   1603198   1603651   1604903  
  8760.000000   1606849   1609314   1612051   1614803   1617326  
  8750.000000   1619424   1620980   1621948   1622390   1622430  
  8740.000000   1622274   1622124   1622168   1622490   1623082  
  8730.000000   1623844   1624625   1625298   1625773   1626073  
  8720.000000   1626283   1626570   1627095   1628002   1629355  
  8710.000000   1631140   1633253   1635518   1637715   1639595  
  8700.000000   1640932   1641555   1641411   1640573   1639270  
  8690.000000   1637805   1636536   1635746   1635617   1636136  
  8680.000000   1637147   1638382   1639584   1640588   1641386  
  8670.000000   1642143   1643143   1644693   1647018   1650179  
  8660.000000   1654057   1658363   1662731   1666787   1670266  
  8650.000000   1673032   1675107   1676608   1677704   1678553  
  8640.000000   1679265   1679898   1680468   1680992   1681507  
  8630.000000   1682101   1682860   1683878   1685167   1686692  
  8620.000000   1688319   1689895   1691260   1692318   1693051  
  8610.000000   1693528   1693884   1694258   1694754   1695397  
  8600.000000   1696143   1696894   1697549   1698049   1698409  
  8590.000000   1698723   1699131   1699779   1700766   1702114  
  8580.000000   1703763   1705587   1707438   1709177   1710711  
  8570.000000   1712000   1713062   1713957   1714772   1715607  
  8560.000000   1716563   1717719   1719115   1720729   1722460  
  8550.000000   1724145   1725591   1726633   1727189   1727307  
  8540.000000   1727169   1727034   1727165   1727724   1728713  
  8530.000000   1729972   1731242   1732280   1732958   1733336  
  8520.000000   1733635   1734175   1735234   1736944   1739222  
  8510.000000   1741798   1744303   1746386   1747821   1748555  
  8500.000000   1748702   1748478   1748127   1747845   1747765  
  8490.000000   1747937   1748362   1748993   1749761   1750576  
  8480.000000   1751329   1751935   1752353   1752638   1752933  
  8470.000000   1753454   1754418   1755953   1758049   1760527  
  8460.000000   1763091   1765417   1767253   1768498   1769225  
  8450.000000   1769634   1769977   1770461   1771197   1772171  
  8440.000000   1773274   1774351   1775253   1775886   1776219  
  8430.000000   1776296   1776214   1776118   1776166   1776505  
  8420.000000   1777218   1778298   1779638   1781048   1782303  
  8410.000000   1783228   1783753   1783959   1784031   1784215  
  8400.000000   1784714   1785636   1786945   1788483   1790023  
  8390.000000   1791343   1792281   1792763   1792791   1792432  
  8380.000000   1791786   1790980   1790148   1789430   1788948  
  8370.000000   1788784   1788948   1789371   1789924   1790466  
  8360.000000   1790895   1791186   1791392   1791606   1791905  
  8350.000000   1792299   1792712   1793021   1793121   1793003  
  8340.000000   1792777   1792650   1792841   1793495   1794604  
  8330.000000   1795988   1797340   1798318   1798671   1798305  
  8320.000000   1797305   1795894   1794356   1792967   1791933  
  8310.000000   1791369   1791297   1791676   1792412   1793380  
  8300.000000   1794411   1795324   1795935   1796128   1795871  
  8290.000000   1795246   1794422   1793614   1793034   1792809  
  8280.000000   1792960   1793380   1793872   1794213   1794201  
  8270.000000   1793719   1792741   1791370   1789804   1788318  
  8260.000000   1787185   1786620   1786716   1787419   1788526  
  8250.000000   1789724   1790670   1791085   1790831   1789953  
  8240.000000   1788647   1787198   1785890   1784930   1784401  
  8230.000000   1784260   1784359   1784515   1784549   1784355  
  8220.000000   1783886   1783177   1782302   1781367   1780478  
  8210.000000   1779716   1779115   1778638   1778187   1777627  
  8200.000000   1776819   1775683   1774214   1772526   1770806  
  8190.000000   1769288   1768158   1767509   1767282   1767302  
  8180.000000   1767311   1767051   1766331   1765072   1763320  
  8170.000000   1761214   1758944   1756695   1754604   1752730  
  8160.000000   1751070   1749566   1748149   1746759   1745368  
  8150.000000   1743985   1742654   1741438   1740400   1739579  
  8140.000000   1738977   1738549   1738222   1737906   1737533  
  8130.000000   1737058   1736492   1735873   1735264   1734710  
  8120.000000   1734222   1733767   1733268   1732646   1731846  
  8110.000000   1730877   1729817   1728798   1727959   1727395  
  8100.000000   1727109   1726994   1726846   1726422   1725516  
  8090.000000   1724033   1722038   1719746   1717460   1715485  
  8080.000000   1714030   1713151   1712748   1712600   1712461  
  8070.000000   1712128   1711505   1710615   1709559   1708478  
  8060.000000   1707483   1706640   1705962   1705435   1705042  
  8050.000000   1704772   1704616   1704531   1704436   1704186  
  8040.000000   1703625   1702611   1701089   1699112   1696851  
  8030.000000   1694550   1692470   1690828   1689740   1689229  
  8020.000000   1689219   1689586   1690178   1690840   1691428  
  8010.000000   1691804   1691863   1691523   1690774   1689657  
  8000.000000   1688292   1686829   1685433   1684237   1683321  
  7990.000000   1682706   1682365   1682252   1682308   1682485  
  7980.000000   1682719   1682946   1683079   1683034   1682750  
  7970.000000   1682210   1681466   1680612   1679766   1679009  
  7960.000000   1678374   1677816   1677256   1676607   1675832  
  7950.000000   1674958   1674072   1673290   1672701   1672343  
  7940.000000   1672185   1672159   1672191   1672243   1672324  
  7930.000000   1672475   1672732   1673085   1673460   1673728  
  7920.000000   1673754   1673446   1672805   1671930   1671001  
  7910.000000   1670214   1669727   1669600   1669791   1670162  
  7900.000000   1670533   1670731   1670637   1670213   1669500  
  7890.000000   1668608   1667684   1666890   1666363   1666201  
  7880.000000   1666437   1667026   1667853   1668743   1669503  
  7870.000000   1669953   1669976   1669537   1668701   1667609  
  7860.000000   1666451   1665415   1664648   1664231   1664159  
  7850.000000   1664370   1664749   1665183   1665571   1665859  
  7840.000000   1666027   1666088   1666062   1665955   1665751  
  7830.000000   1665406   1664870   1664107   1663120   1661967  
  7820.000000   1660743   1659576   1658574   1657821   1657338  
  7810.000000   1657103   1657045   1657081   1657117   1657067  
  7800.000000   1656848   1656390   1655646   1654601   1653309  
  7790.000000   1651874   1650456   1649214   1648272   1647670  
  7780.000000   1647353   1647196   1647050   1646807   1646438  
  7770.000000   1646010   1645637   1645439   1645469   1645696  
  7760.000000   1646008   1646262   1646339   1646187   1645830  
  7750.000000   1645330   1644749   1644089   1643293   1642259  
  7740.000000   1640901   1639193   1637214   1635130   1633153  
  7730.000000   1631479   1630229   1629432   1629030   1628919  
  7720.000000   1628994   1629174   1629416   1629693   1629981  
  7710.000000   1630238   1630415   1630461   1630362   1630133  
  7700.000000   1629836   1629544   1629325   1629209   1629181  
  7690.000000   1629187   1629150   1628999   1628692   1628222  
  7680.000000   1627618   1626929   1626210   1625506   1624845  
  7670.000000   1624239   1623690   1623199   1622771   1622431  
  7660.000000   1622204   1622125   1622212   1622461   1622832  
  7650.000000   1623255   1623638   1623879   1623900   1623645  
  7640.000000   1623106   1622307   1621317   1620216   1619106  
  7630.000000   1618079   1617218   1616573   1616160   1615957  
  7620.000000   1615916   1615985   1616129   1616351   1616692  
  7610.000000   1617214   1617969   1618949   1620084   1621222  
  7600.000000   1622201   1622871   1623173   1623140   1622906  
  7590.000000   1622650   1622542   1622687   1623099   1623710  
  7580.000000   1624409   1625090   1625688   1626190   1626621  
  7570.000000   1627023   1627426   1627846   1628286   1628747  
  7560.000000   1629242   1629781   1630379   1631021   1631679  
  7550.000000   1632299   1632840   1633286   1633668   1634052  
  7540.000000   1634519   1635135   1635938   1636921   1638051  
  7530.000000   1639275   1640552   1641842   1643125   1644365  
  7520.000000   1645531   1646581   1647494   1648280   1648999  
  7510.000000   1649740   1650611   1651690   1653018   1654568  
  7500.000000   1656275   1658044   1659791   1661459   1663027  
  7490.000000   1664496   1665892   1667243   1668592   1669983  
  7480.000000   1671475   1673115   1674936   1676921   1679016  
  7470.000000   1681121   1683132   1684969   1686612   1688107  
  7460.000000   1689555   1691073   1692763   1694671   1696788  
  7450.000000   1699056   1701405   1703769   1706113   1708415  
  7440.000000   1710668   1712861   1714974   1716983   1718879  
  7430.000000   1720676   1722431   1724219   1726132   1728229  
  7420.000000   1730538   1733026   1735621   1738220   1740729  
  7410.000000   1743080   1745254   1747280   1749232   1751207  
  7400.000000   1753297   1755571   1758055   1760730   1763537  
  7390.000000   1766394   1769218   1771944   1774533   1776974  
  7380.000000   1779273   1781445   1783509   1785475   1787355  
  7370.000000   1789160   1790908   1792622   1794326   1796041  
  7360.000000   1797777   1799541   1801334   1803167   1805052  
  7350.000000   1807013   1809069   1811232   1813491   1815817  
  7340.000000   1818170   1820509   1822800   1825031   1827205  
  7330.000000   1829341   1831459   1833585   1835728   1837890  
  7320.000000   1840050   1842180   1844228   1846147   1847885  
  7310.000000   1849414   1850724   1851835   1852784   1853622  
  7300.000000   1854390   1855127   1855856   1856599   1857370  
  7290.000000   1858188   1859056   1859980   1860945   1861938  
  7280.000000   1862945   1863974   1865043   1866187   1867430  
  7270.000000   1868771   1870175   1871572   1872885   1874049  
  7260.000000   1875051   1875917   1876718   1877515   1878350  
  7250.000000   1879204   1880030   1880761   1881373   1881894  
  7240.000000   1882429   1883111   1884070   1885371   1887013  
  7230.000000   1888915   1890981   1893114   1895281   1897480  
  7220.000000   1899754   1902122   1904600   1907154   1909760  
  7210.000000   1912385   1915053   1917794   1920671   1923702  
  7200.000000   1926889   1930168   1933481   1936763   1940016  
  7190.000000   1943271   1946616   1950115   1953820   1957708  
  7180.000000   1961736   1965823   1969929   1974033   1978173  
  7170.000000   1982383   1986708   1991138   1995660   2000222  
  7160.000000   2004812   2009419   2014087   2018845   2023736  
  7150.000000   2028753   2033888   2039104   2044398   2049781  
  7140.000000   2055314   2061046   2067029   2073253   2079683  
  7130.000000   2086231   2092830   2099410   2105968   2112501  
  7120.000000   2119048   2125614   2132210   2138804   2145383  
  7110.000000   2151929   2158481   2165089   2171845   2178825  
  7100.000000   2186099   2193682   2201562   2209672   2217939  
  7090.000000   2226268   2234594   2242859   2251054   2259185  
  7080.000000   2267294   2275413   2283581   2291794   2300042  
  7070.000000   2308282   2316483   2324621   2332707   2340770  
  7060.000000   2348858   2357015   2365271   2373645   2382141  
  7050.000000   2390760   2399495   2408327   2417208   2426056  
  7040.000000   2434762   2443211   2451317   2459061   2466501  
  7030.000000   2473765   2481002   2488351   2495881   2503597  
  7020.000000   2511423   2519271   2527045   2534700   2542210  
  7010.000000   2549589   2556835   2563945   2570890   2577652  
  7000.000000   2584212   2590588   2596799   2602885   2608857  
  6990.000000   2614734   2620512   2626219   2631875   2637539  
  6980.000000   2643233   2648970   2654684   2660294   2665678  
  6970.000000   2670767   2675525   2680008   2684294   2688487  
  6960.000000   2692636   2696754   2700784   2704674   2708371  
  6950.000000   2711885   2715248   2718527   2721758   2724959  
  6940.000000   2728091   2731121   2734006   2736750   2739373  
  6930.000000   2741924   2744426   2746899   2749325   2751701  
  6920.000000   2754022   2756324   2758644   2761021   2763449  
  6910.000000   2765880   2768226   2770398   2772335   2774038  
  6900.000000   2775558   2776992   2778429   2779939   2781540  
  6890.000000   2783228   2784975   2786768   2788592   2790438  
  6880.000000   2792275   2794055   2795705   2797165   2798402  
  6870.000000   2799439   2800346   2801224   2802164   2803222  
  6860.000000   2804405   2805679   2806989   2808284   2809530  
  6850.000000   2810715   2811831   2812872   2813819   2814661  
  6840.000000   2815396   2816054   2816687   2817366   2818147  
  6830.000000   2819068   2820115   2821248   2822394   2823480  
  6820.000000   2824441   2825234   2825837   2826258   2826521  
  6810.000000   2826677   2826784   2826913   2827116   2827426  
  6800.000000   2827832   2828298   2828755   2829143   2829412  
  6790.000000   2829547   2829555   2829463   2829298   2829082  
  6780.000000   2828827   2828546   2828247   2827952   2827671  
  6770.000000   2827412   2827159   2826889   2826570   2826189  
  6760.000000   2825746   2825271   2824799   2824362   2823968  
  6750.000000   2823601   2823222   2822793   2822281   2821675  
  6740.000000   2820975   2820195   2819345   2818440   2817491  
  6730.000000   2816523   2815566   2814652   2813798   2812998  
  6720.000000   2812213   2811395   2810495   2809500   2808428  
  6710.000000   2807330   2806258   2805250   2804298   2803366  
  6700.000000   2802401   2801366   2800251   2799085   2797904  
  6690.000000   2796738   2795584   2794412   2793174   2791838  
  6680.000000   2790404   2788904   2787384   2785879   2784384  
  6670.000000   2782863   2781258   2779535   2777698   2775812  
  6660.000000   2773968   2772262   2770745   2769416   2768214  
  6650.000000   2767057   2765858   2764564   2763150   2761612  
  6640.000000   2759952   2758173   2756276   2754282   2752235  
  6630.000000   2750205   2748263   2746460   2744798   2743228  
  6620.000000   2741664   2740021   2738238   2736310   2734269  
  6610.000000   2732169   2730060   2727965   2725885   2723816  
  6600.000000   2721768   2719776   2717882   2716122   2714493  
  6590.000000   2712947   2711406   2709788   2708044   2706175  
  6580.000000   2704235   2702292   2700410   2698607   2696869  
  6570.000000   2695150   2693420   2691672   2689941   2688282  
  6560.000000   2686746   2685356   2684098   2682928   2681799  
  6550.000000   2680676   2679558   2678458   2677396   2676367  
  6540.000000   2675346   2674281   2673123   2671835   2670420  
  6530.000000   2668910   2667363   2665837   2664382   2663027  
  6520.000000   2661779   2660627   2659550   2658518   2657501  
  6510.000000   2656477   2655436   2654389   2653368   2652417  
  6500.000000   2651577   2650862   2650256   2649699   2649116  
  6490.000000   2648430   2647597   2646610   2645509   2644356  
  6480.000000   2643221   2642157   2641197   2640352   2639616  
  6470.000000   2638979   2638419   2637906   2637397   2636847  
  6460.000000   2636215   2635486   2634673   2633818   2632973  
  6450.000000   2632177   2631437   2630722   2629979   2629158  
  6440.000000   2628234   2627228   2626194   2625201   2624299  
  6430.000000   2623500   2622774   2622061   2621303   2620460  
  6420.000000   2619533   2618556   2617584   2616668   2615849  
  6410.000000   2615147   2614565   2614096   2613722   2613417  
  6400.000000   2613147   2612871   2612552   2612164   2611709  
  6390.000000   2611212   2610714   2610257   2609865   2609532  
  6380.000000   2609233   2608924   2608570   2608154   2607677  
  6370.000000   2607155   2606604   2606031   2605434   2604810  
  6360.000000   2604159   2603500   2602859   2602268   2601742  
  6350.000000   2601281   2600857   2600438   2599987   2599485  
  6340.000000   2598924   2598310   2597649   2596950   2596210  
  6330.000000   2595435   2594628   2593809   2592992   2592196  
  6320.000000   2591414   2590630   2589805   2588904   2587896  
  6310.000000   2586776   2585553   2584253   2582894   2581498  
  6300.000000   2580068   2578614   2577140   2575665   2574201  
  6290.000000   2572765   2571345   2569927   2568469   2566943  
  6280.000000   2565315   2563584   2561753   2559846   2557879  
  6270.000000   2555867   2553813   2551721   2549588   2547422  
  6260.000000   2545224   2543004   2540756   2538481   2536173  
  6250.000000   2533844   2531508   2529194   2526920   2524695  
  6240.000000   2522501   2520310   2518084   2515804   2513467  
  6230.000000   2511096   2508720   2506366   2504035   2501711  
  6220.000000   2499362   2496964   2494508   2492013   2489510  
  6210.000000   2487034   2484603   2482215   2479851   2477490  
  6200.000000   2475125   2472768   2470444   2468175   2465965  
  6190.000000   2463793   2461616   2459391   2457092   2454719  
  6180.000000   2452308   2449908   2447569   2445321   2443173  
  6170.000000   2441111   2439113   2437155   2435222   2433305  
  6160.000000   2431396   2429490   2427578   2425657   2423733  
  6150.000000   2421819   2419935   2418094   2416300   2414540  
  6140.000000   2412795   2411042   2409269   2407477   2405679  
  6130.000000   2403889   2402119   2400366   2398629   2396899  
  6120.000000   2395184   2393495   2391856   2390280   2388776  
  6110.000000   2387331   2385932   2384559   2383212   2381898  
  6100.000000   2380642   2379463   2378374   2377366   2376427  
  6090.000000   2375532   2374676   2373858   2373095   2372397  
  6080.000000   2371772   2371197   2370648   2370084   2369489  
  6070.000000   2368854   2368206   2367573   2366996   2366497  
  6060.000000   2366094   2365786   2365574   2365452   2365425  
  6050.000000   2365483   2365623   2365819   2366051   2366285  
  6040.000000   2366513   2366726   2366946   2367186   2367473  
  6030.000000   2367809   2368199   2368634   2369117   2369653  
  6020.000000   2370265   2370972   2371793   2372723   2373744  
  6010.000000   2374814   2375891   2376929   2377903   2378796  
  6000.000000   2379617   2380382   2381124   2381873   2382669  
  5990.000000   2383540   2384510   2385581   2386747   2387980  
  5980.000000   2389256   2390546   2391843   2393148   2394485  
  5970.000000   2395868   2397321   2398840   2400428   2402067  
  5960.000000   2403756   2405491   2407292   2409170   2411149  
  5950.000000   2413229   2415409   2417669   2419990   2422346  
  5940.000000   2424722   2427104   2429493   2431886   2434289  
  5930.000000   2436704   2439135   2441581   2444037   2446486  
  5920.000000   2448909   2451280   2453576   2455782   2457898  
  5910.000000   2459936   2461916   2463865   2465802   2467744  
  5900.000000   2469700   2471680   2473689   2475738   2477831  
  5890.000000   2479970   2482150   2484361   2486590   2488828  
  5880.000000   2491069   2493308   2495540   2497746   2499904  
  5870.000000   2501982   2503958   2505820   2507580   2509267  
  5860.000000   2510924   2512586   2514285   2516032   2517837  
  5850.000000   2519704   2521644   2523673   2525809   2528058  
  5840.000000   2530414   2532853   2535343   2537855   2540373  
  5830.000000   2542895   2545430   2547984   2550554   2553123  
  5820.000000   2555661   2558139   2560535   2562846   2565073  
  5810.000000   2567232   2569323   2571348   2573290   2575147  
  5800.000000   2576907   2578590   2580200   2581766   2583277  
  5790.000000   2584734   2586091   2587324   2588376   2589220  
  5780.000000   2589810   2590121   2590116   2589785   2589119  
  5770.000000   2588157   2586955   2585613   2584229   2582906  
  5760.000000   2581704   2580662   2579772   2579017   2578366  
  5750.000000   2577803   2577313   2576893   2576537   2576234  
  5740.000000   2575977   2575759   2575593   2575487   2575463  
  5730.000000   2575519   2575651   2575825   2576016   2576196  
  5720.000000   2576369   2576550   2576780   2577083   2577477  
  5710.000000   2577947   2578468   2579003   2579538   2580071  
  5700.000000   2580622   2581217   2581869   2582578   2583324  
  5690.000000   2584086   2584843   2585595   2586348   2587117  
  5680.000000   2587896   2588671   2589406   2590062   2590601  
  5670.000000   2591004   2591256   2591358   2591303   2591087  
  5660.000000   2590702   2590159   2589484   2588733   2587961  
  5650.000000   2587226   2586549   2585931   2585335   2584726  
  5640.000000   2584075   2583384   2582670   2581969   2581301  
  5630.000000   2580669   2580056   2579433   2578781   2578101  
  5620.000000   2577415   2576758   2576159   2575628   2575153  
  5610.000000   2574708   2574262   2573794   2573294   2572765  
  5600.000000   2572206   2571610   2570961   2570243   2569445  
  5590.000000   2568579   2567665   2566735   2565808   2564891  
  5580.000000   2563969   2563023   2562031   2560990   2559903  
  5570.000000   2558786   2557647   2556486   2555289   2554042  
  5560.000000   2552735   2551377   2549990   2548609   2547260  
  5550.000000   2545960   2544707   2543492   2542302   2541135  
  5540.000000   2539991   2538873   2537776   2536682   2535565  
  5530.000000   2534403   2533188   2531930   2530661   2529417  
  5520.000000   2528225   2527091   2526001   2524927   2523840  
  5510.000000   2522725   2521580   2520415   2519241   2518068  
  5500.000000   2516891   2515713   2514530   2513357   2512203  
  5490.000000   2511080   2509978   2508874   2507723   2506486  
  5480.000000   2505130   2503651   2502059   2500386   2498654  
  5470.000000   2496879   2495056   2493179   2491238   2489243  
  5460.000000   2487205   2485147   2483077   2480998   2478893  
  5450.000000   2476753   2474573   2472366   2470161   2467990  
  5440.000000   2465877   2463828   2461836   2459887   2457975  
  5430.000000   2456102   2454283   2452522   2450823   2449163  
  5420.000000   2447531   2445911   2444329   2442819   2441449  
  5410.000000   2440259   2439276   2438467   2437790   2437172  
  5400.000000   2436583   2436001   2435462   2434996   2434662  
  5390.000000   2434473   2434452   2434579   2434864   2435304  
  5380.000000   2435934   2436762   2437817   2439067   2440497  
  5370.000000   2442044   2443696   2445413   2447232   2449150  
  5360.000000   2451224   2453446   2455866   2458466   2461308  
  5350.000000   2464401   2467837   2471636   2475886   2480566  
  5340.000000   2485722   2491297   2497334   2503783   2510706  
  5330.000000   2518058   2525890   2534130   2542812   2551864  
  5320.000000   2561362   2571288   2581781   2592856   2604658  
  5310.000000   2617164   2630460   2644462   2659222   2674657  
  5300.000000   2690849   2707762   2725525   2744135   2763722  
  5290.000000   2784254   2805794   2828224   2851510   2875472  
  5280.000000   2900060   2925154   2950805   2977021   3003933  
  5270.000000   3031569   3059958   3088965   3118411   3148046  
  5260.000000   3177663   3207139   3236451   3265668   3294845  
  5250.000000   3324019   3353078   3381876   3410137   3437697  
  5240.000000   3464361   3490161   3515087   3539315   3562875  
  5230.000000   3585896   3608290   3630058   3651011   3671118  
  5220.000000   3690232   3708430   3725683   3742174   3757929  
  5210.000000   3773117   3787684   3801680   3814930   3827410  
  5200.000000   3838951   3849606   3859324   3868267   3876448  
  5190.000000   3884020   3890942   3897285   3902948   3907982  
  5180.000000   3912305   3916007   3919047   3921519   3923370  
  5170.000000   3924659   3925319   3925413   3924910   3923913  
  5160.000000   3922421   3920529   3918209   3915510   3912370  
  5150.000000   3908827   3904849   3900508   3895810   3890837  
  5140.000000   3885587   3880112   3874389   3868455   3862295  
  5130.000000   3855960   3849457   3842837   3836103   3829289  
  5120.000000   3822387   3815421   3808389   3801320   3794213  
  5110.000000   3787089   3779938   3772769   3765571   3758362  
  5100.000000   3751145   3743945   3736767   3729616   3722472  
  5090.000000   3715315   3708114   3700859   3693545   3686190  
  5080.000000   3678811   3671431   3664052   3656676   3649282  
  5070.000000   3641862   3634396   3626885   3619326   3611729  
  5060.000000   3604092   3596424   3588717   3580976   3573196  
  5050.000000   3565387   3557551   3549697   3541831   3533960  
  5040.000000   3526090   3518232   3510394   3502588   3494825  
  5030.000000   3487107   3479438   3471816   3464243   3456716  
  5020.000000   3449250   3441850   3434544   3427338   3420262  
  5010.000000   3413319   3406538   3399912   3393467   3387194  
  5000.000000   3381116   3375220   3369534   3364047   3358797  
  4990.000000   3353779   3349042   3344580   3340440   3336604  
  4980.000000   3333107   3329914   3327059   3324507   3322301  
  4970.000000   3320419   3318913   3317765   3317021   3316651  
  4960.000000   3316691   3317097   3317904   3319070   3320636  
  4950.000000   3322565   3324892   3327571   3330626   3333997  
  4940.000000   3337701   3341683   3345968   3350516   3355368  
  4930.000000   3360494   3365935   3371662   3377710   3384042  
  4920.000000   3390685   3397597   3404795   3412241   3419949  
  4910.000000   3427891   3436088   3444521   3453209   3462128  
  4900.000000   3471276   3480611   3490114   3499736   3509457  
  4890.000000   3519244   3529085   3538960   3548850   3558729  
  4880.000000   3568566   3578330   3587990   3597527   3606919  
  4870.000000   3616162   3625233   3634130   3642826   3651324  
  4860.000000   3659602   3667679   3675546   3683234   3690736  
  4850.000000   3698080   3705253   3712278   3719139   3725864  
  4840.000000   3732439   3738894   3745214   3751423   3757500  
  4830.000000   3763460   3769275   3774950   3780446   3785755  
  4820.000000   3790835   3795680   3800266   3804617   3808745  
  4810.000000   3812704   3816524   3820255   3823905   3827494  
  4800.000000   3831001   3834432   3837767   3841022   3844192  
  4790.000000   3847304   3850350   3853346   3856268   3859118  
  4780.000000   3861869   3864522   3867055   3869474   3871755  
  4770.000000   3873900   3875878   3877692   3879311   3880744  
  4760.000000   3881970   3883004   3883831   3884469   3884907  
  4750.000000   3885169   3885247   3885170   3884930   3884552  
  4740.000000   3884019   3883351   3882526   3881562   3880442  
  4730.000000   3879182   3877764   3876194   3874445   3872517  
  4720.000000   3870392   3868088   3865616   3863023   3860345  
  4710.000000   3857637   3854929   3852252   3849609   3847002  
  4700.000000   3844417   3841846   3839272   3836691   3834094  
  4690.000000   3831484   3828862   3826237   3823618   3821016  
  4680.000000   3818440   3815887   3813352   3810815   3808259  
  4670.000000   3805661   3803017   3800324   3797604   3794877  
  4660.000000   3792179   3789536   3786984   3784542   3782238  
  4650.000000   3780087   3778116   3776336   3774766   3773405  
  4640.000000   3772248   3771267   3770436   3769705   3769039  
  4630.000000   3768391   3767737   3767053   3766342   3765605  
  4620.000000   3764865   3764130   3763417   3762721   3762036  
  4610.000000   3761340   3760618   3759856   3759058   3758238  
  4600.000000   3757424   3756648   3755936   3755305   3754753  
  4590.000000   3754271   3753837   3753431   3753029   3752617  
  4580.000000   3752176   3751692   3751147   3750531   3749830  
  4570.000000   3749051   3748196   3747285   3746325   3745327  
  4560.000000   3744279   3743167   3741961   3740643   3739197  
  4550.000000   3737631   3735962   3734223   3732448   3730670  
  4540.000000   3728914   3727197   3725531   3723920   3722379  
  4530.000000   3720907   3719519   3718212   3717004   3715885  
  4520.000000   3714879   3713971   3713198   3712544   3712059  
  4510.000000   3711732   3711636   3711777   3712253   3713086  
  4500.000000   3714391   3716187   3718580   3721570   3725246  
  4490.000000   3729591   3734682   3740489   3747072   3754371  
  4480.000000   3762407   3771080   3780378   3790187   3800494  
  4470.000000   3811207   3822338   3833819   3845668   3857825  
  4460.000000   3870292   3883004   3895949   3909065   3922333  
  4450.000000   3935696   3949132   3962593   3976052   3989482  
  4440.000000   4002865   4016198   4029470   4042695   4055853  
  4430.000000   4068958   4081966   4094887   4107650   4120256  
  4420.000000   4132606   4144685   4156366   4167618   4178295  
  4410.000000   4188364   4197683   4206231   4213882   4220637  
  4400.000000   4226399   4231196   4234972   4237800   4239681  
  4390.000000   4240734   4241018   4240687   4239827   4238592  
  4380.000000   4237068   4235383   4233617   4231887   4230287  
  4370.000000   4228939   4227956   4227442   4227490   4228142  
  4360.000000   4229425   4231305   4233742   4236656   4239983  
  4350.000000   4243650   4247616   4251852   4256360   4261151  
  4340.000000   4266246   4271638   4277283   4283066   4288795  
  4330.000000   4294209   4299009   4302908   4305692   4307279  
  4320.000000   4307732   4307279   4306238   4304987   4303844  
  4310.000000   4303069   4302763   4302953   4303534   4304402  
  4300.000000   4305403   4306444   4307425   4308303   4309029  
  4290.000000   4309585   4309952   4310132   4310144   4310028  
  4280.000000   4309829   4309611   4309415   4309294   4309260  
  4270.000000   4309341   4309516   4309770   4310029   4310210  
  4260.000000   4310172   4309779   4308882   4307386   4305245  
  4250.000000   4302508   4299285   4295756   4292103   4288512  
  4240.000000   4285109   4281979   4279130   4276543   4274155  
  4230.000000   4271907   4269730   4267572   4265386   4263137  
  4220.000000   4260802   4258367   4255850   4253270   4250688  
  4210.000000   4248152   4245734   4243472   4241411   4239546  
  4200.000000   4237884   4236392   4235067   4233873   4232824  
  4190.000000   4231897   4231126   4230497   4230061   4229809  
  4180.000000   4229806   4230053   4230627   4231536   4232862  
  4170.000000   4234613   4236871   4239632   4242965   4246841  
  4160.000000   4251302   4256284   4261804   4267778   4274222  
  4150.000000   4281063   4288337   4295994   4304095   4312606  
  4140.000000   4321596   4331039   4340999   4351444   4362426  
  4130.000000   4373897   4385888   4398337   4411265   4424611  
  4120.000000   4438395   4452569   4467156   4482110   4497450  
  4110.000000   4513132   4529172   4545530   4562223   4579214  
  4100.000000   4596509   4614065   4631870   4649879   4668074  
  4090.000000   4686421   4704907   4723514   4742230   4761053  
  4080.000000   4779974   4799005   4818135   4837377   4856694  
  4070.000000   4876068   4895410   4914670   4933736   4952573  
  4060.000000   4971094   4989310   5007150   5024640   5041690  
  4050.000000   5058319   5074427   5090059   5105135   5119729  
  4040.000000   5133743   5147220   5159998   5172072   5183252  
  4030.000000   5193545   5202797   5211058   5218220   5224340  
  4020.000000   5229294   5233158   5235903   5237644   5238334  
  4010.000000   5238162   5237228   5235589   5233000   5229578  
  4000.000000   5225736  
##END= 
