##TITLE= Sample 025 By ssteindl date Donnerstag, November 22 2018
##JCAMP-DX= 4.24
##DATA TYPE= INFRARED SPECTRUM
##ORIGIN= Exported PE Spectrum Data File
##OWNER= Sandra Steindl
##DATE= 18/11/22
##TIME= 10:51:58.00
##SPECTROMETER/DATA SYSTEM= PERKIN-ELMER Frontier FT-IR/NIR IR
##INSTRUMENT PARAMETERS=
  APODIZATION=stark
  DETECTOR=INGAAS
##RESOLUTION= 16.000000
##DELTAX= -2.000000
##XUNITS= 1/CM
##YUNITS= A
##XFACTOR= 1.00
##YFACTOR= 0.00000011920928955078
##FIRSTX= 10000.00
##LASTX= 4000.00
##NPOINTS= 3001
##FIRSTY= 0.231940
##MAXY= 0.561778
##MINY= 0.202709
##XYDATA= (X++(Y..Y))
 10000.000000   1945657   1943621   1942996   1945303   1950051  
  9990.000000   1955438   1960270   1964225   1967220   1969162  
  9980.000000   1970181   1970410   1969664   1967688   1964601  
  9970.000000   1961170   1958603   1958266   1961011   1966749  
  9960.000000   1974247   1981524   1986524   1987852   1985270  
  9950.000000   1979614   1972390   1965044   1958520   1953050  
  9940.000000   1948418   1944387   1941026   1938849   1938492  
  9930.000000   1940426   1944517   1950081   1956018   1961296  
  9920.000000   1965269   1967802   1969173   1969674   1969446  
  9910.000000   1968302   1966008   1962486   1958115   1953664  
  9900.000000   1950092   1948128   1947950   1949125   1950747  
  9890.000000   1951930   1952088   1951253   1949909   1948779  
  9880.000000   1948469   1949246   1951054   1953576   1956435  
  9870.000000   1959219   1961505   1962805   1962629   1960645  
  9860.000000   1956909   1952046   1947187   1943703   1942668  
  9850.000000   1944436   1948375   1953077   1956844   1958374  
  9840.000000   1957220   1953927   1949690   1945805   1943111  
  9830.000000   1941733   1941187   1940723   1939771   1938183  
  9820.000000   1936244   1934427   1933077   1932215   1931570  
  9810.000000   1930768   1929645   1928313   1927154   1926505  
  9800.000000   1926456   1926722   1926785   1926235   1925064  
  9790.000000   1923832   1923488   1924977   1928802   1934702  
  9780.000000   1941680   1948262   1953010   1954958   1953923  
  9770.000000   1950491   1945753   1940948   1937065   1934724  
  9760.000000   1934078   1934992   1937090   1939901   1942862  
  9750.000000   1945379   1946875   1946879   1945131   1941628  
  9740.000000   1936669   1930747   1924514   1918613   1913643  
  9730.000000   1910098   1908302   1908440   1910428   1913992  
  9720.000000   1918589   1923575   1928288   1932178   1934947  
  9710.000000   1936442   1936744   1935897   1934021   1931160  
  9700.000000   1927448   1923137   1918633   1914541   1911475  
  9690.000000   1910043   1910620   1913359   1918074   1924289  
  9680.000000   1931199   1937732   1942678   1944877   1943603  
  9670.000000   1938768   1931192   1922400   1914330   1908751  
  9660.000000   1906702   1908246   1912388   1917613   1922333  
  9650.000000   1925608   1927271   1927976   1928633   1929952  
  9640.000000   1931983   1934042   1935043   1933900   1930144  
  9630.000000   1924012   1916464   1908703   1901760   1896193  
  9620.000000   1891990   1888867   1886461   1884671   1883616  
  9610.000000   1883585   1884768   1887108   1890227   1893524  
  9600.000000   1896394   1898342   1899187   1898897   1897666  
  9590.000000   1895651   1893073   1890151   1887173   1884545  
  9580.000000   1882645   1881847   1882290   1883984   1886728  
  9570.000000   1890275   1894323   1898542   1902508   1905613  
  9560.000000   1907119   1906217   1902382   1895577   1886555  
  9550.000000   1876718   1867823   1861456   1858500   1858961  
  9540.000000   1861958   1866206   1870407   1873742   1875986  
  9530.000000   1877456   1878670   1879995   1881412   1882480  
  9520.000000   1882625   1881392   1878816   1875354   1871829  
  9510.000000   1869018   1867413   1867038   1867463   1868029  
  9500.000000   1868064   1867152   1865244   1862678   1860050  
  9490.000000   1858041   1857202   1857824   1859857   1862942  
  9480.000000   1866493   1869834   1872369   1873713   1873805  
  9470.000000   1872918   1871544   1870238   1869361   1868996  
  9460.000000   1868892   1868648   1867869   1866379   1864279  
  9450.000000   1861899   1859648   1857810   1856401   1855096  
  9440.000000   1853352   1850598   1846540   1841310   1835540  
  9430.000000   1830163   1826174   1824334   1824955   1827831  
  9420.000000   1832282   1837366   1842152   1845968   1848581  
  9410.000000   1850161   1851163   1852077   1853259   1854779  
  9400.000000   1856460   1857929   1858837   1858967   1858371  
  9390.000000   1857322   1856185   1855278   1854693   1854339  
  9380.000000   1853935   1853224   1852048   1850492   1848854  
  9370.000000   1847564   1847007   1847363   1848526   1850123  
  9360.000000   1851625   1852497   1852353   1851072   1848843  
  9350.000000   1846135   1843549   1841689   1840968   1841533  
  9340.000000   1843203   1845520   1847875   1849634   1850341  
  9330.000000   1849775   1848027   1845389   1842277   1839088  
  9320.000000   1836133   1833604   1831597   1830207   1829553  
  9310.000000   1829813   1831113   1833493   1836769   1840565  
  9300.000000   1844302   1847345   1849136   1849338   1847956  
  9290.000000   1845267   1841792   1838096   1834695   1831914  
  9280.000000   1829829   1828302   1827033   1825740   1824239  
  9270.000000   1822549   1820855   1819469   1818698   1818694  
  9260.000000   1819358   1820315   1821067   1821126   1820263  
  9250.000000   1818569   1816507   1814745   1813930   1814451  
  9240.000000   1816273   1818981   1821937   1824516   1826321  
  9230.000000   1827263   1827539   1827448   1827209   1826834  
  9220.000000   1826152   1824919   1823020   1820577   1817994  
  9210.000000   1815812   1814502   1814300   1815078   1816428  
  9200.000000   1817783   1818702   1819005   1818831   1818496  
  9190.000000   1818348   1818598   1819249   1820105   1820858  
  9180.000000   1821263   1821181   1820654   1819767   1818620  
  9170.000000   1817225   1815541   1813536   1811236   1808824  
  9160.000000   1806600   1804966   1804269   1804722   1806307  
  9150.000000   1808823   1811908   1815112   1817940   1819924  
  9140.000000   1820720   1820122   1818166   1815102   1811459  
  9130.000000   1807870   1804961   1803136   1802480   1802754  
  9120.000000   1803461   1804099   1804309   1804087   1803729  
  9110.000000   1803740   1804575   1806403   1809004   1811781  
  9100.000000   1814010   1815002   1814393   1812217   1808940  
  9090.000000   1805275   1801946   1799549   1798397   1798578  
  9080.000000   1799896   1802044   1804608   1807213   1809502  
  9070.000000   1811182   1812016   1811860   1810694   1808564  
  9060.000000   1805602   1801958   1797866   1793569   1789361  
  9050.000000   1785560   1782498   1780479   1779650   1780005  
  9040.000000   1781308   1783214   1785297   1787210   1788744  
  9030.000000   1789854   1790649   1791242   1791740   1792104  
  9020.000000   1792252   1792015   1791280   1789997   1788242  
  9010.000000   1786198   1784121   1782318   1781082   1780686  
  9000.000000   1781278   1782881   1785292   1788139   1790893  
  8990.000000   1793036   1794190   1794259   1793475   1792290  
  8980.000000   1791232   1790657   1790648   1790922   1791006  
  8970.000000   1790393   1788811   1786314   1783282   1780302  
  8960.000000   1777930   1776553   1776238   1776847   1778119  
  8950.000000   1779838   1781868   1784165   1786697   1789341  
  8940.000000   1791842   1793836   1794997   1795104   1794174  
  8930.000000   1792405   1790164   1787812   1785620   1783743  
  8920.000000   1782238   1781157   1780544   1780501   1781094  
  8910.000000   1782333   1784051   1785967   1787725   1789012  
  8900.000000   1789642   1789591   1789002   1788074   1786994  
  8890.000000   1785858   1784690   1783468   1782209   1780988  
  8880.000000   1779961   1779285   1779053   1779225   1779611  
  8870.000000   1779937   1779921   1779400   1778404   1777168  
  8860.000000   1776086   1775582   1775995   1777438   1779746  
  8850.000000   1782501   1785165   1787212   1788299   1788345  
  8840.000000   1787568   1786383   1785275   1784625   1784605  
  8830.000000   1785145   1785999   1786863   1787488   1787786  
  8820.000000   1787810   1787744   1787766   1788009   1788493  
  8810.000000   1789147   1789857   1790485   1790918   1791040  
  8800.000000   1790745   1789928   1788544   1786668   1784543  
  8790.000000   1782572   1781221   1780901   1781798   1783810  
  8780.000000   1786514   1789323   1791643   1793095   1793608  
  8770.000000   1793393   1792843   1792316   1792036   1791965  
  8760.000000   1791893   1791507   1790579   1789049   1787073  
  8750.000000   1784972   1783127   1781906   1781552   1782181  
  8740.000000   1783730   1786015   1788731   1791516   1793993  
  8730.000000   1795830   1796837   1796988   1796487   1795648  
  8720.000000   1794853   1794355   1794254   1794420   1794581  
  8710.000000   1794445   1793827   1792792   1791633   1790841  
  8700.000000   1790906   1792192   1794762   1798359   1802451  
  8690.000000   1806348   1809416   1811173   1811459   1810386  
  8680.000000   1808349   1805861   1803443   1801520   1800338  
  8670.000000   1800005   1800482   1801695   1803524   1805873  
  8660.000000   1808610   1811558   1814455   1816938   1818632  
  8650.000000   1819192   1818461   1816474   1813530   1810123  
  8640.000000   1806871   1804391   1803159   1803462   1805327  
  8630.000000   1808549   1812681   1817126   1821228   1824396  
  8620.000000   1826226   1826568   1825589   1823704   1821508  
  8610.000000   1819591   1818421   1818226   1818988   1820503  
  8600.000000   1822471   1824625   1826756   1828753   1830521  
  8590.000000   1831968   1832974   1833423   1833275   1832590  
  8580.000000   1831580   1830537   1829774   1829517   1829829  
  8570.000000   1830634   1831750   1833002   1834262   1835495  
  8560.000000   1836710   1837912   1839044   1839983   1840585  
  8550.000000   1840755   1840516   1840024   1839546   1839356  
  8540.000000   1839645   1840452   1841657   1843035   1844330  
  8530.000000   1845344   1845983   1846248   1846218   1845982  
  8520.000000   1845646   1845277   1844935   1844669   1844539  
  8510.000000   1844600   1844890   1845434   1846241   1847334  
  8500.000000   1848720   1850422   1852434   1854702   1857091  
  8490.000000   1859382   1861327   1862686   1863314   1863194  
  8480.000000   1862461   1861358   1860166   1859142   1858454  
  8470.000000   1858176   1858271   1858653   1859195   1859801  
  8460.000000   1860386   1860907   1861329   1861636   1861810  
  8450.000000   1861833   1861682   1861338   1860811   1860138  
  8440.000000   1859405   1858725   1858231   1858022   1858132  
  8430.000000   1858508   1859010   1859458   1859686   1859613  
  8420.000000   1859284   1858855   1858544   1858549   1858991  
  8410.000000   1859857   1861016   1862254   1863363   1864191  
  8400.000000   1864679   1864859   1864826   1864710   1864624  
  8390.000000   1864667   1864892   1865335   1865995   1866836  
  8380.000000   1867774   1868688   1869448   1869928   1870054  
  8370.000000   1869800   1869206   1868348   1867317   1866197  
  8360.000000   1865061   1864007   1863159   1862681   1862729  
  8350.000000   1863408   1864706   1866463   1868366   1870016  
  8340.000000   1871042   1871216   1870535   1869217   1867640  
  8330.000000   1866229   1865328   1865114   1865542   1866412  
  8320.000000   1867428   1868330   1868928   1869158   1869040  
  8310.000000   1868640   1868015   1867173   1866087   1864703  
  8300.000000   1863005   1861019   1858857   1856688   1854732  
  8290.000000   1853204   1852280   1852067   1852570   1853703  
  8280.000000   1855278   1857058   1858794   1860292   1861451  
  8270.000000   1862292   1862932   1863548   1864288   1865220  
  8260.000000   1866279   1867297   1868054   1868357   1868105  
  8250.000000   1867317   1866109   1864635   1863015   1861296  
  8240.000000   1859449   1857423   1855202   1852869   1850597  
  8230.000000   1848644   1847239   1846541   1846546   1847118  
  8220.000000   1848008   1848951   1849725   1850187   1850297  
  8210.000000   1850060   1849521   1848710   1847664   1846412  
  8200.000000   1845018   1843565   1842161   1840899   1839844  
  8190.000000   1839012   1838363   1837835   1837338   1836805  
  8180.000000   1836175   1835422   1834540   1833560   1832544  
  8170.000000   1831583   1830780   1830213   1829892   1829737  
  8160.000000   1829583   1829237   1828540   1827434   1825996  
  8150.000000   1824420   1822947   1821778   1820984   1820482  
  8140.000000   1820068   1819502   1818612   1817355   1815827  
  8130.000000   1814217   1812721   1811473   1810497   1809725  
  8120.000000   1809042   1808358   1807649   1806970   1806419  
  8110.000000   1806083   1805978   1806040   1806122   1806043  
  8100.000000   1805644   1804825   1803588   1802011   1800253  
  8090.000000   1798480   1796845   1795437   1794271   1793301  
  8080.000000   1792444   1791636   1790858   1790167   1789664  
  8070.000000   1789465   1789631   1790127   1790812   1791449  
  8060.000000   1791807   1791693   1791056   1789961   1788585  
  8050.000000   1787128   1785755   1784562   1783568   1782776  
  8040.000000   1782195   1781889   1781934   1782400   1783264  
  8030.000000   1784399   1785564   1786476   1786888   1786654  
  8020.000000   1785781   1784393   1782691   1780875   1779107  
  8010.000000   1777488   1776068   1774878   1773934   1773244  
  8000.000000   1772778   1772472   1772211   1771870   1771347  
  7990.000000   1770608   1769693   1768712   1767800   1767067  
  7980.000000   1766576   1766313   1766228   1766237   1766261  
  7970.000000   1766224   1766058   1765697   1765085   1764206  
  7960.000000   1763106   1761904   1760783   1759928   1759476  
  7950.000000   1759442   1759717   1760080   1760281   1760113  
  7940.000000   1759485   1758445   1757159   1755855   1754756  
  7930.000000   1754030   1753757   1753935   1754490   1755300  
  7920.000000   1756218   1757085   1757762   1758147   1758209  
  7910.000000   1757986   1757580   1757115   1756695   1756366  
  7900.000000   1756108   1755861   1755564   1755204   1754827  
  7890.000000   1754527   1754393   1754462   1754677   1754907  
  7880.000000   1754980   1754762   1754207   1753389   1752470  
  7870.000000   1751654   1751110   1750930   1751103   1751544  
  7860.000000   1752120   1752701   1753180   1753483   1753564  
  7850.000000   1753393   1752961   1752282   1751400   1750391  
  7840.000000   1749350   1748377   1747552   1746927   1746519  
  7830.000000   1746321   1746303   1746419   1746601   1746765  
  7820.000000   1746811   1746651   1746229   1745559   1744724  
  7810.000000   1743873   1743170   1742751   1742666   1742869  
  7800.000000   1743219   1743528   1743611   1743332   1742638  
  7790.000000   1741559   1740186   1738649   1737089   1735637  
  7780.000000   1734398   1733450   1732821   1732501   1732427  
  7770.000000   1732506   1732627   1732691   1732625   1732391  
  7760.000000   1731982   1731402   1730663   1729764   1728716  
  7750.000000   1727539   1726287   1725038   1723888   1722920  
  7740.000000   1722180   1721663   1721316   1721058   1720802  
  7730.000000   1720486   1720080   1719597   1719075   1718571  
  7720.000000   1718143   1717843   1717710   1717746   1717921  
  7710.000000   1718154   1718337   1718342   1718067   1717460  
  7700.000000   1716543   1715409   1714201   1713077   1712163  
  7690.000000   1711534   1711202   1711131   1711256   1711505  
  7680.000000   1711811   1712108   1712329   1712403   1712271  
  7670.000000   1711902   1711311   1710568   1709788   1709102  
  7660.000000   1708620   1708403   1708444   1708675   1708988  
  7650.000000   1709264   1709399   1709323   1709002   1708440  
  7640.000000   1707680   1706791   1705879   1705056   1704433  
  7630.000000   1704084   1704027   1704208   1704520   1704832  
  7620.000000   1705030   1705061   1704942   1704766   1704657  
  7610.000000   1704732   1705051   1705590   1706242   1706839  
  7600.000000   1707209   1707204   1706764   1705908   1704752  
  7590.000000   1703467   1702253   1701282   1700670   1700446  
  7580.000000   1700563   1700916   1701388   1701888   1702380  
  7570.000000   1702884   1703462   1704174   1705043   1706029  
  7560.000000   1707039   1707944   1708643   1709082   1709293  
  7550.000000   1709366   1709433   1709609   1709955   1710464  
  7540.000000   1711068   1711671   1712181   1712543   1712752  
  7530.000000   1712848   1712897   1712974   1713137   1713424  
  7520.000000   1713847   1714394   1715037   1715729   1716419  
  7510.000000   1717053   1717599   1718040   1718395   1718699  
  7500.000000   1719003   1719351   1719774   1720277   1720856  
  7490.000000   1721499   1722207   1722984   1723844   1724782  
  7480.000000   1725785   1726808   1727808   1728740   1729597  
  7470.000000   1730399   1731205   1732080   1733082   1734233  
  7460.000000   1735531   1736943   1738434   1739964   1741508  
  7450.000000   1743033   1744501   1745854   1747033   1748000  
  7440.000000   1748774   1749430   1750104   1750937   1752041  
  7430.000000   1753444   1755076   1756795   1758436   1759880  
  7420.000000   1761100   1762174   1763251   1764489   1765989  
  7410.000000   1767754   1769695   1771663   1773510   1775133  
  7400.000000   1776515   1777697   1778757   1779765   1780762  
  7390.000000   1781756   1782738   1783708   1784685   1785711  
  7380.000000   1786829   1788069   1789424   1790869   1792363  
  7370.000000   1793878   1795398   1796919   1798433   1799901  
  7360.000000   1801264   1802435   1803353   1803988   1804380  
  7350.000000   1804625   1804863   1805228   1805822   1806694  
  7340.000000   1807834   1809212   1810782   1812516   1814384  
  7330.000000   1816359   1818392   1820416   1822353   1824135  
  7320.000000   1825730   1827140   1828399   1829555   1830645  
  7310.000000   1831692   1832692   1833639   1834524   1835364  
  7300.000000   1836175   1836989   1837815   1838651   1839461  
  7290.000000   1840211   1840855   1841374   1841760   1842027  
  7280.000000   1842201   1842316   1842411   1842524   1842689  
  7270.000000   1842931   1843255   1843642   1844057   1844453  
  7260.000000   1844798   1845088   1845357   1845663   1846074  
  7250.000000   1846629   1847334   1848137   1848975   1849772  
  7240.000000   1850504   1851186   1851896   1852725   1853765  
  7230.000000   1855052   1856586   1858310   1860166   1862087  
  7220.000000   1864046   1866028   1868046   1870106   1872226  
  7210.000000   1874401   1876640   1878935   1881298   1883719  
  7200.000000   1886194   1888688   1891177   1893617   1896001  
  7190.000000   1898325   1900628   1902945   1905333   1907825  
  7180.000000   1910457   1913245   1916219   1919395   1922802  
  7170.000000   1926433   1930267   1934222   1938208   1942114  
  7160.000000   1945882   1949489   1952996   1956484   1960067  
  7150.000000   1963826   1967821   1972046   1976485   1981078  
  7140.000000   1985786   1990554   1995353   2000132   2004863  
  7130.000000   2009504   2014057   2018540   2023036   2027645  
  7120.000000   2032496   2037684   2043263   2049208   2055443  
  7110.000000   2061838   2068270   2074611   2080790   2086752  
  7100.000000   2092503   2098057   2103475   2108813   2114159  
  7090.000000   2119584   2125168   2130961   2136995   2143267  
  7080.000000   2149748   2156380   2163098   2169828   2176513  
  7070.000000   2183105   2189589   2195963   2202257   2208496  
  7060.000000   2214721   2220948   2227187   2233425   2239648  
  7050.000000   2245845   2252014   2258181   2264377   2270651  
  7040.000000   2277032   2283538   2290155   2296850   2303566  
  7030.000000   2310239   2316804   2323204   2329388   2335320  
  7020.000000   2340976   2346354   2351466   2356348   2361050  
  7010.000000   2365652   2370230   2374879   2379673   2384677  
  7000.000000   2389896   2395304   2400799   2406262   2411543  
  6990.000000   2416533   2421162   2425447   2429456   2433309  
  6980.000000   2437110   2440940   2444808   2448686   2452506  
  6970.000000   2456221   2459792   2463233   2466551   2469780  
  6960.000000   2472905   2475920   2478786   2481506   2484092  
  6950.000000   2486605   2489100   2491625   2494168   2496673  
  6940.000000   2499033   2501146   2502934   2504396   2505588  
  6930.000000   2506634   2507669   2508827   2510191   2511803  
  6920.000000   2513641   2515658   2517765   2519879   2521907  
  6910.000000   2523792   2525490   2526999   2528337   2529541  
  6900.000000   2530637   2531638   2532530   2533293   2533910  
  6890.000000   2534394   2534787   2535166   2535600   2536151  
  6880.000000   2536828   2537611   2538444   2539278   2540081  
  6870.000000   2540850   2541599   2542339   2543065   2543748  
  6860.000000   2544346   2544827   2545193   2545486   2545780  
  6850.000000   2546159   2546685   2547385   2548233   2549180  
  6840.000000   2550154   2551094   2551947   2552681   2553270  
  6830.000000   2553699   2553964   2554078   2554070   2553994  
  6820.000000   2553905   2553853   2553859   2553919   2553997  
  6810.000000   2554053   2554048   2553969   2553814   2553609  
  6800.000000   2553375   2553141   2552921   2552735   2552589  
  6790.000000   2552485   2552410   2552335   2552211   2551988  
  6780.000000   2551621   2551095   2550426   2549665   2548870  
  6770.000000   2548093   2547358   2546667   2545998   2545333  
  6760.000000   2544665   2544006   2543377   2542792   2542245  
  6750.000000   2541708   2541138   2540498   2539765   2538949  
  6740.000000   2538074   2537182   2536300   2535455   2534654  
  6730.000000   2533906   2533214   2532583   2532003   2531448  
  6720.000000   2530859   2530167   2529299   2528214   2526909  
  6710.000000   2525434   2523871   2522313   2520838   2519496  
  6700.000000   2518296   2517222   2516234   2515290   2514338  
  6690.000000   2513333   2512231   2511008   2509657   2508202  
  6680.000000   2506687   2505169   2503685   2502252   2500849  
  6670.000000   2499439   2497987   2496487   2494961   2493464  
  6660.000000   2492039   2490704   2489421   2488116   2486697  
  6650.000000   2485096   2483297   2481348   2479337   2477368  
  6640.000000   2475513   2473803   2472216   2470699   2469189  
  6630.000000   2467632   2465989   2464240   2462370   2460377  
  6620.000000   2458273   2456096   2453903   2451776   2449782  
  6610.000000   2447968   2446328   2444815   2443352   2441862  
  6600.000000   2440295   2438636   2436901   2435114   2433295  
  6590.000000   2431446   2429562   2427639   2425697   2423771  
  6580.000000   2421904   2420131   2418461   2416877   2415346  
  6570.000000   2413845   2412368   2410938   2409581   2408310  
  6560.000000   2407104   2405901   2404622   2403193   2401588  
  6550.000000   2399831   2397995   2396172   2394442   2392847  
  6540.000000   2391390   2390045   2388778   2387564   2386392  
  6530.000000   2385254   2384139   2383018   2381862   2380645  
  6520.000000   2379373   2378075   2376809   2375630   2374575  
  6510.000000   2373641   2372793   2371977   2371145   2370271  
  6500.000000   2369357   2368424   2367494   2366577   2365671  
  6490.000000   2364761   2363834   2362890   2361933   2360972  
  6480.000000   2360009   2359034   2358033   2356998   2355939  
  6470.000000   2354886   2353878   2352944   2352087   2351278  
  6460.000000   2350465   2349593   2348634   2347594   2346516  
  6450.000000   2345457   2344470   2343575   2342767   2342011  
  6440.000000   2341271   2340522   2339756   2338978   2338198  
  6430.000000   2337419   2336636   2335842   2335039   2334240  
  6420.000000   2333473   2332760   2332109   2331503   2330906  
  6410.000000   2330273   2329570   2328793   2327964   2327130  
  6400.000000   2326338   2325625   2325008   2324480   2324023  
  6390.000000   2323610   2323213   2322805   2322353   2321824  
  6380.000000   2321189   2320436   2319575   2318643   2317699  
  6370.000000   2316802   2315997   2315298   2314691   2314137  
  6360.000000   2313591   2313016   2312390   2311710   2310984  
  6350.000000   2310229   2309461   2308702   2307969   2307280  
  6340.000000   2306638   2306033   2305436   2304808   2304115  
  6330.000000   2303340   2302493   2301610   2300734   2299905  
  6320.000000   2299126   2298374   2297596   2296742   2295776  
  6310.000000   2294703   2293549   2292371   2291207   2290085  
  6300.000000   2288993   2287910   2286797   2285633   2284399  
  6290.000000   2283095   2281714   2280254   2278701   2277053  
  6280.000000   2275311   2273502   2271656   2269811   2267986  
  6270.000000   2266187   2264390   2262572   2260702   2258773  
  6260.000000   2256787   2254765   2252724   2250678   2248625  
  6250.000000   2246563   2244489   2242410   2240339   2238291  
  6240.000000   2236274   2234282   2232296   2230299   2228275  
  6230.000000   2226224   2224157   2222090   2220033   2217985  
  6220.000000   2215931   2213854   2211741   2209594   2207426  
  6210.000000   2205259   2203111   2200990   2198888   2196793  
  6200.000000   2194692   2192583   2190472   2188374   2186301  
  6190.000000   2184256   2182234   2180220   2178203   2176174  
  6180.000000   2174139   2172105   2170088   2168095   2166132  
  6170.000000   2164201   2162303   2160437   2158608   2156816  
  6160.000000   2155058   2153329   2151624   2149942   2148289  
  6150.000000   2146677   2145118   2143616   2142164   2140736  
  6140.000000   2139303   2137830   2136299   2134704   2133057  
  6130.000000   2131377   2129692   2128018   2126374   2124771  
  6120.000000   2123230   2121766   2120403   2119149   2118005  
  6110.000000   2116948   2115946   2114956   2113946   2112892  
  6100.000000   2111797   2110677   2109565   2108494   2107501  
  6090.000000   2106602   2105811   2105120   2104515   2103967  
  6080.000000   2103455   2102952   2102454   2101957   2101482  
  6070.000000   2101043   2100662   2100340   2100082   2099872  
  6060.000000   2099707   2099581   2099509   2099500   2099576  
  6050.000000   2099738   2099991   2100318   2100712   2101160  
  6040.000000   2101670   2102245   2102899   2103627   2104422  
  6030.000000   2105258   2106116   2106977   2107842   2108720  
  6020.000000   2109631   2110584   2111583   2112611   2113653  
  6010.000000   2114688   2115710   2116721   2117732   2118744  
  6000.000000   2119757   2120755   2121722   2122643   2123522  
  5990.000000   2124372   2125222   2126093   2127004   2127958  
  5980.000000   2128952   2129980   2131049   2132172   2133375  
  5970.000000   2134678   2136091   2137604   2139198   2140839  
  5960.000000   2142501   2144160   2145810   2147443   2149062  
  5950.000000   2150659   2152238   2153796   2155344   2156894  
  5940.000000   2158468   2160083   2161752   2163477   2165255  
  5930.000000   2167080   2168947   2170856   2172804   2174785  
  5920.000000   2176785   2178783   2180756   2182688   2184572  
  5910.000000   2186409   2188209   2189975   2191707   2193400  
  5900.000000   2195048   2196655   2198236   2199820   2201433  
  5890.000000   2203098   2204816   2206578   2208361   2210147  
  5880.000000   2211929   2213711   2215507   2217324   2219158  
  5870.000000   2220984   2222775   2224501   2226154   2227738  
  5860.000000   2229284   2230822   2232386   2233993   2235659  
  5850.000000   2237395   2239218   2241150   2243213   2245413  
  5840.000000   2247741   2250158   2252618   2255072   2257491  
  5830.000000   2259868   2262220   2264571   2266938   2269317  
  5820.000000   2271685   2274006   2276245   2278382   2280408  
  5810.000000   2282332   2284154   2285884   2287507   2289029  
  5800.000000   2290439   2291765   2293017   2294233   2295410  
  5790.000000   2296551   2297609   2298548   2299305   2299848  
  5780.000000   2300133   2300152   2299883   2299324   2298470  
  5770.000000   2297344   2295980   2294453   2292848   2291263  
  5760.000000   2289777   2288448   2287295   2286318   2285491  
  5750.000000   2284796   2284210   2283720   2283317   2282981  
  5740.000000   2282701   2282453   2282230   2282022   2281841  
  5730.000000   2281686   2281574   2281496   2281458   2281446  
  5720.000000   2281468   2281527   2281642   2281823   2282086  
  5710.000000   2282425   2282834   2283297   2283805   2284353  
  5700.000000   2284945   2285585   2286276   2287012   2287781  
  5690.000000   2288572   2289372   2290179   2290984   2291779  
  5680.000000   2292540   2293238   2293838   2294315   2294654  
  5670.000000   2294865   2294961   2294966   2294886   2294726  
  5660.000000   2294469   2294115   2293664   2293144   2292589  
  5650.000000   2292040   2291519   2291034   2290568   2290097  
  5640.000000   2289596   2289058   2288485   2287891   2287291  
  5630.000000   2286695   2286110   2285542   2285005   2284518  
  5620.000000   2284099   2283761   2283490   2283255   2283007  
  5610.000000   2282702   2282309   2281830   2281288   2280726  
  5600.000000   2280177   2279657   2279157   2278654   2278115  
  5590.000000   2277526   2276881   2276195   2275480   2274751  
  5580.000000   2274000   2273221   2272398   2271527   2270610  
  5570.000000   2269665   2268705   2267744   2266785   2265827  
  5560.000000   2264863   2263893   2262915   2261930   2260935  
  5550.000000   2259924   2258887   2257822   2256734   2255639  
  5540.000000   2254561   2253524   2252540   2251604   2250698  
  5530.000000   2249798   2248885   2247950   2246998   2246041  
  5520.000000   2245089   2244148   2243213   2242278   2241336  
  5510.000000   2240386   2239433   2238479   2237523   2236560  
  5500.000000   2235577   2234569   2233533   2232481   2231422  
  5490.000000   2230365   2229300   2228210   2227068   2225856  
  5480.000000   2224568   2223224   2221848   2220471   2219099  
  5470.000000   2217727   2216321   2214852   2213295   2211651  
  5460.000000   2209936   2208181   2206409   2204632   2202846  
  5450.000000   2201046   2199225   2197391   2195558   2193747  
  5440.000000   2191966   2190214   2188482   2186758   2185045  
  5430.000000   2183356   2181720   2180153   2178667   2177246  
  5420.000000   2175878   2174539   2173238   2171990   2170842  
  5410.000000   2169825   2168965   2168249   2167656   2167145  
  5400.000000   2166703   2166315   2166008   2165791   2165690  
  5390.000000   2165694   2165802   2165990   2166270   2166650  
  5380.000000   2167181   2167888   2168812   2169935   2171250  
  5370.000000   2172700   2174269   2175916   2177661   2179489  
  5360.000000   2181446   2183518   2185754   2188146   2190769  
  5350.000000   2193645   2196876   2200484   2204546   2209034  
  5340.000000   2213972   2219292   2225020   2231106   2237607  
  5330.000000   2244484   2251797   2259486   2267595   2276062  
  5320.000000   2284963   2294282   2304150   2314580   2325713  
  5310.000000   2337525   2350103   2363367   2377365   2392007  
  5300.000000   2407359   2423370   2440153   2457701   2476148  
  5290.000000   2495480   2515779   2536950   2558965   2581647  
  5280.000000   2604925   2628661   2652882   2677586   2702904  
  5270.000000   2728879   2755561   2782846   2810571   2838496  
  5260.000000   2866404   2894155   2921700   2949091   2976369  
  5250.000000   3003572   3030594   3057309   3083451   3108868  
  5240.000000   3133368   3156979   3179687   3201665   3222946  
  5230.000000   3243669   3263765   3283252   3301953   3319846  
  5220.000000   3336781   3352821   3367924   3382256   3395835  
  5210.000000   3408831   3421206   3433026   3444147   3454564  
  5200.000000   3464124   3472876   3480763   3487923   3494349  
  5190.000000   3500173   3505346   3509937   3513856   3517159  
  5180.000000   3519786   3521833   3523270   3524191   3524545  
  5170.000000   3524384   3523641   3522379   3520572   3518328  
  5160.000000   3515662   3512677   3509357   3505748   3501789  
  5150.000000   3497502   3492841   3487859   3482554   3476999  
  5140.000000   3471198   3465209   3459021   3452679   3446178  
  5130.000000   3439566   3432848   3426062   3419198   3412270  
  5120.000000   3405256   3398166   3390993   3383769   3376505  
  5110.000000   3369236   3361967   3354714   3347464   3340221  
  5100.000000   3332976   3325739   3318511   3311301   3304105  
  5090.000000   3296922   3289737   3282549   3275352   3268155  
  5080.000000   3260960   3253779   3246606   3239439   3232262  
  5070.000000   3225066   3217837   3210574   3203272   3195938  
  5060.000000   3188569   3181169   3173735   3166270   3158777  
  5050.000000   3151270   3143762   3136267   3128799   3121366  
  5040.000000   3113970   3106611   3099288   3091998   3084748  
  5030.000000   3077539   3070387   3063300   3056300   3049396  
  5020.000000   3042610   3035944   3029413   3023007   3016733  
  5010.000000   3010575   3004543   2998622   2992833   2987172  
  5000.000000   2981671   2976329   2971178   2966211   2961456  
  4990.000000   2956895   2952552   2948407   2944489   2940777  
  4980.000000   2937310   2934071   2931106   2928403   2926012  
  4970.000000   2923923   2922185   2920780   2919747   2919054  
  4960.000000   2918728   2918730   2919089   2919767   2920801  
  4950.000000   2922156   2923866   2925889   2928247   2930893  
  4940.000000   2933847   2937069   2940594   2944395   2948510  
  4930.000000   2952908   2957614   2962583   2967822   2973282  
  4920.000000   2978969   2984843   2990919   2997168   3003608  
  4910.000000   3010215   3017006   3023963   3031101   3038404  
  4900.000000   3045879   3053505   3061275   3069162   3077151  
  4890.000000   3085220   3093356   3101546   3109776   3118031  
  4880.000000   3126289   3134526   3142707   3150803   3158775  
  4870.000000   3166594   3174227   3181658   3188870   3195874  
  4860.000000   3202675   3209311   3215797   3222170   3228432  
  4850.000000   3234599   3240650   3246588   3252387   3258060  
  4840.000000   3263594   3269011   3274302   3279486   3284542  
  4830.000000   3289479   3294271   3298923   3303414   3307753  
  4820.000000   3311923   3315935   3319773   3323450   3326952  
  4810.000000   3330296   3333474   3336504   3339382   3342128  
  4800.000000   3344737   3347236   3349627   3351938   3354174  
  4790.000000   3356360   3358491   3360580   3362614   3364601  
  4780.000000   3366527   3368402   3370212   3371968   3373649  
  4770.000000   3375255   3376757   3378150   3379402   3380511  
  4760.000000   3381448   3382216   3382792   3383183   3383374  
  4750.000000   3383383   3383206   3382871   3382376   3381748  
  4740.000000   3380974   3380069   3379012   3377812   3376453  
  4730.000000   3374951   3373300   3371524   3369625   3367623  
  4720.000000   3365520   3363332   3361058   3358715   3356303  
  4710.000000   3353840   3351334   3348810   3346282   3343776  
  4700.000000   3341309   3338896   3336538   3334228   3331946  
  4690.000000   3329669   3327372   3325038   3322661   3320243  
  4680.000000   3317795   3315328   3312851   3310361   3307861  
  4670.000000   3305339   3302800   3300244   3297693   3295164  
  4660.000000   3292693   3290300   3288023   3285879   3283898  
  4650.000000   3282089   3280472   3279042   3277798   3276718  
  4640.000000   3275784   3274964   3274242   3273596   3273027  
  4630.000000   3272524   3272093   3271720   3271401   3271111  
  4620.000000   3270839   3270563   3270282   3269986   3269683  
  4610.000000   3269369   3269047   3268711   3268362   3268002  
  4600.000000   3267644   3267305   3267005   3266763   3266589  
  4590.000000   3266488   3266450   3266469   3266531   3266625  
  4580.000000   3266737   3266855   3266954   3267012   3267000  
  4570.000000   3266895   3266683   3266364   3265946   3265452  
  4560.000000   3264900   3264310   3263690   3263046   3262371  
  4550.000000   3261662   3260910   3260110   3259259   3258358  
  4540.000000   3257412   3256431   3255432   3254427   3253443  
  4530.000000   3252489   3251592   3250754   3250007   3249355  
  4520.000000   3248841   3248469   3248291   3248301   3248548  
  4510.000000   3249017   3249763   3250782   3252159   3253913  
  4500.000000   3256151   3258887   3262212   3266103   3270616  
  4490.000000   3275701   3281403   3287675   3294575   3302062  
  4480.000000   3310187   3318890   3328189   3338000   3348318  
  4470.000000   3359059   3370221   3381735   3393603   3405764  
  4460.000000   3418210   3430875   3443730   3456704   3469755  
  4450.000000   3482814   3495838   3508778   3521605   3534303  
  4440.000000   3546867   3559317   3571654   3583910   3596069  
  4430.000000   3608151   3620106   3631936   3643557   3654960  
  4420.000000   3666039   3676781   3687073   3696904   3706164  
  4410.000000   3714851   3722860   3730194   3736753   3742541  
  4400.000000   3747474   3751574   3754795   3757204   3758812  
  4390.000000   3759733   3760028   3759836   3759239   3758369  
  4380.000000   3757310   3756178   3755057   3754053   3753259  
  4370.000000   3752775   3752690   3753075   3753993   3755469  
  4360.000000   3757527   3760144   3763304   3766947   3771020  
  4350.000000   3775442   3780141   3785051   3790126   3795351  
  4340.000000   3800729   3806273   3811964   3817731   3823416  
  4330.000000   3828784   3833538   3837384   3840085   3841540  
  4320.000000   3841802   3841104   3839779   3838237   3836824  
  4310.000000   3835829   3835365   3835463   3836006   3836870  
  4300.000000   3837877   3838913   3839866   3840688   3841341  
  4290.000000   3841816   3842112   3842239   3842215   3842068  
  4280.000000   3841830   3841542   3841233   3840956   3840737  
  4270.000000   3840629   3840644   3840799   3841039   3841284  
  4260.000000   3841385   3841179   3840487   3839186   3837212  
  4250.000000   3834605   3831478   3828022   3824437   3820928  
  4240.000000   3817638   3814668   3812040   3809744   3807717  
  4230.000000   3805896   3804198   3802551   3800884   3799135  
  4220.000000   3797263   3795239   3793074   3790784   3788431  
  4210.000000   3786065   3783764   3781576   3779555   3777721  
  4200.000000   3776095   3774667   3773440   3772385   3771501  
  4190.000000   3770750   3770140   3769637   3769264   3768999  
  4180.000000   3768888   3768921   3769163   3769616   3770366  
  4170.000000   3771434   3772928   3774879   3777393   3780477  
  4160.000000   3784199   3788512   3793434   3798884   3804868  
  4150.000000   3811312   3818245   3825611   3833455   3841726  
  4140.000000   3850469   3859632   3869263   3879313   3889831  
  4130.000000   3900769   3912157   3923936   3936118   3948640  
  4120.000000   3961523   3974731   3988309   4002247   4016597  
  4110.000000   4031342   4046498   4062014   4077866   4093974  
  4100.000000   4110300   4126777   4143387   4160098   4176924  
  4090.000000   4193864   4210937   4228148   4245500   4262989  
  4080.000000   4280605   4298350   4316208   4334185   4352239  
  4070.000000   4370348   4388428   4406431   4424256   4441879  
  4060.000000   4459229   4476330   4493128   4509650   4525814  
  4050.000000   4541626   4556979   4571889   4586257   4600124  
  4040.000000   4613384   4626065   4638024   4649270   4659656  
  4030.000000   4669222   4677858   4685631   4692451   4698365  
  4020.000000   4703234   4707103   4709910   4711742   4712539  
  4010.000000   4712476   4711652   4710135   4707724   4704546  
  4000.000000   4700983  
##END= 
