##TITLE= Sample 044 By ssteindl date Donnerstag, November 22 2018
##JCAMP-DX= 4.24
##DATA TYPE= INFRARED SPECTRUM
##ORIGIN= Exported PE Spectrum Data File
##OWNER= Sandra Steindl
##DATE= 18/11/22
##TIME= 12:24:35.00
##SPECTROMETER/DATA SYSTEM= PERKIN-ELMER Frontier FT-IR/NIR IR
##INSTRUMENT PARAMETERS=
  APODIZATION=stark
  DETECTOR=INGAAS
##RESOLUTION= 16.000000
##DELTAX= -2.000000
##XUNITS= 1/CM
##YUNITS= A
##XFACTOR= 1.00
##YFACTOR= 0.00000011920928955078
##FIRSTX= 10000.00
##LASTX= 4000.00
##NPOINTS= 3001
##FIRSTY= 0.199685
##MAXY= 0.660791
##MINY= 0.170535
##XYDATA= (X++(Y..Y))
 10000.000000   1675079   1670874   1667863   1667513   1669882  
  9990.000000   1673912   1678670   1683447   1687415   1689712  
  9980.000000   1690125   1689061   1687387   1686095   1686104  
  9970.000000   1687928   1691387   1695773   1700089   1703543  
  9960.000000   1705838   1707336   1708787   1710961   1714116  
  9950.000000   1717795   1720839   1721818   1719611   1713896  
  9940.000000   1705392   1695647   1686548   1679687   1675842  
  9930.000000   1674832   1675673   1677096   1677984   1677797  
  9920.000000   1676531   1674683   1672843   1671587   1671255  
  9910.000000   1672011   1673888   1676757   1680362   1684111  
  9900.000000   1687158   1688401   1686847   1681938   1673864  
  9890.000000   1663664   1652966   1643599   1636987   1633848  
  9880.000000   1633979   1636521   1640234   1643951   1646811  
  9870.000000   1648344   1648409   1646972   1644063   1639673  
  9860.000000   1633970   1627301   1620384   1614069   1609267  
  9850.000000   1606594   1606274   1608071   1611383   1615459  
  9840.000000   1619558   1623135   1625901   1627817   1629066  
  9830.000000   1629922   1630708   1631669   1632978   1634661  
  9820.000000   1636643   1638752   1640750   1642424   1643569  
  9810.000000   1644097   1643956   1643205   1641925   1640250  
  9800.000000   1638323   1636253   1634113   1631853   1629369  
  9790.000000   1626479   1623081   1619197   1615047   1611050  
  9780.000000   1607684   1605436   1604587   1605257   1607339  
  9770.000000   1610664   1615029   1620259   1626112   1632174  
  9760.000000   1637782   1642035   1644062   1643229   1639522  
  9750.000000   1633543   1626465   1619610   1614039   1610231  
  9740.000000   1607967   1606611   1605420   1604021   1602493  
  9730.000000   1601374   1601234   1602384   1604575   1607083  
  9720.000000   1608979   1609525   1608518   1606308   1603668  
  9710.000000   1601372   1599914   1599294   1599147   1598956  
  9700.000000   1598348   1597211   1595659   1593866   1591897  
  9690.000000   1589683   1587127   1584295   1581571   1579597  
  9680.000000   1579059   1580332   1583211   1586889   1590168  
  9670.000000   1591969   1591718   1589666   1586767   1584333  
  9660.000000   1583508   1584815   1587975   1591982   1595479  
  9650.000000   1597168   1596218   1592440   1586309   1578775  
  9640.000000   1571014   1564165   1559121   1556381   1555983  
  9630.000000   1557480   1560071   1562777   1564728   1565419  
  9620.000000   1564844   1563490   1562114   1561457   1562002  
  9610.000000   1563797   1566566   1569790   1572992   1575811  
  9600.000000   1578068   1579685   1580565   1580584   1579601  
  9590.000000   1577635   1574964   1572150   1569897   1568795  
  9580.000000   1569046   1570354   1571958   1572954   1572579  
  9570.000000   1570564   1567185   1563207   1559563   1557045  
  9560.000000   1556021   1556357   1557492   1558663   1559183  
  9550.000000   1558632   1556966   1554467   1551606   1548890  
  9540.000000   1546703   1545233   1544448   1544120   1543942  
  9530.000000   1543612   1542972   1542031   1540943   1539925  
  9520.000000   1539129   1538576   1538159   1537693   1537060  
  9510.000000   1536243   1535389   1534697   1534338   1534350  
  9500.000000   1534601   1534877   1534958   1534807   1534551  
  9490.000000   1534516   1535012   1536226   1538077   1540224  
  9480.000000   1542188   1543469   1543710   1542696   1540368  
  9470.000000   1536736   1531901   1526062   1519641   1513292  
  9460.000000   1507863   1504197   1502841   1503855   1506687  
  9450.000000   1510385   1513858   1516305   1517453   1517628  
  9440.000000   1517562   1518008   1519413   1521646   1524124  
  9430.000000   1525998   1526600   1525601   1523194   1519898  
  9420.000000   1516422   1513361   1511060   1509567   1508695  
  9410.000000   1508226   1507987   1507976   1508279   1509078  
  9400.000000   1510533   1512814   1515974   1519950   1524406  
  9390.000000   1528777   1532310   1534279   1534219   1532081  
  9380.000000   1528335   1523798   1519439   1515981   1513657  
  9370.000000   1512095   1510486   1507983   1504067   1498855  
  9360.000000   1493055   1487824   1484343   1483491   1485481  
  9350.000000   1489828   1495464   1501086   1505518   1507971  
  9340.000000   1508214   1506513   1503566   1500242   1497383  
  9330.000000   1495517   1494772   1494825   1495093   1494895  
  9320.000000   1493727   1491420   1488226   1484773   1481808  
  9310.000000   1479974   1479532   1480343   1481937   1483750  
  9300.000000   1485333   1486523   1487458   1488442   1489742  
  9290.000000   1491402   1493205   1494712   1495450   1495041  
  9280.000000   1493366   1490586   1487128   1483546   1480373  
  9270.000000   1478029   1476736   1476531   1477237   1478505  
  9260.000000   1479880   1480911   1481276   1480869   1479814  
  9250.000000   1478443   1477186   1476448   1476476   1477292  
  9240.000000   1478713   1480440   1482167   1483647   1484708  
  9230.000000   1485231   1485113   1484270   1482660   1480329  
  9220.000000   1477447   1474312   1471275   1468658   1466633  
  9210.000000   1465215   1464265   1463604   1463090   1462654  
  9200.000000   1462311   1462048   1461809   1461410   1460640  
  9190.000000   1459290   1457339   1454987   1452687   1451005  
  9180.000000   1450456   1451365   1453770   1457437   1461895  
  9170.000000   1466578   1470934   1474537   1477112   1478536  
  9160.000000   1478839   1478181   1476842   1475143   1473389  
  9150.000000   1471794   1470460   1469357   1468344   1467261  
  9140.000000   1465980   1464494   1462863   1461243   1459775  
  9130.000000   1458602   1457782   1457333   1457214   1457397  
  9120.000000   1457859   1458582   1459508   1460514   1461429  
  9110.000000   1462021   1462072   1461376   1459857   1457538  
  9100.000000   1454615   1451374   1448190   1445438   1443415  
  9090.000000   1442297   1442057   1442555   1443544   1444818  
  9080.000000   1446215   1447697   1449279   1450984   1452745  
  9070.000000   1454334   1455415   1455599   1454643   1452483  
  9060.000000   1449346   1445640   1441892   1438549   1435877  
  9050.000000   1433929   1432587   1431681   1431055   1430662  
  9040.000000   1430548   1430829   1431594   1432866   1434573  
  9030.000000   1436559   1438645   1440632   1442373   1443742  
  9020.000000   1444696   1445230   1445407   1445333   1445142  
  9010.000000   1444958   1444855   1444848   1444896   1444945  
  9000.000000   1444939   1444878   1444783   1444698   1444625  
  8990.000000   1444524   1444309   1443895   1443253   1442424  
  8980.000000   1441533   1440721   1440107   1439721   1439515  
  8970.000000   1439404   1439321   1439283   1439373   1439737  
  8960.000000   1440490   1441670   1443207   1444950   1446733  
  8950.000000   1448388   1449778   1450755   1451196   1450945  
  8940.000000   1449917   1448114   1445737   1443159   1440845  
  8930.000000   1439249   1438624   1439010   1440179   1441837  
  8920.000000   1443718   1445740   1447956   1450468   1453261  
  8910.000000   1456051   1458324   1459414   1458833   1456414  
  8900.000000   1452527   1447896   1443450   1439990   1437972  
  8890.000000   1437445   1438091   1439511   1441370   1443579  
  8880.000000   1446184   1449304   1452932   1456864   1460695  
  8870.000000   1463935   1466207   1467312   1467314   1466420  
  8860.000000   1464950   1463182   1461322   1459516   1457875  
  8850.000000   1456533   1455600   1455154   1455174   1455550  
  8840.000000   1456092   1456615   1456992   1457198   1457297  
  8830.000000   1457387   1457568   1457889   1458388   1459092  
  8820.000000   1460070   1461389   1463096   1465130   1467338  
  8810.000000   1469454   1471226   1472469   1473162   1473431  
  8800.000000   1473499   1473587   1473836   1474300   1474984  
  8790.000000   1475923   1477220   1479028   1481454   1484455  
  8780.000000   1487759   1490907   1493371   1494754   1494944  
  8770.000000   1494183   1492988   1491973   1491642   1492232  
  8760.000000   1493674   1495662   1497802   1499746   1501262  
  8750.000000   1502256   1502705   1502650   1502152   1501355  
  8740.000000   1500495   1499907   1499952   1500875   1502710  
  8730.000000   1505179   1507782   1509906   1511055   1510980  
  8720.000000   1509792   1507883   1505833   1504197   1503410  
  8710.000000   1503670   1505001   1507267   1510264   1513739  
  8700.000000   1517419   1521037   1524375   1527313   1529873  
  8690.000000   1532213   1534604   1537291   1540424   1543928  
  8680.000000   1547548   1550902   1553644   1555593   1556800  
  8670.000000   1557534   1558162   1559044   1560393   1562249  
  8660.000000   1564476   1566858   1569173   1571280   1573116  
  8650.000000   1574706   1576099   1577376   1578610   1579893  
  8640.000000   1581318   1582965   1584877   1587014   1589258  
  8630.000000   1591418   1593275   1594653   1595467   1595772  
  8620.000000   1595758   1595698   1595896   1596589   1597905  
  8610.000000   1599809   1602105   1604492   1606640   1608302  
  8600.000000   1609398   1610061   1610609   1611446   1612914  
  8590.000000   1615170   1618113   1621396   1624549   1627131  
  8580.000000   1628906   1629891   1630344   1630638   1631114  
  8570.000000   1631969   1633189   1634622   1636070   1637422  
  8560.000000   1638700   1640060   1641688   1643712   1646091  
  8550.000000   1648636   1651048   1653040   1654434   1655215  
  8540.000000   1655542   1655658   1655823   1656206   1656862  
  8530.000000   1657727   1658672   1659555   1660283   1660842  
  8520.000000   1661298   1661783   1662451   1663456   1664896  
  8510.000000   1666807   1669134   1671764   1674540   1677300  
  8500.000000   1679911   1682283   1684380   1686190   1687712  
  8490.000000   1688929   1689829   1690399   1690663   1690684  
  8480.000000   1690575   1690480   1690531   1690843   1691479  
  8470.000000   1692473   1693801   1695416   1697230   1699139  
  8460.000000   1701021   1702749   1704224   1705389   1706262  
  8450.000000   1706905   1707416   1707888   1708387   1708948  
  8440.000000   1709579   1710308   1711199   1712358   1713885  
  8430.000000   1715826   1718123   1720590   1722944   1724875  
  8420.000000   1726150   1726684   1726584   1726107   1725599  
  8410.000000   1725393   1725727   1726694   1728229   1730170  
  8400.000000   1732289   1734379   1736252   1737806   1738994  
  8390.000000   1739848   1740430   1740826   1741110   1741326  
  8380.000000   1741476   1741523   1741418   1741134   1740684  
  8370.000000   1740134   1739574   1739103   1738773   1738587  
  8360.000000   1738483   1738386   1738240   1738045   1737864  
  8350.000000   1737798   1737942   1738344   1738975   1739732  
  8340.000000   1740470   1741049   1741388   1741472   1741365  
  8330.000000   1741170   1741000   1740940   1741018   1741208  
  8320.000000   1741439   1741626   1741698   1741622   1741415  
  8310.000000   1741139   1740870   1740680   1740591   1740578  
  8300.000000   1740575   1740520   1740392   1740243   1740189  
  8290.000000   1740369   1740874   1741698   1742698   1743630  
  8280.000000   1744223   1744288   1743794   1742893   1741867  
  8270.000000   1741029   1740610   1740671   1741073   1741551  
  8260.000000   1741800   1741620   1740958   1739942   1738797  
  8250.000000   1737782   1737083   1736771   1736777   1736935  
  8240.000000   1737045   1736916   1736422   1735502   1734169  
  8230.000000   1732508   1730655   1728797   1727128   1725829  
  8220.000000   1725011   1724703   1724826   1725229   1725707  
  8210.000000   1726076   1726195   1726004   1725507   1724743  
  8200.000000   1723757   1722574   1721201   1719638   1717897  
  8190.000000   1716031   1714129   1712327   1710757   1709540  
  8180.000000   1708718   1708266   1708063   1707921   1707619  
  8170.000000   1706940   1705733   1703931   1701595   1698885  
  8160.000000   1696037   1693313   1690940   1689092   1687840  
  8150.000000   1687193   1687074   1687376   1687946   1688613  
  8140.000000   1689189   1689470   1689277   1688460   1686966  
  8130.000000   1684825   1682185   1679252   1676280   1673499  
  8120.000000   1671100   1669206   1667852   1667023   1666624  
  8110.000000   1666541   1666626   1666746   1666782   1666656  
  8100.000000   1666340   1665827   1665145   1664295   1663275  
  8090.000000   1662052   1660614   1658983   1657250   1655568  
  8080.000000   1654116   1653046   1652419   1652189   1652196  
  8070.000000   1652238   1652118   1651720   1651028   1650113  
  8060.000000   1649090   1648065   1647095   1646176   1645267  
  8050.000000   1644315   1643298   1642224   1641123   1640033  
  8040.000000   1638974   1637953   1636968   1636029   1635162  
  8030.000000   1634399   1633755   1633202   1632669   1632053  
  8020.000000   1631266   1630266   1629092   1627840   1626641  
  8010.000000   1625588   1624711   1623962   1623245   1622473  
  8000.000000   1621616   1620726   1619919   1619330   1619046  
  7990.000000   1619067   1619298   1619575   1619727   1619624  
  7980.000000   1619225   1618561   1617728   1616828   1615940  
  7970.000000   1615105   1614326   1613589   1612887   1612221  
  7960.000000   1611611   1611072   1610612   1610210   1609833  
  7950.000000   1609429   1608953   1608372   1607689   1606935  
  7940.000000   1606187   1605545   1605120   1605005   1605249  
  7930.000000   1605833   1606668   1607612   1608504   1609207  
  7920.000000   1609648   1609825   1609806   1609686   1609554  
  7910.000000   1609455   1609384   1609299   1609154   1608929  
  7900.000000   1608640   1608343   1608094   1607930   1607840  
  7890.000000   1607772   1607643   1607381   1606952   1606374  
  7880.000000   1605717   1605075   1604542   1604178   1603996  
  7870.000000   1603968   1604028   1604107   1604136   1604079  
  7860.000000   1603926   1603696   1603424   1603150   1602899  
  7850.000000   1602674   1602451   1602184   1601826   1601340  
  7840.000000   1600729   1600028   1599309   1598650   1598109  
  7830.000000   1597710   1597425   1597202   1596986   1596759  
  7820.000000   1596549   1596441   1596531   1596900   1597556  
  7810.000000   1598421   1599329   1600066   1600431   1600284  
  7800.000000   1599598   1598447   1596995   1595430   1593919  
  7790.000000   1592574   1591429   1590478   1589692   1589074  
  7780.000000   1588647   1588472   1588581   1588970   1589547  
  7770.000000   1590149   1590572   1590620   1590173   1589205  
  7760.000000   1587807   1586142   1584403   1582767   1581351  
  7750.000000   1580220   1579381   1578822   1578515   1578425  
  7740.000000   1578493   1578633   1578717   1578604   1578173  
  7730.000000   1577362   1576202   1574808   1573367   1572067  
  7720.000000   1571061   1570411   1570087   1569985   1569962  
  7710.000000   1569892   1569687   1569327   1568850   1568338  
  7700.000000   1567890   1567591   1567492   1567578   1567778  
  7690.000000   1567961   1567978   1567701   1567081   1566174  
  7680.000000   1565146   1564229   1563642   1563519   1563846  
  7670.000000   1564468   1565130   1565571   1565611   1565209  
  7660.000000   1564471   1563593   1562787   1562187   1561823  
  7650.000000   1561610   1561419   1561129   1560693   1560145  
  7640.000000   1559585   1559127   1558859   1558818   1558990  
  7630.000000   1559329   1559788   1560316   1560869   1561385  
  7620.000000   1561792   1562010   1561992   1561744   1561357  
  7610.000000   1560978   1560783   1560892   1561336   1562019  
  7600.000000   1562764   1563363   1563664   1563614   1563291  
  7590.000000   1562866   1562554   1562538   1562918   1563686  
  7580.000000   1564751   1565972   1567217   1568390   1569462  
  7570.000000   1570454   1571426   1572436   1573531   1574706  
  7560.000000   1575927   1577113   1578186   1579070   1579742  
  7550.000000   1580225   1580607   1581001   1581530   1582273  
  7540.000000   1583259   1584450   1585768   1587123   1588451  
  7530.000000   1589737   1591021   1592372   1593868   1595553  
  7520.000000   1597429   1599436   1601488   1603474   1605311  
  7510.000000   1606938   1608354   1609591   1610721   1611829  
  7500.000000   1613004   1614315   1615807   1617483   1619324  
  7490.000000   1621283   1623311   1625357   1627392   1629399  
  7480.000000   1631391   1633389   1635435   1637566   1639831  
  7470.000000   1642251   1644835   1647546   1650323   1653067  
  7460.000000   1655693   1658137   1660402   1662549   1664700  
  7450.000000   1666980   1669488   1672248   1675213   1678265  
  7440.000000   1681275   1684138   1686818   1689346   1691805  
  7430.000000   1694286   1696865   1699573   1702402   1705321  
  7420.000000   1708301   1711322   1714374   1717448   1720517  
  7410.000000   1723544   1726488   1729323   1732051   1734700  
  7400.000000   1737315   1739926   1742538   1745118   1747621  
  7390.000000   1750009   1752285   1754497   1756727   1759060  
  7380.000000   1761556   1764229   1767043   1769942   1772880  
  7370.000000   1775840   1778840   1781909   1785062   1788281  
  7360.000000   1791505   1794649   1797630   1800394   1802933  
  7350.000000   1805284   1807508   1809675   1811847   1814069  
  7340.000000   1816368   1818763   1821257   1823839   1826471  
  7330.000000   1829095   1831634   1834025   1836226   1838249  
  7320.000000   1840147   1842014   1843941   1846011   1848255  
  7310.000000   1850672   1853209   1855803   1858368   1860830  
  7300.000000   1863120   1865186   1866985   1868502   1869745  
  7290.000000   1870755   1871591   1872325   1873022   1873735  
  7280.000000   1874492   1875311   1876190   1877133   1878133  
  7270.000000   1879189   1880294   1881439   1882614   1883806  
  7260.000000   1885009   1886213   1887422   1888634   1889866  
  7250.000000   1891133   1892472   1893912   1895487   1897190  
  7240.000000   1898993   1900811   1902566   1904173   1905621  
  7230.000000   1906945   1908267   1909720   1911436   1913472  
  7220.000000   1915832   1918444   1921244   1924177   1927259  
  7210.000000   1930536   1934081   1937906   1941972   1946135  
  7200.000000   1950245   1954143   1957787   1961211   1964572  
  7190.000000   1968036   1971774   1975851   1980259   1984891  
  7180.000000   1989628   1994354   1999027   2003646   2008276  
  7170.000000   2012969   2017791   2022762   2027904   2033196  
  7160.000000   2038626   2044146   2049720   2055289   2060839  
  7150.000000   2066376   2071979   2077754   2083838   2090303  
  7140.000000   2097159   2104284   2111503   2118599   2125441  
  7130.000000   2131976   2138292   2144526   2150866   2157429  
  7120.000000   2164293   2171435   2178823   2186407   2194190  
  7110.000000   2202184   2210417   2218865   2227473   2236133  
  7100.000000   2244763   2253302   2261789   2270296   2278937  
  7090.000000   2287762   2296773   2305876   2314965   2323935  
  7080.000000   2332772   2341526   2350326   2359287   2368487  
  7070.000000   2377907   2387457   2396997   2406413   2415637  
  7060.000000   2424680   2433606   2442508   2451471   2460553  
  7050.000000   2469781   2479153   2488647   2498214   2507789  
  7040.000000   2517281   2526596   2535651   2544415   2552908  
  7030.000000   2561220   2569460   2577745   2586143   2594671  
  7020.000000   2603277   2611894   2620434   2628844   2637079  
  7010.000000   2645124   2652952   2660550   2667895   2675004  
  7000.000000   2681914   2688715   2695498   2702357   2709327  
  6990.000000   2716404   2723505   2730545   2737415   2744066  
  6980.000000   2750465   2756644   2762633   2768490   2774239  
  6970.000000   2779907   2785478   2790940   2796242   2801348  
  6960.000000   2806196   2810770   2815060   2819122   2823018  
  6950.000000   2826852   2830683   2834554   2838436   2842283  
  6940.000000   2846015   2849588   2852973   2856195   2859279  
  6930.000000   2862266   2865173   2868021   2870820   2873610  
  6920.000000   2876431   2879337   2882338   2885407   2888452  
  6910.000000   2891358   2894009   2896347   2898375   2900171  
  6900.000000   2901842   2903493   2905184   2906938   2908737  
  6890.000000   2910570   2912431   2914348   2916340   2918421  
  6880.000000   2920558   2922697   2924767   2926723   2928549  
  6870.000000   2930269   2931919   2933519   2935060   2936507  
  6860.000000   2937818   2938979   2940016   2940995   2941988  
  6850.000000   2943052   2944195   2945396   2946611   2947828  
  6840.000000   2949064   2950378   2951820   2953409   2955092  
  6830.000000   2956766   2958303   2959606   2960644   2961461  
  6820.000000   2962144   2962783   2963423   2964062   2964655  
  6810.000000   2965172   2965611   2966033   2966510   2967111  
  6800.000000   2967839   2968641   2969406   2970041   2970483  
  6790.000000   2970756   2970927   2971091   2971301   2971560  
  6780.000000   2971805   2971957   2971948   2971766   2971447  
  6770.000000   2971063   2970675   2970322   2969998   2969688  
  6760.000000   2969367   2969042   2968730   2968456   2968218  
  6750.000000   2967989   2967706   2967310   2966758   2966049  
  6740.000000   2965209   2964286   2963313   2962308   2961271  
  6730.000000   2960212   2959157   2958165   2957301   2956614  
  6720.000000   2956101   2955708   2955331   2954865   2954232  
  6710.000000   2953417   2952455   2951419   2950381   2949392  
  6700.000000   2948470   2947620   2946842   2946146   2945540  
  6690.000000   2945020   2944543   2944032   2943379   2942496  
  6680.000000   2941330   2939895   2938258   2936514   2934749  
  6670.000000   2933017   2931324   2929655   2927987   2926322  
  6660.000000   2924674   2923083   2921569   2920143   2918782  
  6650.000000   2917463   2916158   2914860   2913565   2912270  
  6640.000000   2910953   2909574   2908084   2906454   2904686  
  6630.000000   2902826   2900940   2899095   2897320   2895598  
  6620.000000   2893871   2892072   2890157   2888130   2886038  
  6610.000000   2883957   2881951   2880057   2878267   2876547  
  6600.000000   2874855   2873166   2871472   2869777   2868080  
  6590.000000   2866361   2864590   2862740   2860806   2858821  
  6580.000000   2856851   2854969   2853235   2851665   2850236  
  6570.000000   2848889   2847560   2846198   2844782   2843309  
  6560.000000   2841792   2840241   2838660   2837055   2835441  
  6550.000000   2833850   2832326   2830909   2829618   2828437  
  6540.000000   2827318   2826195   2825009   2823723   2822331  
  6530.000000   2820854   2819328   2817787   2816267   2814796  
  6520.000000   2813411   2812148   2811038   2810087   2809271  
  6510.000000   2808526   2807768   2806913   2805913   2804771  
  6500.000000   2803545   2802321   2801194   2800229   2799446  
  6490.000000   2798820   2798294   2797800   2797280   2796692  
  6480.000000   2796017   2795253   2794413   2793523   2792616  
  6470.000000   2791729   2790891   2790115   2789386   2788667  
  6460.000000   2787910   2787073   2786139   2785126   2784080  
  6450.000000   2783060   2782118   2781279   2780540   2779871  
  6440.000000   2779238   2778612   2777978   2777339   2776704  
  6430.000000   2776082   2775478   2774889   2774310   2773738  
  6420.000000   2773173   2772617   2772072   2771536   2771013  
  6410.000000   2770499   2770000   2769517   2769049   2768586  
  6400.000000   2768116   2767624   2767111   2766595   2766117  
  6390.000000   2765726   2765462   2765340   2765335   2765390  
  6380.000000   2765432   2765396   2765248   2764992   2764663  
  6370.000000   2764308   2763965   2763654   2763367   2763090  
  6360.000000   2762803   2762499   2762175   2761835   2761470  
  6350.000000   2761069   2760611   2760086   2759493   2758855  
  6340.000000   2758200   2757561   2756953   2756380   2755828  
  6330.000000   2755283   2754729   2754164   2753580   2752972  
  6320.000000   2752314   2751585   2750755   2749820   2748790  
  6310.000000   2747701   2746586   2745476   2744366   2743240  
  6300.000000   2742059   2740808   2739485   2738123   2736753  
  6290.000000   2735404   2734064   2732699   2731241   2729641  
  6280.000000   2727868   2725941   2723903   2721817   2719725  
  6270.000000   2717648   2715569   2713464   2711304   2709090  
  6260.000000   2706833   2704569   2702319   2700101   2697907  
  6250.000000   2695732   2693565   2691417   2689301   2687234  
  6240.000000   2685216   2683228   2681232   2679186   2677059  
  6230.000000   2674843   2672547   2670194   2667808   2665401  
  6220.000000   2662975   2660531   2658074   2655626   2653212  
  6210.000000   2650863   2648592   2646396   2644256   2642149  
  6200.000000   2640056   2637976   2635915   2633888   2631897  
  6190.000000   2629928   2627960   2625964   2623925   2621845  
  6180.000000   2619742   2617635   2615539   2613453   2611360  
  6170.000000   2609241   2607081   2604882   2602664   2600454  
  6160.000000   2598275   2596141   2594052   2592000   2589977  
  6150.000000   2587982   2586023   2584108   2582244   2580427  
  6140.000000   2578652   2576904   2575179   2573478   2571809  
  6130.000000   2570171   2568564   2566968   2565366   2563739  
  6120.000000   2562090   2560429   2558789   2557197   2555678  
  6110.000000   2554234   2552859   2551538   2550261   2549027  
  6100.000000   2547848   2546733   2545687   2544700   2543752  
  6090.000000   2542817   2541881   2540937   2540004   2539103  
  6080.000000   2538259   2537482   2536778   2536130   2535532  
  6070.000000   2534971   2534448   2533965   2533533   2533150  
  6060.000000   2532817   2532523   2532265   2532034   2531833  
  6050.000000   2531663   2531535   2531453   2531431   2531473  
  6040.000000   2531592   2531787   2532063   2532406   2532808  
  6030.000000   2533251   2533734   2534256   2534840   2535507  
  6020.000000   2536284   2537173   2538169   2539235   2540333  
  6010.000000   2541419   2542467   2543461   2544413   2545333  
  6000.000000   2546250   2547177   2548139   2549146   2550216  
  5990.000000   2551351   2552555   2553811   2555101   2556396  
  5980.000000   2557685   2558966   2560274   2561648   2563146  
  5970.000000   2564802   2566637   2568630   2570755   2572964  
  5960.000000   2575230   2577529   2579867   2582244   2584674  
  5950.000000   2587151   2589672   2592221   2594798   2597395  
  5940.000000   2600023   2602681   2605371   2608080   2610795  
  5930.000000   2613500   2616192   2618877   2621568   2624279  
  5920.000000   2627014   2629761   2632497   2635192   2637822  
  5910.000000   2640369   2642828   2645205   2647510   2649758  
  5900.000000   2651969   2654171   2656394   2658675   2661036  
  5890.000000   2663484   2666000   2668548   2671078   2673553  
  5880.000000   2675950   2678272   2680537   2682769   2684979  
  5870.000000   2687161   2689299   2691372   2693371   2695304  
  5860.000000   2697198   2699084   2700989   2702928   2704907  
  5850.000000   2706929   2709008   2711167   2713442   2715859  
  5840.000000   2718429   2721128   2723910   2726715   2729492  
  5830.000000   2732211   2734877   2737521   2740182   2742893  
  5820.000000   2745663   2748479   2751302   2754086   2756780  
  5810.000000   2759349   2761755   2763987   2766028   2767894  
  5800.000000   2769590   2771159   2772623   2774033   2775395  
  5790.000000   2776730   2778009   2779214   2780286   2781191  
  5780.000000   2781866   2782277   2782378   2782159   2781617  
  5770.000000   2780796   2779752   2778578   2777358   2776175  
  5760.000000   2775076   2774086   2773201   2772416   2771723  
  5750.000000   2771129   2770644   2770279   2770030   2769875  
  5740.000000   2769785   2769728   2769689   2769661   2769662  
  5730.000000   2769699   2769783   2769898   2770031   2770154  
  5720.000000   2770269   2770385   2770538   2770763   2771094  
  5710.000000   2771536   2772081   2772698   2773359   2774039  
  5700.000000   2774730   2775431   2776146   2776877   2777620  
  5690.000000   2778368   2779114   2779862   2780609   2781361  
  5680.000000   2782103   2782820   2783480   2784059   2784528  
  5670.000000   2784880   2785104   2785201   2785157   2784963  
  5660.000000   2784602   2784079   2783410   2782644   2781833  
  5650.000000   2781042   2780302   2779634   2779020   2778439  
  5640.000000   2777858   2777264   2776646   2776008   2775348  
  5630.000000   2774662   2773940   2773176   2772376   2771559  
  5620.000000   2770756   2769993   2769285   2768626   2767996  
  5610.000000   2767368   2766723   2766059   2765384   2764717  
  5600.000000   2764062   2763411   2762739   2762018   2761226  
  5590.000000   2760362   2759440   2758491   2757538   2756599  
  5580.000000   2755668   2754735   2753780   2752793   2751766  
  5570.000000   2750702   2749596   2748441   2747224   2745936  
  5560.000000   2744577   2743162   2741714   2740262   2738823  
  5550.000000   2737408   2736009   2734620   2733240   2731876  
  5540.000000   2730545   2729263   2728033   2726844   2725669  
  5530.000000   2724480   2723257   2721996   2720712   2719428  
  5520.000000   2718166   2716937   2715741   2714570   2713413  
  5510.000000   2712264   2711121   2709979   2708831   2707664  
  5500.000000   2706461   2705218   2703938   2702649   2701378  
  5490.000000   2700154   2698978   2697832   2696675   2695464  
  5480.000000   2694163   2692762   2691264   2689693   2688066  
  5470.000000   2686397   2684679   2682910   2681083   2679204  
  5460.000000   2677283   2675335   2673360   2671356   2669306  
  5450.000000   2667204   2665048   2662860   2660664   2658488  
  5440.000000   2656343   2654224   2652116   2650003   2647886  
  5430.000000   2645778   2643710   2641700   2639760   2637876  
  5420.000000   2636039   2634235   2632493   2630847   2629366  
  5410.000000   2628087   2627036   2626176   2625467   2624840  
  5400.000000   2624273   2623746   2623299   2622958   2622772  
  5390.000000   2622740   2622872   2623139   2623547   2624093  
  5380.000000   2624820   2625739   2626884   2628225   2629749  
  5370.000000   2631390   2633135   2634941   2636840   2638826  
  5360.000000   2640963   2643247   2645744   2648455   2651462  
  5350.000000   2654783   2658515   2662664   2667297   2672369  
  5340.000000   2677908   2683846   2690228   2697014   2704279  
  5330.000000   2711982   2720180   2728793   2737854   2747288  
  5320.000000   2757178   2767512   2778448   2790011   2802360  
  5310.000000   2815470   2829431   2844148   2859670   2875901  
  5300.000000   2892920   2910682   2929315   2948813   2969313  
  5290.000000   2990785   3013304   3036753   3061098   3086152  
  5280.000000   3111850   3138061   3164827   3192157   3220193  
  5270.000000   3248977   3278555   3308804   3339547   3370520  
  5260.000000   3401502   3432353   3463035   3493613   3524138  
  5250.000000   3554644   3585009   3615079   3644559   3673278  
  5240.000000   3701033   3727864   3753773   3778958   3803465  
  5230.000000   3827443   3850804   3873546   3895458   3916492  
  5220.000000   3936479   3955491   3973497   3990698   4007134  
  5210.000000   4022997   4038239   4052911   4066827   4079950  
  5200.000000   4092096   4103317   4113563   4123006   4131661  
  5190.000000   4139684   4147023   4153743   4159737   4165058  
  5180.000000   4169643   4173603   4176921   4179704   4181896  
  5170.000000   4183545   4184560   4184987   4184786   4184065  
  5160.000000   4182839   4181224   4179209   4176852   4174093  
  5150.000000   4170969   4167438   4163567   4159352   4154864  
  5140.000000   4150083   4145044   4139709   4134110   4128239  
  5130.000000   4122162   4115906   4109539   4103069   4096520  
  5120.000000   4089867   4083120   4076267   4069348   4062384  
  5110.000000   4055425   4048483   4041577   4034687   4027807  
  5100.000000   4020912   4014005   4007078   4000143   3993193  
  5090.000000   3986231   3979241   3972223   3965164   3958073  
  5080.000000   3950941   3943776   3936562   3929294   3921955  
  5070.000000   3914547   3907068   3899540   3891971   3884380  
  5060.000000   3876760   3869111   3861413   3853663   3845853  
  5050.000000   3838000   3830110   3822201   3814271   3806317  
  5040.000000   3798323   3790281   3782188   3774054   3765905  
  5030.000000   3757769   3749679   3741658   3733726   3725891  
  5020.000000   3718164   3710548   3703056   3695684   3688447  
  5010.000000   3681331   3674348   3667480   3660746   3654137  
  5000.000000   3647688   3641399   3635315   3629436   3623810  
  4990.000000   3618433   3613354   3608565   3604112   3599977  
  4980.000000   3596193   3592727   3589609   3586806   3584361  
  4970.000000   3582259   3580559   3579245   3578367   3577882  
  4960.000000   3577811   3578089   3578736   3579701   3581027  
  4950.000000   3582692   3584754   3587190   3590042   3593260  
  4940.000000   3596866   3600801   3605086   3609672   3614592  
  4930.000000   3619807   3625352   3631191   3637361   3643832  
  4920.000000   3650640   3657756   3665207   3672952   3680996  
  4910.000000   3689287   3697825   3706569   3715531   3724689  
  4900.000000   3734060   3743621   3753371   3763273   3773306  
  4890.000000   3783430   3793623   3803856   3814111   3824366  
  4880.000000   3834600   3844793   3854919   3864958   3874878  
  4870.000000   3884662   3894268   3903676   3912845   3921768  
  4860.000000   3930421   3938826   3946983   3954931   3962675  
  4850.000000   3970250   3977647   3984892   3991968   3998900  
  4840.000000   4005673   4012310   4018790   4025129   4031299  
  4830.000000   4037314   4043154   4048842   4054368   4059755  
  4820.000000   4064985   4070061   4074950   4079646   4084120  
  4810.000000   4088383   4092433   4096306   4100016   4103608  
  4800.000000   4107093   4110508   4113853   4117149   4120382  
  4790.000000   4123559   4126654   4129663   4132557   4135341  
  4780.000000   4138004   4140569   4143041   4145449   4147793  
  4770.000000   4150086   4152305   4154448   4156481   4158402  
  4760.000000   4160181   4161822   4163299   4164619   4165755  
  4750.000000   4166715   4167476   4168053   4168431   4168629  
  4740.000000   4168636   4168473   4168128   4167625   4166954  
  4730.000000   4166139   4165165   4164047   4162763   4161317  
  4720.000000   4159686   4157879   4155891   4153749   4151473  
  4710.000000   4149105   4146674   4144220   4141760   4139320  
  4700.000000   4136898   4134502   4132116   4129735   4127342  
  4690.000000   4124936   4122510   4120071   4117622   4115170  
  4680.000000   4112711   4110230   4107709   4105121   4102452  
  4670.000000   4099695   4096870   4094007   4091156   4088360  
  4660.000000   4085663   4083084   4080644   4078340   4076181  
  4650.000000   4074168   4072318   4070640   4069150   4067841  
  4640.000000   4066708   4065721   4064855   4064072   4063353  
  4630.000000   4062670   4062021   4061392   4060787   4060199  
  4620.000000   4059627   4059059   4058486   4057888   4057249  
  4610.000000   4056548   4055775   4054925   4054010   4053058  
  4600.000000   4052105   4051192   4050351   4049603   4048946  
  4590.000000   4048368   4047840   4047338   4046833   4046310  
  4580.000000   4045750   4045146   4044479   4043739   4042910  
  4570.000000   4041989   4040976   4039884   4038729   4037530  
  4560.000000   4036296   4035032   4033727   4032374   4030955  
  4550.000000   4029468   4027908   4026285   4024610   4022897  
  4540.000000   4021164   4019423   4017694   4015985   4014312  
  4530.000000   4012675   4011089   4009544   4008059   4006627  
  4520.000000   4005287   4004043   4002957   4002039   4001364  
  4510.000000   4000937   4000837   4001065   4001704   4002756  
  4500.000000   4004310   4006365   4009011   4012239   4016140  
  4490.000000   4020703   4026018   4032063   4038903   4046475  
  4480.000000   4054792   4063742   4073295   4083328   4093821  
  4470.000000   4104680   4115920   4127482   4139388   4151581  
  4460.000000   4164059   4176750   4189632   4202630   4215721  
  4450.000000   4228849   4241999   4255141   4268270   4281377  
  4440.000000   4294461   4307527   4320566   4333588   4346566  
  4430.000000   4359513   4372382   4385183   4397847   4410371  
  4420.000000   4422655   4434673   4446298   4457501   4468152  
  4410.000000   4478235   4487633   4496340   4504242   4511328  
  4400.000000   4517484   4522712   4526932   4530196   4532499  
  4390.000000   4533960   4534645   4534714   4534259   4533436  
  4380.000000   4532330   4531072   4529738   4528440   4527257  
  4370.000000   4526293   4525625   4525335   4525483   4526107  
  4360.000000   4527234   4528853   4530955   4533492   4536426  
  4350.000000   4539700   4543277   4547120   4551220   4555575  
  4340.000000   4560193   4565063   4570140   4575320   4580438  
  4330.000000   4585274   4589581   4593132   4595760   4597412  
  4320.000000   4598149   4598160   4597694   4597050   4596469  
  4310.000000   4596152   4596176   4596568   4597251   4598156  
  4300.000000   4599167   4600213   4601209   4602111   4602864  
  4290.000000   4603444   4603826   4604016   4604035   4603929  
  4280.000000   4603747   4603553   4603381   4603275   4603235  
  4270.000000   4603277   4603372   4603507   4603618   4603645  
  4260.000000   4603474   4602999   4602096   4600685   4598719  
  4250.000000   4596233   4593307   4590089   4586729   4583386  
  4240.000000   4580163   4577138   4574309   4571658   4569119  
  4230.000000   4566637   4564150   4561616   4559005   4556300  
  4220.000000   4553502   4550609   4547648   4544638   4541630  
  4210.000000   4538661   4535797   4533074   4530552   4528255  
  4200.000000   4526224   4524461   4522988   4521781   4520842  
  4190.000000   4520121   4519609   4519247   4519042   4518953  
  4180.000000   4519025   4519245   4519691   4520370   4521375  
  4170.000000   4522724   4524520   4526783   4529613   4533012  
  4160.000000   4537047   4541672   4546904   4552653   4558916  
  4150.000000   4565601   4572730   4580245   4588209   4596593  
  4140.000000   4605479   4614844   4624759   4635188   4646180  
  4130.000000   4657677   4669706   4682196   4695168   4708560  
  4120.000000   4722403   4736655   4751359   4766488   4782079  
  4110.000000   4798096   4814562   4831423   4848679   4866263  
  4100.000000   4884154   4902283   4920627   4939139   4957815  
  4090.000000   4976642   4995633   5014792   5034126   5053638  
  4080.000000   5073315   5093158   5113141   5133261   5153463  
  4070.000000   5173715   5193912   5213990   5233817   5253346  
  4060.000000   5272474   5291207   5309477   5327319   5344661  
  4050.000000   5361545   5377889   5393756   5409067   5423896  
  4040.000000   5438132   5451808   5464750   5476949   5488215  
  4030.000000   5498572   5507875   5516188   5523406   5529579  
  4020.000000   5534564   5538418   5541083   5542666   5543118  
  4010.000000   5542645   5541364   5539363   5536433   5532707  
  4000.000000   5528577  
##END= 
