##TITLE= Sample 011 By ssteindl date Donnerstag, November 22 2018
##JCAMP-DX= 4.24
##DATA TYPE= INFRARED SPECTRUM
##ORIGIN= Exported PE Spectrum Data File
##OWNER= Sandra Steindl
##DATE= 18/11/22
##TIME= 12:48:31.00
##SPECTROMETER/DATA SYSTEM= PERKIN-ELMER Frontier FT-IR/NIR IR
##INSTRUMENT PARAMETERS=
  APODIZATION=stark
  DETECTOR=INGAAS
##RESOLUTION= 16.000000
##DELTAX= -2.000000
##XUNITS= 1/CM
##YUNITS= A
##XFACTOR= 1.00
##YFACTOR= 0.00000011920928955078
##FIRSTX= 10000.00
##LASTX= 4000.00
##NPOINTS= 3001
##FIRSTY= 0.230369
##MAXY= 0.644202
##MINY= 0.195514
##XYDATA= (X++(Y..Y))
 10000.000000   1932477   1928927   1925886   1923721   1922014  
  9990.000000   1919935   1917148   1913923   1910797   1908374  
  9980.000000   1907314   1908144   1911013   1915678   1921586  
  9970.000000   1927988   1934005   1938793   1941720   1942496  
  9960.000000   1941309   1938759   1935687   1932848   1930646  
  9950.000000   1928950   1927268   1924911   1921470   1916942  
  9940.000000   1911846   1906956   1902945   1900133   1898320  
  9930.000000   1897060   1895958   1895102   1895154   1897181  
  9920.000000   1902134   1910316   1921000   1932505   1942661  
  9910.000000   1949505   1951959   1950090   1945065   1938611  
  9900.000000   1932450   1927748   1924863   1923469   1922785  
  9890.000000   1922054   1920674   1918441   1915350   1911648  
  9880.000000   1907624   1903683   1900224   1897574   1895881  
  9870.000000   1894924   1894196   1892944   1890519   1886642  
  9860.000000   1881603   1876281   1871822   1869302   1869296  
  9850.000000   1871708   1875856   1880697   1885228   1888661  
  9840.000000   1890565   1890728   1889103   1885701   1880721  
  9830.000000   1874611   1868234   1862697   1859148   1858322  
  9820.000000   1860233   1864110   1868554   1872152   1873863  
  9810.000000   1873547   1871831   1869920   1869008   1869832  
  9800.000000   1872450   1876202   1880070   1882872   1883699  
  9790.000000   1881957   1877537   1870707   1862111   1852691  
  9780.000000   1843626   1836215   1831629   1830640   1833317  
  9770.000000   1838990   1846341   1853856   1860187   1864590  
  9760.000000   1866975   1867835   1867942   1867994   1868427  
  9750.000000   1869271   1870288   1871064   1871212   1870448  
  9740.000000   1868645   1865841   1862219   1858107   1853910  
  9730.000000   1850065   1846892   1844505   1842723   1841166  
  9720.000000   1839395   1837184   1834672   1832416   1831198  
  9710.000000   1831715   1834255   1838488   1843528   1848177  
  9700.000000   1851329   1852295   1851012   1848000   1844180  
  9690.000000   1840569   1838013   1837002   1837583   1839420  
  9680.000000   1841843   1844052   1845224   1844776   1842485  
  9670.000000   1838629   1833917   1829290   1825623   1823360  
  9660.000000   1822405   1822085   1821507   1819867   1816832  
  9650.000000   1812688   1808231   1804534   1802498   1802630  
  9640.000000   1804851   1808648   1813282   1818028   1822353  
  9630.000000   1825872   1828338   1829517   1829233   1827412  
  9620.000000   1824193   1819962   1815310   1810899   1807312  
  9610.000000   1804905   1803758   1803699   1804365   1805331  
  9600.000000   1806125   1806324   1805551   1803589   1800481  
  9590.000000   1796612   1792718   1789709   1788407   1789222  
  9580.000000   1791969   1795875   1799835   1802786   1804057  
  9570.000000   1803564   1801744   1799319   1796995   1795188  
  9560.000000   1793988   1793200   1792573   1791918   1791190  
  9550.000000   1790432   1789642   1788761   1787640   1786225  
  9540.000000   1784625   1783172   1782311   1782379   1783436  
  9530.000000   1785109   1786713   1787447   1786733   1784445  
  9520.000000   1780960   1777051   1773565   1771218   1770365  
  9510.000000   1771025   1772925   1775653   1778741   1781701  
  9500.000000   1784039   1785246   1784874   1782655   1778626  
  9490.000000   1773225   1767236   1761615   1757227   1754606  
  9480.000000   1753844   1754601   1756255   1758082   1759433  
  9470.000000   1759841   1759053   1757042   1753976   1750223  
  9460.000000   1746327   1742946   1740760   1740250   1741596  
  9450.000000   1744527   1748409   1752362   1755481   1757051  
  9440.000000   1756707   1754506   1750941   1746770   1742903  
  9430.000000   1740120   1738959   1739555   1741623   1744531  
  9420.000000   1747435   1749585   1750513   1750301   1749460  
  9410.000000   1748832   1749173   1750898   1753881   1757463  
  9400.000000   1760726   1762727   1762876   1760988   1757309  
  9390.000000   1752315   1746527   1740427   1734418   1728958  
  9380.000000   1724549   1721787   1721131   1722789   1726470  
  9370.000000   1731431   1736591   1740863   1743470   1744107  
  9360.000000   1742987   1740596   1737517   1734156   1730732  
  9350.000000   1727322   1724044   1721165   1719078   1718165  
  9340.000000   1718590   1720169   1722357   1724389   1725516  
  9330.000000   1725227   1723428   1720390   1716669   1712880  
  9320.000000   1709608   1707318   1706349   1706937   1709137  
  9310.000000   1712827   1717591   1722810   1727703   1731554  
  9300.000000   1733869   1734512   1733716   1731884   1729457  
  9290.000000   1726661   1723563   1720075   1716150   1711890  
  9280.000000   1707576   1703671   1700614   1698767   1698204  
  9270.000000   1698818   1700313   1702396   1704791   1707264  
  9260.000000   1709577   1711415   1712468   1712435   1711227  
  9250.000000   1708953   1705994   1702834   1699956   1697671  
  9240.000000   1696067   1695052   1694440   1694113   1694037  
  9230.000000   1694304   1694985   1696066   1697358   1698546  
  9220.000000   1699285   1699317   1698572   1697165   1695378  
  9210.000000   1693512   1691841   1690519   1689614   1689090  
  9200.000000   1688850   1688760   1688671   1688444   1687963  
  9190.000000   1687213   1686295   1685469   1685060   1685351  
  9180.000000   1686462   1688277   1690487   1692630   1694247  
  9170.000000   1694994   1694765   1693675   1691997   1690074  
  9160.000000   1688245   1686809   1685988   1685919   1686618  
  9150.000000   1687996   1689819   1691755   1693396   1694408  
  9140.000000   1694606   1694026   1692876   1691476   1690150  
  9130.000000   1689115   1688444   1688066   1687853   1687660  
  9120.000000   1687365   1686872   1686095   1684976   1683488  
  9110.000000   1681691   1679754   1677964   1676654   1676084  
  9100.000000   1676341   1677257   1678476   1679547   1680086  
  9090.000000   1679910   1679071   1677835   1676546   1675524  
  9080.000000   1674978   1674957   1675415   1676207   1677186  
  9070.000000   1678147   1678847   1679015   1678392   1676852  
  9060.000000   1674452   1671566   1668812   1666928   1666516  
  9050.000000   1667865   1670824   1674781   1678799   1681879  
  9040.000000   1683256   1682557   1679865   1675677   1670781  
  9030.000000   1666037   1662165   1659639   1658644   1659065  
  9020.000000   1660527   1662511   1664490   1666010   1666746  
  9010.000000   1666547   1665457   1663658   1661422   1659067  
  9000.000000   1656943   1655379   1654634   1654891   1656206  
  8990.000000   1658493   1661448   1664645   1667589   1669821  
  8980.000000   1670983   1670883   1669541   1667108   1663839  
  8970.000000   1659993   1655874   1651757   1647925   1644638  
  8960.000000   1642150   1640626   1640088   1640399   1641273  
  8950.000000   1642382   1643409   1644187   1644732   1645250  
  8940.000000   1646057   1647442   1649589   1652463   1655847  
  8930.000000   1659340   1662484   1664830   1666064   1666047  
  8920.000000   1664835   1662679   1659965   1657169   1654750  
  8910.000000   1653068   1652316   1652473   1653321   1654483  
  8900.000000   1655510   1655994   1655669   1654487   1652634  
  8890.000000   1650500   1648613   1647495   1647534   1648875  
  8880.000000   1651387   1654701   1658319   1661737   1664575  
  8870.000000   1666647   1667983   1668740   1669124   1669287  
  8860.000000   1669307   1669187   1668913   1668508   1668050  
  8850.000000   1667695   1667573   1667789   1668318   1669072  
  8840.000000   1669884   1670590   1671048   1671154   1670857  
  8830.000000   1670104   1668879   1667173   1665052   1662661  
  8820.000000   1660231   1658058   1656423   1655574   1655639  
  8810.000000   1656654   1658532   1661111   1664156   1667364  
  8800.000000   1670385   1672805   1674275   1674521   1673520  
  8790.000000   1671446   1668734   1665908   1663503   1661899  
  8780.000000   1661257   1661555   1662634   1664357   1666596  
  8770.000000   1669322   1672480   1675977   1679582   1682954  
  8760.000000   1685717   1687538   1688271   1687930   1686726  
  8750.000000   1684919   1682813   1680639   1678589   1676812  
  8740.000000   1675436   1674594   1674362   1674770   1675731  
  8730.000000   1677112   1678748   1680532   1682431   1684472  
  8720.000000   1686701   1689079   1691488   1693679   1695415  
  8710.000000   1696499   1696919   1696809   1696443   1696123  
  8700.000000   1696093   1696507   1697411   1698818   1700713  
  8690.000000   1703106   1705958   1709157   1712470   1715562  
  8680.000000   1718094   1719800   1720616   1720651   1720194  
  8670.000000   1719550   1718978   1718608   1718473   1718598  
  8660.000000   1719047   1719996   1721636   1724135   1727473  
  8650.000000   1731438   1735587   1739428   1742524   1744652  
  8640.000000   1745818   1746221   1746162   1745899   1745592  
  8630.000000   1745259   1744845   1744263   1743458   1742426  
  8620.000000   1741203   1739859   1738474   1737175   1736127  
  8610.000000   1735549   1735644   1736543   1738241   1740561  
  8600.000000   1743189   1745748   1747943   1749623   1750847  
  8590.000000   1751799   1752726   1753800   1755079   1756480  
  8580.000000   1757854   1759051   1760005   1760754   1761429  
  8570.000000   1762188   1763153   1764367   1765777   1767251  
  8560.000000   1768609   1769681   1770347   1770594   1770529  
  8550.000000   1770385   1770471   1771099   1772472   1774610  
  8540.000000   1777308   1780170   1782712   1784519   1785377  
  8530.000000   1785343   1784708   1783912   1783387   1783436  
  8520.000000   1784150   1785426   1787027   1788686   1790165  
  8510.000000   1791314   1792067   1792439   1792501   1792362  
  8500.000000   1792182   1792111   1792279   1792715   1793350  
  8490.000000   1794017   1794517   1794721   1794656   1794552  
  8480.000000   1794785   1795745   1797678   1800550   1804044  
  8470.000000   1807610   1810661   1812739   1813686   1813663  
  8460.000000   1813084   1812485   1812359   1813048   1814660  
  8450.000000   1817115   1820178   1823533   1826801   1829613  
  8440.000000   1831648   1832702   1832725   1831869   1830477  
  8430.000000   1828989   1827830   1827260   1827317   1827807  
  8420.000000   1828395   1828763   1828733   1828369   1827912  
  8410.000000   1827726   1828104   1829191   1830894   1832959  
  8400.000000   1835051   1836878   1838271   1839196   1839736  
  8390.000000   1839997   1840060   1839929   1839561   1838897  
  8380.000000   1837928   1836708   1835369   1834085   1833028  
  8370.000000   1832338   1832084   1832282   1832890   1833846  
  8360.000000   1835069   1836469   1837948   1839399   1840715  
  8350.000000   1841799   1842589   1843065   1843266   1843285  
  8340.000000   1843257   1843322   1843588   1844109   1844868  
  8330.000000   1845780   1846696   1847443   1847849   1847803  
  8320.000000   1847255   1846246   1844884   1843353   1841862  
  8310.000000   1840626   1839800   1839458   1839568   1840001  
  8300.000000   1840537   1840933   1840974   1840555   1839701  
  8290.000000   1838568   1837390   1836401   1835773   1835537  
  8280.000000   1835595   1835724   1835686   1835282   1834439  
  8270.000000   1833207   1831749   1830289   1829044   1828183  
  8260.000000   1827777   1827830   1828274   1829021   1829967  
  8250.000000   1831021   1832100   1833114   1833972   1834543  
  8240.000000   1834701   1834308   1833276   1831575   1829275  
  8230.000000   1826555   1823699   1821072   1819026   1817855  
  8220.000000   1817668   1818403   1819784   1821424   1822872  
  8210.000000   1823760   1823865   1823161   1821798   1820033  
  8200.000000   1818147   1816361   1814810   1813511   1812412  
  8190.000000   1811411   1810411   1809339   1808149   1806825  
  8180.000000   1805365   1803791   1802144   1800493   1798933  
  8170.000000   1797566   1796486   1795740   1795316   1795141  
  8160.000000   1795091   1795037   1794862   1794511   1793970  
  8150.000000   1793284   1792512   1791717   1790936   1790168  
  8140.000000   1789383   1788512   1787480   1786195   1784582  
  8130.000000   1782592   1780219   1777524   1774640   1771774  
  8120.000000   1769169   1767072   1765657   1764992   1764989  
  8110.000000   1765439   1766045   1766513   1766621   1766266  
  8100.000000   1765487   1764408   1763207   1762016   1760904  
  8090.000000   1759842   1758753   1757546   1756177   1754672  
  8080.000000   1753113   1751618   1750288   1749183   1748300  
  8070.000000   1747595   1747000   1746447   1745894   1745313  
  8060.000000   1744697   1744037   1743334   1742592   1741838  
  8050.000000   1741117   1740487   1739999   1739668   1739471  
  8040.000000   1739341   1739198   1738976   1738650   1738246  
  8030.000000   1737814   1737397   1736990   1736526   1735889  
  8020.000000   1734963   1733685   1732091   1730321   1728586  
  8010.000000   1727095   1725985   1725273   1724845   1724511  
  8000.000000   1724075   1723416   1722529   1721523   1720576  
  7990.000000   1719850   1719438   1719311   1719345   1719355  
  7980.000000   1719183   1718738   1718039   1717191   1716346  
  7970.000000   1715645   1715167   1714923   1714854   1714875  
  7960.000000   1714903   1714885   1714802   1714654   1714444  
  7950.000000   1714157   1713756   1713198   1712448   1711505  
  7940.000000   1710416   1709264   1708162   1707214   1706493  
  7930.000000   1706016   1705741   1705583   1705439   1705224  
  7920.000000   1704900   1704495   1704097   1703823   1703779  
  7910.000000   1704015   1704499   1705113   1705693   1706067  
  7900.000000   1706127   1705847   1705300   1704614   1703927  
  7890.000000   1703331   1702845   1702429   1702017   1701567  
  7880.000000   1701097   1700688   1700446   1700459   1700733  
  7870.000000   1701189   1701667   1701999   1702068   1701859  
  7860.000000   1701472   1701069   1700813   1700782   1700936  
  7850.000000   1701116   1701112   1700743   1699936   1698766  
  7840.000000   1697431   1696203   1695327   1694957   1695102  
  7830.000000   1695644   1696366   1697028   1697426   1697434  
  7820.000000   1697029   1696278   1695313   1694299   1693393  
  7810.000000   1692717   1692331   1692226   1692323   1692505  
  7800.000000   1692634   1692602   1692344   1691864   1691213  
  7790.000000   1690464   1689678   1688872   1688014   1687037  
  7780.000000   1685875   1684504   1682960   1681354   1679834  
  7770.000000   1678558   1677628   1677078   1676844   1676799  
  7760.000000   1676781   1676639   1676277   1675654   1674804  
  7750.000000   1673792   1672703   1671606   1670553   1669570  
  7740.000000   1668676   1667891   1667243   1666771   1666500  
  7730.000000   1666438   1666549   1666760   1666962   1667041  
  7720.000000   1666901   1666495   1665836   1664992   1664067  
  7710.000000   1663165   1662361   1661677   1661086   1660523  
  7700.000000   1659922   1659236   1658464   1657649   1656863  
  7690.000000   1656176   1655628   1655214   1654889   1654592  
  7680.000000   1654280   1653955   1653668   1653508   1653560  
  7670.000000   1653865   1654395   1655042   1655658   1656079  
  7660.000000   1656197   1655972   1655457   1654760   1654017  
  7650.000000   1653342   1652807   1652433   1652207   1652105  
  7640.000000   1652108   1652209   1652400   1652657   1652924  
  7630.000000   1653124   1653175   1653023   1652670   1652175  
  7620.000000   1651654   1651225   1650988   1650976   1651161  
  7610.000000   1651459   1651766   1652004   1652139   1652194  
  7600.000000   1652226   1652299   1652457   1652701   1653000  
  7590.000000   1653292   1653526   1653662   1653701   1653668  
  7580.000000   1653610   1653573   1653598   1653708   1653918  
  7570.000000   1654227   1654636   1655126   1655677   1656248  
  7560.000000   1656802   1657299   1657729   1658108   1658496  
  7550.000000   1658975   1659643   1660567   1661776   1663233  
  7540.000000   1664857   1666528   1668137   1669591   1670851  
  7530.000000   1671917   1672832   1673650   1674428   1675204  
  7520.000000   1676012   1676875   1677822   1678882   1680079  
  7510.000000   1681416   1682870   1684386   1685890   1687301  
  7500.000000   1688569   1689675   1690661   1691600   1692592  
  7490.000000   1693725   1695064   1696630   1698407   1700337  
  7480.000000   1702356   1704390   1706388   1708314   1710163  
  7470.000000   1711934   1713653   1715332   1716993   1718642  
  7460.000000   1720285   1721933   1723609   1725352   1727217  
  7450.000000   1729258   1731513   1733984   1736636   1739376  
  7440.000000   1742093   1744660   1746990   1749029   1750793  
  7430.000000   1752341   1753788   1755266   1756913   1758846  
  7420.000000   1761147   1763855   1766947   1770346   1773913  
  7410.000000   1777481   1780873   1783933   1786562   1788723  
  7400.000000   1790460   1791868   1793085   1794243   1795472  
  7390.000000   1796870   1798500   1800394   1802547   1804936  
  7380.000000   1807503   1810183   1812898   1815590   1818225  
  7370.000000   1820798   1823330   1825844   1828361   1830874  
  7360.000000   1833363   1835797   1838162   1840470   1842760  
  7350.000000   1845094   1847521   1850064   1852689   1855326  
  7340.000000   1857874   1860252   1862407   1864345   1866113  
  7330.000000   1867788   1869441   1871121   1872833   1874549  
  7320.000000   1876212   1877767   1879174   1880435   1881587  
  7310.000000   1882710   1883891   1885220   1886742   1888463  
  7300.000000   1890327   1892243   1894103   1895810   1897309  
  7290.000000   1898596   1899707   1900715   1901689   1902687  
  7280.000000   1903733   1904830   1905960   1907106   1908248  
  7270.000000   1909374   1910468   1911513   1912492   1913385  
  7260.000000   1914192   1914919   1915596   1916250   1916914  
  7250.000000   1917595   1918306   1919044   1919838   1920732  
  7240.000000   1921810   1923151   1924826   1926846   1929179  
  7230.000000   1931725   1934381   1937034   1939637   1942171  
  7220.000000   1944682   1947212   1949818   1952513   1955311  
  7210.000000   1958189   1961154   1964201   1967359   1970634  
  7200.000000   1974038   1977535   1981089   1984636   1988153  
  7190.000000   1991632   1995124   1998691   2002417   2006346  
  7180.000000   2010502   2014846   2019329   2023880   2028469  
  7170.000000   2033073   2037728   2042453   2047294   2052241  
  7160.000000   2057285   2062368   2067458   2072522   2077589  
  7150.000000   2082713   2088003   2093558   2099475   2105780  
  7140.000000   2112451   2119376   2126433   2133470   2140403  
  7130.000000   2147174   2153816   2160374   2166947   2173597  
  7120.000000   2180400   2187378   2194559   2201936   2209519  
  7110.000000   2217288   2225233   2233310   2241483   2249691  
  7100.000000   2257907   2266110   2274324   2282571   2290896  
  7090.000000   2299299   2307774   2316273   2324761   2333206  
  7080.000000   2341623   2350048   2358547   2367170   2375947  
  7070.000000   2384864   2393878   2402922   2411935   2420862  
  7060.000000   2429670   2438335   2446851   2455222   2463474  
  7050.000000   2471662   2479862   2488157   2496609   2505234  
  7040.000000   2513989   2522782   2531495   2540030   2548328  
  7030.000000   2556402   2564302   2572118   2579919   2587757  
  7020.000000   2595635   2603536   2611417   2619243   2626966  
  7010.000000   2634549   2641932   2649073   2655926   2662492  
  7000.000000   2668801   2674945   2681015   2687120   2693305  
  6990.000000   2699586   2705901   2712181   2718330   2724296  
  6980.000000   2730032   2735550   2740854   2745985   2750957  
  6970.000000   2755805   2760540   2765183   2769725   2774160  
  6960.000000   2778452   2782584   2786529   2790313   2793961  
  6950.000000   2797540   2801079   2804607   2808088   2811484  
  6940.000000   2814736   2817833   2820790   2823671   2826531  
  6930.000000   2829414   2832293   2835114   2837783   2840241  
  6920.000000   2842467   2844518   2846483   2848468   2850527  
  6910.000000   2852669   2854834   2856947   2858929   2860745  
  6900.000000   2862396   2863922   2865364   2866766   2868150  
  6890.000000   2869537   2870939   2872378   2873863   2875393  
  6880.000000   2876936   2878447   2879870   2881180   2882383  
  6870.000000   2883533   2884696   2885930   2887248   2888609  
  6860.000000   2889940   2891160   2892219   2893122   2893917  
  6850.000000   2894677   2895463   2896309   2897207   2898136  
  6840.000000   2899071   2900018   2900994   2902031   2903134  
  6830.000000   2904287   2905434   2906516   2907479   2908307  
  6820.000000   2909009   2909618   2910162   2910649   2911063  
  6810.000000   2911383   2911592   2911707   2911765   2911824  
  6800.000000   2911928   2912102   2912327   2912576   2912801  
  6790.000000   2912978   2913095   2913166   2913204   2913230  
  6780.000000   2913252   2913281   2913320   2913374   2913435  
  6770.000000   2913481   2913456   2913298   2912938   2912343  
  6760.000000   2911523   2910549   2909524   2908560   2907735  
  6750.000000   2907072   2906532   2906038   2905499   2904854  
  6740.000000   2904075   2903183   2902219   2901242   2900295  
  6730.000000   2899416   2898618   2897905   2897260   2896657  
  6720.000000   2896048   2895379   2894593   2893654   2892554  
  6710.000000   2891322   2890006   2888671   2887362   2886111  
  6700.000000   2884919   2883780   2882681   2881622   2880599  
  6690.000000   2879615   2878646   2877659   2876599   2875417  
  6680.000000   2874073   2872562   2870898   2869123   2867279  
  6670.000000   2865408   2863540   2861699   2859902   2858164  
  6660.000000   2856489   2854869   2853272   2851657   2849975  
  6650.000000   2848199   2846324   2844384   2842429   2840518  
  6640.000000   2838684   2836939   2835258   2833604   2831932  
  6630.000000   2830214   2828434   2826589   2824679   2822700  
  6620.000000   2820645   2818511   2816305   2814054   2811796  
  6610.000000   2809580   2807450   2805433   2803534   2801738  
  6600.000000   2800004   2798287   2796535   2794703   2792764  
  6590.000000   2790714   2788578   2786403   2784251   2782170  
  6580.000000   2780188   2778295   2776453   2774614   2772739  
  6570.000000   2770822   2768893   2767009   2765226   2763585  
  6560.000000   2762092   2760720   2759424   2758155   2756877  
  6550.000000   2755564   2754200   2752760   2751224   2749570  
  6540.000000   2747804   2745964   2744122   2742366   2740771  
  6530.000000   2739371   2738145   2737026   2735935   2734806  
  6520.000000   2733618   2732391   2731173   2730006   2728906  
  6510.000000   2727851   2726798   2725701   2724546   2723343  
  6500.000000   2722132   2720951   2719820   2718731   2717655  
  6490.000000   2716567   2715457   2714344   2713263   2712247  
  6480.000000   2711302   2710401   2709496   2708535   2707491  
  6470.000000   2706371   2705217   2704079   2702996   2701978  
  6460.000000   2701002   2700030   2699032   2697999   2696949  
  6450.000000   2695918   2694943   2694042   2693211   2692424  
  6440.000000   2691646   2690844   2689997   2689093   2688136  
  6430.000000   2687134   2686110   2685093   2684123   2683240  
  6420.000000   2682472   2681829   2681296   2680838   2680416  
  6410.000000   2680000   2679579   2679155   2678735   2678314  
  6400.000000   2677872   2677371   2676781   2676087   2675314  
  6390.000000   2674512   2673741   2673049   2672447   2671910  
  6380.000000   2671390   2670846   2670257   2669646   2669062  
  6370.000000   2668559   2668169   2667885   2667659   2667424  
  6360.000000   2667112   2666680   2666114   2665429   2664647  
  6350.000000   2663798   2662901   2661981   2661060   2660172  
  6340.000000   2659342   2658586   2657894   2657237   2656561  
  6330.000000   2655827   2655003   2654096   2653130   2652149  
  6320.000000   2651185   2650263   2649375   2648506   2647620  
  6310.000000   2646694   2645693   2644593   2643363   2641983  
  6300.000000   2640435   2638731   2636896   2634986   2633050  
  6290.000000   2631137   2629263   2627429   2625611   2623796  
  6280.000000   2621966   2620132   2618297   2616468   2614628  
  6270.000000   2612753   2610807   2608770   2606638   2604434  
  6260.000000   2602182   2599907   2597606   2595263   2592849  
  6250.000000   2590353   2587786   2585193   2582625   2580128  
  6240.000000   2577707   2575336   2572956   2570513   2567975  
  6230.000000   2565352   2562684   2560025   2557417   2554872  
  6220.000000   2552370   2549879   2547368   2544830   2542281  
  6210.000000   2539754   2537279   2534869   2532513   2530185  
  6200.000000   2527856   2525502   2523119   2520708   2518280  
  6190.000000   2515841   2513394   2510944   2508504   2506093  
  6180.000000   2503734   2501441   2499212   2497024   2494844  
  6170.000000   2492642   2490404   2488140   2485879   2483653  
  6160.000000   2481485   2479370   2477287   2475196   2473071  
  6150.000000   2470897   2468688   2466470   2464276   2462131  
  6140.000000   2460051   2458038   2456100   2454238   2452465  
  6130.000000   2450781   2449186   2447655   2446159   2444662  
  6120.000000   2443146   2441607   2440072   2438573   2437155  
  6110.000000   2435840   2434641   2433539   2432507   2431502  
  6100.000000   2430492   2429442   2428336   2427171   2425964  
  6090.000000   2424747   2423570   2422480   2421526   2420729  
  6080.000000   2420092   2419581   2419160   2418775   2418396  
  6070.000000   2417998   2417588   2417168   2416763   2416382  
  6060.000000   2416047   2415770   2415579   2415491   2415531  
  6050.000000   2415701   2415998   2416392   2416859   2417367  
  6040.000000   2417911   2418491   2419130   2419841   2420642  
  6030.000000   2421518   2422456   2423423   2424404   2425383  
  6020.000000   2426367   2427363   2428386   2429445   2430551  
  6010.000000   2431707   2432925   2434209   2435565   2436979  
  6000.000000   2438428   2439866   2441254   2442549   2443744  
  5990.000000   2444846   2445898   2446947   2448045   2449225  
  5980.000000   2450511   2451904   2453408   2455017   2456730  
  5970.000000   2458539   2460435   2462393   2464392   2466404  
  5960.000000   2468419   2470428   2472445   2474472   2476523  
  5950.000000   2478586   2480660   2482727   2484788   2486842  
  5940.000000   2488907   2491000   2493138   2495334   2497598  
  5930.000000   2499934   2502353   2504860   2507458   2510132  
  5920.000000   2512848   2515552   2518186   2520694   2523046  
  5910.000000   2525238   2527304   2529284   2531231   2533185  
  5900.000000   2535170   2537201   2539285   2541431   2543648  
  5890.000000   2545947   2548330   2550790   2553304   2555845  
  5880.000000   2558382   2560883   2563327   2565692   2567967  
  5870.000000   2570141   2572219   2574214   2576160   2578097  
  5860.000000   2580072   2582114   2584235   2586420   2588644  
  5850.000000   2590879   2593114   2595358   2597646   2600016  
  5840.000000   2602502   2605118   2607857   2610692   2613593  
  5830.000000   2616529   2619478   2622422   2625345   2628228  
  5820.000000   2631045   2633773   2636393   2638901   2641298  
  5810.000000   2643599   2645807   2647935   2649973   2651932  
  5800.000000   2653805   2655616   2657361   2659062   2660690  
  5790.000000   2662231   2663620   2664821   2665770   2666444  
  5780.000000   2666806   2666853   2666561   2665930   2664952  
  5770.000000   2663655   2662082   2660321   2658471   2656650  
  5760.000000   2654946   2653430   2652125   2651032   2650124  
  5750.000000   2649372   2648745   2648216   2647765   2647370  
  5740.000000   2647021   2646707   2646438   2646218   2646069  
  5730.000000   2645987   2645971   2645992   2646032   2646062  
  5720.000000   2646085   2646110   2646172   2646296   2646508  
  5710.000000   2646804   2647176   2647601   2648069   2648575  
  5700.000000   2649130   2649745   2650424   2651157   2651924  
  5690.000000   2652704   2653482   2654260   2655043   2655845  
  5680.000000   2656661   2657476   2658250   2658947   2659522  
  5670.000000   2659956   2660230   2660344   2660286   2660055  
  5660.000000   2659640   2659053   2658317   2657488   2656626  
  5650.000000   2655801   2655048   2654379   2653765   2653164  
  5640.000000   2652529   2651833   2651072   2650265   2649439  
  5630.000000   2648623   2647835   2647086   2646382   2645729  
  5620.000000   2645131   2644589   2644094   2643627   2643161  
  5610.000000   2642671   2642143   2641579   2640989   2640393  
  5600.000000   2639796   2639195   2638570   2637901   2637172  
  5590.000000   2636382   2635541   2634666   2633764   2632837  
  5580.000000   2631869   2630852   2629777   2628657   2627510  
  5570.000000   2626361   2625221   2624091   2622955   2621797  
  5560.000000   2620601   2619374   2618126   2616880   2615645  
  5550.000000   2614423   2613199   2611960   2610701   2609430  
  5540.000000   2608170   2606946   2605771   2604640   2603531  
  5530.000000   2602413   2601265   2600083   2598883   2597694  
  5520.000000   2596543   2595443   2594388   2593357   2592323  
  5510.000000   2591261   2590154   2588996   2587782   2586511  
  5500.000000   2585182   2583809   2582412   2581026   2579685  
  5490.000000   2578416   2577215   2576057   2574889   2573662  
  5480.000000   2572330   2570882   2569323   2567684   2565989  
  5470.000000   2564260   2562497   2560697   2558849   2556955  
  5460.000000   2555013   2553032   2551001   2548910   2546734  
  5450.000000   2544464   2542099   2539671   2537224   2534814  
  5440.000000   2532479   2530238   2528089   2526015   2524003  
  5430.000000   2522044   2520145   2518300   2516508   2514743  
  5420.000000   2512994   2511244   2509521   2507863   2506343  
  5410.000000   2505010   2503905   2503005   2502282   2501669  
  5400.000000   2501137   2500653   2500240   2499907   2499695  
  5390.000000   2499606   2499662   2499851   2500202   2500724  
  5380.000000   2501470   2502453   2503699   2505166   2506826  
  5370.000000   2508598   2510459   2512359   2514332   2516378  
  5360.000000   2518574   2520930   2523531   2526389   2529598  
  5350.000000   2533178   2537226   2541738   2546772   2552263  
  5340.000000   2558224   2564570   2571341   2578492   2586111  
  5330.000000   2594172   2602758   2611812   2621387   2631411  
  5320.000000   2641963   2653017   2664709   2677043   2690166  
  5310.000000   2704045   2718773   2734257   2750553   2767568  
  5300.000000   2785383   2803955   2823422   2843784   2865194  
  5290.000000   2887632   2911175   2935704   2961167   2987363  
  5280.000000   3014212   3041578   3069508   3098017   3127255  
  5270.000000   3157262   3188063   3219511   3251388   3283410  
  5260.000000   3315337   3347038   3378489   3409780   3440971  
  5250.000000   3472113   3503071   3533691   3563662   3592814  
  5240.000000   3620937   3648077   3674228   3699589   3724187  
  5230.000000   3748171   3771443   3794015   3815685   3836434  
  5220.000000   3856102   3874779   3892431   3909259   3925292  
  5210.000000   3940719   3955489   3969661   3983049   3995626  
  5200.000000   4007206   4017846   4027493   4036327   4044368  
  5190.000000   4051783   4058529   4064674   4070104   4074863  
  5180.000000   4078871   4082229   4084911   4087032   4088548  
  5170.000000   4089521   4089872   4089650   4088799   4087408  
  5160.000000   4085457   4083041   4080126   4076773   4072937  
  5150.000000   4068684   4064005   4059003   4053699   4048179  
  5140.000000   4042427   4036474   4030269   4023827   4017126  
  5130.000000   4010220   4003131   3995927   3988620   3981251  
  5120.000000   3973805   3966304   3958741   3951150   3943537  
  5110.000000   3935932   3928330   3920736   3913132   3905523  
  5100.000000   3897906   3890303   3882723   3875182   3867663  
  5090.000000   3860147   3852596   3844988   3837300   3829543  
  5080.000000   3821727   3813878   3806006   3798124   3790222  
  5070.000000   3782301   3774346   3766365   3758353   3750318  
  5060.000000   3742254   3734162   3726033   3717869   3709670  
  5050.000000   3701450   3693222   3685000   3676787   3668586  
  5040.000000   3660391   3652200   3644018   3635854   3627728  
  5030.000000   3619651   3611641   3603698   3595830   3588034  
  5020.000000   3580324   3572705   3565207   3557839   3550632  
  5010.000000   3543584   3536713   3530002   3523466   3517085  
  5000.000000   3510880   3504837   3498992   3493334   3487909  
  4990.000000   3482714   3477803   3473173   3468876   3464895  
  4980.000000   3461262   3457939   3454945   3452232   3449831  
  4970.000000   3447710   3445924   3444457   3443366   3442629  
  4960.000000   3442290   3442311   3442728   3443502   3444675  
  4950.000000   3446215   3448165   3450487   3453214   3456295  
  4940.000000   3459757   3463546   3467693   3472152   3476958  
  4930.000000   3482066   3487507   3493240   3499293   3505631  
  4920.000000   3512283   3519218   3526459   3533967   3541759  
  4910.000000   3549796   3558092   3566619   3575391   3584382  
  4900.000000   3593589   3602974   3612516   3622172   3631920  
  4890.000000   3641731   3651592   3661480   3671371   3681232  
  4880.000000   3691022   3700706   3710249   3719638   3728855  
  4870.000000   3737904   3746768   3755444   3763899   3772132  
  4860.000000   3780118   3787877   3795408   3802749   3809899  
  4850.000000   3816889   3823704   3830363   3836850   3843197  
  4840.000000   3849400   3855499   3861486   3867384   3873160  
  4830.000000   3878817   3884313   3889649   3894796   3899758  
  4820.000000   3904507   3909046   3913343   3917406   3921221  
  4810.000000   3924822   3928228   3931493   3934641   3937711  
  4800.000000   3940700   3943621   3946451   3949196   3951840  
  4790.000000   3954402   3956875   3959281   3961612   3963884  
  4780.000000   3966086   3968236   3970327   3972373   3974363  
  4770.000000   3976298   3978148   3979904   3981532   3983032  
  4760.000000   3984388   3985618   3986718   3987707   3988568  
  4750.000000   3989303   3989878   3990285   3990487   3990487  
  4740.000000   3990261   3989827   3989179   3988347   3987334  
  4730.000000   3986174   3984872   3983454   3981913   3980262  
  4720.000000   3978480   3976572   3974521   3972340   3970032  
  4710.000000   3967626   3965138   3962602   3960028   3957438  
  4700.000000   3954832   3952225   3949619   3947032   3944476  
  4690.000000   3941972   3939530   3937156   3934842   3932569  
  4680.000000   3930307   3928017   3925665   3923216   3920655  
  4670.000000   3917971   3915184   3912318   3909422   3906540  
  4660.000000   3903732   3901038   3898503   3896148   3893997  
  4650.000000   3892050   3890313   3888777   3887437   3886271  
  4640.000000   3885266   3884388   3883617   3882918   3882274  
  4630.000000   3881658   3881062   3880472   3879889   3879306  
  4620.000000   3878724   3878133   3877524   3876879   3876176  
  4610.000000   3875391   3874510   3873528   3872458   3871333  
  4600.000000   3870193   3869087   3868048   3867096   3866222  
  4590.000000   3865401   3864589   3863749   3862846   3861866  
  4580.000000   3860805   3859676   3858492   3857272   3856024  
  4570.000000   3854761   3853487   3852210   3850924   3849628  
  4560.000000   3848305   3846942   3845518   3844020   3842442  
  4550.000000   3840786   3839061   3837275   3835437   3833541  
  4540.000000   3831593   3829590   3827556   3825515   3823523  
  4530.000000   3821621   3819868   3818284   3816903   3815709  
  4520.000000   3814718   3813898   3813278   3812837   3812626  
  4510.000000   3812636   3812939   3813531   3814502   3815853  
  4500.000000   3817687   3820005   3822904   3826371   3830491  
  4490.000000   3835236   3840685   3846808   3853681   3861264  
  4480.000000   3869611   3878654   3888411   3898790   3909793  
  4470.000000   3921324   3933391   3945912   3958893   3972257  
  4460.000000   3985994   4000020   4014307   4028770   4043373  
  4450.000000   4058044   4072749   4087441   4102095   4116691  
  4440.000000   4131211   4145658   4160009   4174272   4188408  
  4430.000000   4202424   4216256   4229910   4243303   4256436  
  4420.000000   4269206   4281608   4293520   4304933   4315717  
  4410.000000   4325861   4335233   4343823   4351502   4358269  
  4400.000000   4364018   4368779   4372502   4375272   4377106  
  4390.000000   4378139   4378441   4378170   4377421   4376349  
  4380.000000   4375056   4373687   4372345   4371162   4370242  
  4370.000000   4369695   4369612   4370060   4371096   4372733  
  4360.000000   4374984   4377814   4381197   4385066   4389372  
  4350.000000   4394040   4399014   4404242   4409690   4415345  
  4340.000000   4421198   4427238   4433416   4439626   4445690  
  4330.000000   4451359   4456342   4460359   4463195   4464772  
  4320.000000   4465156   4464587   4463397   4461993   4460713  
  4310.000000   4459845   4459505   4459731   4460415   4461444  
  4300.000000   4462649   4463923   4465155   4466295   4467296  
  4290.000000   4468140   4468816   4469325   4469683   4469923  
  4280.000000   4470083   4470217   4470363   4470574   4470866  
  4270.000000   4471276   4471789   4472395   4473015   4473558  
  4260.000000   4473865   4473781   4473138   4471833   4469818  
  4250.000000   4467153   4463963   4460449   4456811   4453252  
  4240.000000   4449902   4446850   4444092   4441601   4439291  
  4230.000000   4437088   4434907   4432684   4430368   4427926  
  4220.000000   4425350   4422639   4419828   4416948   4414069  
  4210.000000   4411242   4408545   4406020   4403726   4401681  
  4200.000000   4399912   4398404   4397157   4396130   4395315  
  4190.000000   4394660   4394174   4393821   4393639   4393616  
  4180.000000   4393812   4394218   4394893   4395821   4397064  
  4170.000000   4398616   4400563   4402924   4405805   4409222  
  4160.000000   4413260   4417893   4423158   4428986   4435394  
  4150.000000   4442300   4449731   4457616   4465992   4474798  
  4140.000000   4484086   4493816   4504060   4514802   4526121  
  4130.000000   4537989   4550448   4563422   4576902   4590789  
  4120.000000   4605070   4619682   4634656   4649981   4665718  
  4110.000000   4681863   4698450   4715431   4732786   4750429  
  4100.000000   4768311   4786350   4804513   4822761   4841094  
  4090.000000   4859512   4878031   4896659   4915398   4934251  
  4080.000000   4953203   4972262   4991406   5010645   5029932  
  4070.000000   5049246   5068494   5087624   5106519   5125146  
  4060.000000   5143415   5161343   5178867   5196022   5212731  
  4050.000000   5229028   5244819   5260153   5274939   5289234  
  4040.000000   5302923   5316029   5328387   5339995   5350688  
  4030.000000   5360502   5369320   5377216   5384101   5390032  
  4020.000000   5394873   5398685   5401425   5403198   5403956  
  4010.000000   5403891   5403112   5401668   5399303   5396113  
  4000.000000   5392504  
##END= 
