##TITLE= Sample 017 By ssteindl date Donnerstag, November 22 2018
##JCAMP-DX= 4.24
##DATA TYPE= INFRARED SPECTRUM
##ORIGIN= Exported PE Spectrum Data File
##OWNER= Sandra Steindl
##DATE= 18/11/22
##TIME= 10:42:45.00
##SPECTROMETER/DATA SYSTEM= PERKIN-ELMER Frontier FT-IR/NIR IR
##INSTRUMENT PARAMETERS=
  APODIZATION=stark
  DETECTOR=INGAAS
##RESOLUTION= 16.000000
##DELTAX= -2.000000
##XUNITS= 1/CM
##YUNITS= A
##XFACTOR= 1.00
##YFACTOR= 0.00000011920928955078
##FIRSTX= 10000.00
##LASTX= 4000.00
##NPOINTS= 3001
##FIRSTY= 0.223327
##MAXY= 0.672544
##MINY= 0.187547
##XYDATA= (X++(Y..Y))
 10000.000000   1873405   1865670   1859324   1856311   1857086  
  9990.000000   1860528   1865124   1869429   1872211   1872707  
  9980.000000   1871083   1868185   1865045   1862523   1861113  
  9970.000000   1860910   1861618   1862782   1863947   1864727  
  9960.000000   1864894   1864253   1862664   1859902   1855735  
  9950.000000   1849907   1842338   1833195   1823045   1812832  
  9940.000000   1803759   1797102   1793868   1794597   1799134  
  9930.000000   1806678   1815922   1825347   1833548   1839449  
  9920.000000   1842502   1842629   1840287   1836205   1831430  
  9910.000000   1826984   1823881   1822746   1823758   1826467  
  9900.000000   1829888   1832807   1834132   1833402   1830918  
  9890.000000   1827787   1825444   1825241   1827838   1833078  
  9880.000000   1839948   1847060   1853034   1857019   1858809  
  9870.000000   1858825   1857767   1856256   1854558   1852485  
  9860.000000   1849554   1845198   1839072   1831155   1821850  
  9850.000000   1811878   1802184   1793778   1787529   1784024  
  9840.000000   1783361   1785140   1788495   1792359   1795762  
  9830.000000   1798155   1799580   1800623   1802174   1805000  
  9820.000000   1809440   1815133   1821187   1826371   1829626  
  9810.000000   1830328   1828515   1824767   1819968   1815020  
  9800.000000   1810588   1807064   1804533   1802941   1802078  
  9790.000000   1801716   1801548   1801307   1800769   1799875  
  9780.000000   1798736   1797596   1796721   1796198   1795901  
  9770.000000   1795420   1794319   1792280   1789384   1786122  
  9760.000000   1783298   1781725   1781919   1783899   1787190  
  9750.000000   1791029   1794639   1797505   1799439   1800597  
  9740.000000   1801249   1801697   1802086   1802496   1802925  
  9730.000000   1803400   1803928   1804445   1804729   1804356  
  9720.000000   1802805   1799599   1794529   1787771   1779883  
  9710.000000   1771665   1763918   1757286   1752109   1748525  
  9700.000000   1746502   1745999   1746937   1749183   1752445  
  9690.000000   1756218   1759856   1762665   1764127   1763977  
  9680.000000   1762341   1759600   1756381   1753295   1750907  
  9670.000000   1749550   1749331   1750091   1751451   1752883  
  9660.000000   1753827   1753856   1752815   1750924   1748704  
  9650.000000   1746854   1745938   1746228   1747556   1749451  
  9640.000000   1751354   1752877   1753967   1754820   1755718  
  9630.000000   1756696   1757455   1757344   1755687   1752083  
  9620.000000   1746707   1740373   1734292   1729761   1727662  
  9610.000000   1728332   1731420   1736203   1741775   1747339  
  9600.000000   1752274   1756071   1758294   1758477   1756314  
  9590.000000   1751738   1745164   1737444   1729725   1723154  
  9580.000000   1718507   1716107   1715719   1716899   1719085  
  9570.000000   1721903   1725069   1728315   1731223   1733094  
  9560.000000   1733161   1730705   1725515   1717909   1708873  
  9550.000000   1699677   1691637   1685731   1682449   1681856  
  9540.000000   1683654   1687456   1692763   1699068   1705732  
  9530.000000   1712022   1717199   1720653   1722160   1721859  
  9520.000000   1720279   1718003   1715529   1713050   1710533  
  9510.000000   1707887   1705139   1702622   1700824   1700276  
  9500.000000   1701175   1703290   1705873   1707933   1708534  
  9490.000000   1707152   1703864   1699260   1694230   1689608  
  9480.000000   1685972   1683550   1682295   1682023   1682489  
  9470.000000   1683464   1684669   1685823   1686607   1686818  
  9460.000000   1686418   1685602   1684735   1684156   1684052  
  9450.000000   1684253   1684346   1683742   1681989   1678926  
  9440.000000   1674786   1670131   1665639   1661930   1659371  
  9430.000000   1658102   1658056   1659078   1660955   1663414  
  9420.000000   1666097   1668535   1670229   1670754   1669931  
  9410.000000   1667893   1665069   1662046   1659370   1657395  
  9400.000000   1656223   1655773   1655885   1656433   1657312  
  9390.000000   1658385   1659373   1659835   1659281   1657329  
  9380.000000   1653946   1649483   1644665   1640328   1637184  
  9370.000000   1635563   1635375   1636209   1637577   1639134  
  9360.000000   1640770   1642584   1644696   1647105   1649580  
  9350.000000   1651761   1653327   1654180   1654524   1654762  
  9340.000000   1655328   1656433   1657987   1659561   1660583  
  9330.000000   1660535   1659169   1656582   1653130   1649316  
  9320.000000   1645590   1642344   1639832   1638306   1637934  
  9310.000000   1638836   1640931   1643916   1647239   1650210  
  9300.000000   1652152   1652571   1651287   1648451   1644487  
  9290.000000   1639928   1635299   1631010   1627367   1624584  
  9280.000000   1622818   1622101   1622310   1623097   1623950  
  9270.000000   1624286   1623638   1621786   1618895   1615468  
  9260.000000   1612267   1610040   1609352   1610443   1613217  
  9250.000000   1617323   1622210   1627310   1632069   1636100  
  9240.000000   1639143   1641121   1642086   1642205   1641707  
  9230.000000   1640740   1639351   1637387   1634659   1630973  
  9220.000000   1626302   1620813   1614862   1608978   1603685  
  9210.000000   1599474   1596621   1595288   1595479   1597161  
  9200.000000   1600190   1604313   1609094   1613932   1618151  
  9190.000000   1621101   1622375   1621873   1619915   1617032  
  9180.000000   1613874   1610922   1608469   1606512   1604868  
  9170.000000   1603295   1601609   1599804   1597968   1596323  
  9160.000000   1595067   1594434   1594579   1595600   1597465  
  9150.000000   1600009   1602933   1605781   1608049   1609247  
  9140.000000   1609117   1607641   1605102   1601949   1598705  
  9130.000000   1595800   1593482   1591827   1590773   1590252  
  9120.000000   1590207   1590638   1591517   1592781   1594264  
  9110.000000   1595711   1596823   1597326   1597092   1596125  
  9100.000000   1594599   1592738   1590836   1589154   1587938  
  9090.000000   1587364   1587509   1588349   1589727   1591405  
  9080.000000   1593087   1594537   1595629   1596401   1597009  
  9070.000000   1597654   1598488   1599520   1600608   1601494  
  9060.000000   1601915   1601703   1600848   1599504   1597918  
  9050.000000   1596376   1595092   1594200   1593705   1593548  
  9040.000000   1593615   1593788   1593944   1593982   1593817  
  9030.000000   1593407   1592742   1591854   1590799   1589641  
  9020.000000   1588474   1587369   1586424   1585706   1585275  
  9010.000000   1585123   1585151   1585183   1584994   1584432  
  9000.000000   1583493   1582395   1581541   1581414   1582384  
  8990.000000   1584514   1587488   1590632   1593162   1594379  
  8980.000000   1593945   1591964   1588957   1585673   1582816  
  8970.000000   1580896   1580108   1580416   1581621   1583506  
  8960.000000   1585865   1588496   1591129   1593387   1594833  
  8950.000000   1595051   1593817   1591176   1587499   1583365  
  8940.000000   1579434   1576253   1574155   1573260   1573501  
  8930.000000   1574726   1576702   1579177   1581833   1584305  
  8920.000000   1586182   1587108   1586909   1585650   1583670  
  8910.000000   1581456   1579545   1578319   1577944   1578320  
  8900.000000   1579177   1580187   1581055   1581586   1581676  
  8890.000000   1581311   1580549   1579508   1578379   1577399  
  8880.000000   1576836   1576884   1577600   1578842   1580311  
  8870.000000   1581648   1582571   1582998   1583076   1583121  
  8860.000000   1583477   1584358   1585761   1587453   1589067  
  8850.000000   1590252   1590796   1590712   1590199   1589567  
  8840.000000   1589109   1589021   1589342   1589970   1590704  
  8830.000000   1591292   1591509   1591183   1590272   1588850  
  8820.000000   1587140   1585447   1584121   1583435   1583536  
  8810.000000   1584383   1585800   1587551   1589452   1591446  
  8800.000000   1593603   1596065   1598945   1602226   1605743  
  8790.000000   1609192   1612269   1614728   1616491   1617626  
  8780.000000   1618315   1618762   1619126   1619506   1619950  
  8770.000000   1620505   1621215   1622122   1623212   1624394  
  8760.000000   1625491   1626306   1626690   1626640   1626309  
  8750.000000   1625987   1625986   1626542   1627728   1629441  
  8740.000000   1631457   1633518   1635427   1637073   1638440  
  8730.000000   1639536   1640372   1640930   1641211   1641254  
  8720.000000   1641186   1641193   1641481   1642200   1643391  
  8710.000000   1644980   1646806   1648700   1650529   1652225  
  8700.000000   1653772   1655160   1656376   1657381   1658168  
  8690.000000   1658760   1659274   1659858   1660677   1661810  
  8680.000000   1663239   1664843   1666480   1668062   1669602  
  8670.000000   1671228   1673107   1675369   1678013   1680904  
  8660.000000   1683814   1686521   1688902   1690963   1692819  
  8650.000000   1694598   1696363   1698050   1699496   1700520  
  8640.000000   1701021   1701058   1700837   1700668   1700833  
  8630.000000   1701522   1702751   1704412   1706318   1708284  
  8620.000000   1710182   1711919   1713446   1714696   1715609  
  8610.000000   1716124   1716241   1716055   1715770   1715672  
  8600.000000   1716056   1717172   1719162   1722036   1725668  
  8590.000000   1729825   1734204   1738446   1742180   1745060  
  8580.000000   1746857   1747503   1747154   1746165   1745051  
  8570.000000   1744356   1744513   1745731   1747935   1750813  
  8560.000000   1753912   1756782   1759087   1760684   1761604  
  8550.000000   1762015   1762143   1762222   1762468   1763048  
  8540.000000   1764092   1765675   1767807   1770415   1773310  
  8530.000000   1776243   1778919   1781117   1782719   1783773  
  8520.000000   1784456   1785014   1785675   1786554   1787625  
  8510.000000   1788719   1789604   1790054   1789953   1789337  
  8500.000000   1788400   1787442   1786776   1786652   1787183  
  8490.000000   1788332   1789931   1791752   1793591   1795336  
  8480.000000   1796992   1798655   1800464   1802513   1804806  
  8470.000000   1807212   1809519   1811484   1812949   1813868  
  8460.000000   1814350   1814602   1814875   1815377   1816190  
  8450.000000   1817296   1818578   1819933   1821289   1822679  
  8440.000000   1824182   1825907   1827883   1830035   1832155  
  8430.000000   1833962   1835194   1835682   1835430   1834596  
  8420.000000   1833470   1832360   1831509   1831033   1830916  
  8410.000000   1831070   1831385   1831822   1832417   1833291  
  8400.000000   1834563   1836297   1838431   1840776   1843058  
  8390.000000   1844987   1846360   1847093   1847271   1847088  
  8380.000000   1846796   1846619   1846695   1847060   1847645  
  8370.000000   1848342   1849028   1849636   1850147   1850612  
  8360.000000   1851107   1851712   1852466   1853352   1854281  
  8350.000000   1855119   1855714   1855941   1855739   1855160  
  8340.000000   1854355   1853558   1853003   1852875   1853229  
  8330.000000   1853986   1854925   1855760   1856222   1856140  
  8320.000000   1855492   1854387   1853036   1851651   1850399  
  8310.000000   1849336   1848440   1847636   1846872   1846157  
  8300.000000   1845578   1845294   1845455   1846186   1847489  
  8290.000000   1849277   1851349   1853476   1855422   1857003  
  8280.000000   1858108   1858681   1858728   1858267   1857331  
  8270.000000   1855940   1854115   1851888   1849320   1846538  
  8260.000000   1843713   1841083   1838870   1837288   1836439  
  8250.000000   1836331   1836820   1837671   1838583   1839274  
  8240.000000   1839541   1839287   1838548   1837437   1836123  
  8230.000000   1834757   1833454   1832270   1831226   1830328  
  8220.000000   1829583   1829015   1828629   1828422   1828332  
  8210.000000   1828267   1828093   1827679   1826928   1825789  
  8200.000000   1824283   1822474   1820465   1818360   1816258  
  8190.000000   1814243   1812383   1810744   1809374   1808313  
  8180.000000   1807567   1807112   1806885   1806802   1806762  
  8170.000000   1806676   1806468   1806089   1805518   1804762  
  8160.000000   1803854   1802854   1801833   1800871   1800023  
  8150.000000   1799308   1798687   1798065   1797302   1796256  
  8140.000000   1794821   1792965   1790744   1788301   1785816  
  8130.000000   1783478   1781425   1779732   1778391   1777342  
  8120.000000   1776490   1775737   1775004   1774228   1773378  
  8110.000000   1772427   1771370   1770203   1768940   1767601  
  8100.000000   1766227   1764862   1763564   1762395   1761413  
  8090.000000   1760674   1760213   1760034   1760094   1760294  
  8080.000000   1760491   1760512   1760199   1759443   1758220  
  8070.000000   1756597   1754723   1752787   1750975   1749428  
  8060.000000   1748210   1747317   1746681   1746215   1745828  
  8050.000000   1745464   1745095   1744716   1744326   1743904  
  8040.000000   1743405   1742756   1741881   1740721   1739274  
  8030.000000   1737598   1735822   1734100   1732584   1731367  
  8020.000000   1730448   1729741   1729088   1728332   1727368  
  8010.000000   1726192   1724911   1723696   1722729   1722119  
  8000.000000   1721865   1721836   1721835   1721650   1721146  
  7990.000000   1720292   1719177   1717967   1716840   1715945  
  7980.000000   1715351   1715071   1715066   1715290   1715690  
  7970.000000   1716211   1716768   1717234   1717445   1717219  
  7960.000000   1716428   1715025   1713096   1710822   1708463  
  7950.000000   1706268   1704431   1703056   1702154   1701684  
  7940.000000   1701577   1701780   1702247   1702936   1703779  
  7930.000000   1704669   1705473   1706043   1706280   1706132  
  7920.000000   1705642   1704903   1704056   1703236   1702554  
  7910.000000   1702085   1701859   1701880   1702120   1702529  
  7900.000000   1703024   1703500   1703836   1703916   1703668  
  7890.000000   1703072   1702192   1701135   1700054   1699077  
  7880.000000   1698299   1697758   1697433   1697295   1697307  
  7870.000000   1697481   1697849   1698474   1699395   1700600  
  7860.000000   1701994   1703393   1704557   1705223   1705194  
  7850.000000   1704371   1702814   1700725   1698423   1696271  
  7840.000000   1694587   1693580   1693288   1693607   1694296  
  7830.000000   1695085   1695721   1696054   1696041   1695751  
  7820.000000   1695303   1694821   1694382   1693993   1693611  
  7810.000000   1693163   1692594   1691893   1691103   1690306  
  7800.000000   1689581   1688985   1688507   1688082   1687602  
  7790.000000   1686957   1686073   1684939   1683615   1682217  
  7780.000000   1680888   1679760   1678921   1678394   1678135  
  7770.000000   1678047   1678007   1677897   1677634   1677189  
  7760.000000   1676591   1675916   1675258   1674703   1674300  
  7750.000000   1674044   1673876   1673702   1673420   1672951  
  7740.000000   1672264   1671381   1670369   1669316   1668302  
  7730.000000   1667376   1666548   1665789   1665058   1664316  
  7720.000000   1663552   1662784   1662057   1661426   1660929  
  7710.000000   1660584   1660374   1660258   1660190   1660123  
  7700.000000   1660037   1659923   1659793   1659657   1659525  
  7690.000000   1659389   1659237   1659050   1658819   1658548  
  7680.000000   1658254   1657960   1657691   1657457   1657257  
  7670.000000   1657082   1656919   1656766   1656627   1656519  
  7660.000000   1656455   1656436   1656449   1656460   1656435  
  7650.000000   1656342   1656170   1655929   1655647   1655357  
  7640.000000   1655089   1654857   1654666   1654511   1654391  
  7630.000000   1654308   1654269   1654275   1654323   1654392  
  7620.000000   1654465   1654529   1654600   1654711   1654917  
  7610.000000   1655263   1655763   1656380   1657038   1657633  
  7600.000000   1658083   1658349   1658463   1658509   1658603  
  7590.000000   1658845   1659288   1659917   1660664   1661429  
  7580.000000   1662128   1662710   1663183   1663585   1663980  
  7570.000000   1664419   1664933   1665523   1666178   1666873  
  7560.000000   1667601   1668358   1669153   1670000   1670914  
  7550.000000   1671908   1672994   1674176   1675453   1676804  
  7540.000000   1678197   1679577   1680894   1682097   1683172  
  7530.000000   1684117   1684970   1685768   1686555   1687344  
  7520.000000   1688146   1688957   1689791   1690687   1691714  
  7510.000000   1692954   1694482   1696334   1698496   1700894  
  7500.000000   1703413   1705919   1708302   1710487   1712466  
  7490.000000   1714276   1716005   1717745   1719589   1721586  
  7480.000000   1723744   1726015   1728325   1730582   1732718  
  7470.000000   1734704   1736565   1738372   1740222   1742200  
  7460.000000   1744362   1746705   1749185   1751722   1754243  
  7450.000000   1756694   1759069   1761389   1763704   1766058  
  7440.000000   1768489   1771007   1773614   1776294   1779039  
  7430.000000   1781835   1784673   1787536   1790399   1793239  
  7420.000000   1796035   1798784   1801503   1804221   1806978  
  7410.000000   1809796   1812682   1815611   1818538   1821406  
  7400.000000   1824169   1826800   1829300   1831699   1834050  
  7390.000000   1836416   1838855   1841412   1844107   1846931  
  7380.000000   1849842   1852782   1855678   1858472   1861127  
  7370.000000   1863640   1866042   1868383   1870723   1873106  
  7360.000000   1875555   1878065   1880610   1883156   1885674  
  7350.000000   1888160   1890626   1893109   1895646   1898270  
  7340.000000   1900986   1903775   1906594   1909390   1912111  
  7330.000000   1914726   1917221   1919605   1921895   1924116  
  7320.000000   1926276   1928383   1930432   1932436   1934416  
  7310.000000   1936417   1938479   1940637   1942881   1945168  
  7300.000000   1947407   1949504   1951373   1952977   1954335  
  7290.000000   1955512   1956593   1957651   1958719   1959795  
  7280.000000   1960842   1961827   1962732   1963578   1964410  
  7270.000000   1965293   1966272   1967370   1968578   1969858  
  7260.000000   1971175   1972488   1973782   1975045   1976285  
  7250.000000   1977502   1978715   1979937   1981207   1982561  
  7240.000000   1984060   1985734   1987620   1989703   1991972  
  7230.000000   1994383   1996917   1999543   2002268   2005084  
  7220.000000   2008008   2011027   2014153   2017373   2020704  
  7210.000000   2024141   2027699   2031363   2035121   2038934  
  7200.000000   2042784   2046653   2050576   2054594   2058781  
  7190.000000   2063170   2067773   2072519   2077314   2082012  
  7180.000000   2086519   2090770   2094811   2098735   2102714  
  7170.000000   2106903   2111452   2116433   2121873   2127709  
  7160.000000   2133852   2140171   2146556   2152906   2159186  
  7150.000000   2165385   2171565   2177789   2184156   2190708  
  7140.000000   2197470   2204379   2211362   2218309   2225172  
  7130.000000   2231931   2238656   2245436   2252399   2259624  
  7120.000000   2267163   2274987   2283044   2291239   2299505  
  7110.000000   2307781   2316059   2324334   2332638   2340985  
  7100.000000   2349409   2357915   2366520   2375215   2383998  
  7090.000000   2392846   2401752   2410704   2419713   2428786  
  7080.000000   2437938   2447160   2456427   2465688   2474899  
  7070.000000   2484030   2493101   2502157   2511268   2520476  
  7060.000000   2529772   2539080   2548284   2557269   2565979  
  7050.000000   2574453   2582816   2591249   2599902   2608849  
  7040.000000   2618042   2627342   2636560   2645541   2654196  
  7030.000000   2662538   2670639   2678605   2686509   2694388  
  7020.000000   2702231   2710024   2717754   2725444   2733117  
  7010.000000   2740796   2748456   2756054   2763508   2770765  
  7000.000000   2777791   2784616   2791285   2797865   2804381  
  6990.000000   2810850   2817245   2823560   2829783   2835946  
  6980.000000   2842059   2848137   2854133   2859990   2865618  
  6970.000000   2870969   2876023   2880832   2885459   2889987  
  6960.000000   2894444   2898841   2903138   2907319   2911366  
  6950.000000   2915319   2919204   2923059   2926859   2930560  
  6940.000000   2934077   2937362   2940395   2943232   2945944  
  6930.000000   2948625   2951311   2954012   2956676   2959268  
  6920.000000   2961760   2964181   2966573   2968984   2971404  
  6910.000000   2973777   2975994   2977954   2979594   2980940  
  6900.000000   2982088   2983196   2984409   2985841   2987520  
  6890.000000   2989421   2991461   2993551   2995603   2997552  
  6880.000000   2999351   3000975   3002416   3003693   3004853  
  6870.000000   3005964   3007100   3008318   3009639   3011048  
  6860.000000   3012503   3013963   3015399   3016817   3018227  
  6850.000000   3019646   3021052   3022401   3023626   3024672  
  6840.000000   3025522   3026211   3026811   3027407   3028056  
  6830.000000   3028778   3029542   3030306   3031032   3031725  
  6820.000000   3032421   3033187   3034073   3035105   3036252  
  6810.000000   3037453   3038620   3039674   3040549   3041207  
  6800.000000   3041627   3041810   3041769   3041542   3041183  
  6790.000000   3040769   3040369   3040048   3039829   3039714  
  6780.000000   3039665   3039652   3039638   3039616   3039576  
  6770.000000   3039517   3039416   3039244   3038963   3038558  
  6760.000000   3038040   3037453   3036851   3036283   3035763  
  6750.000000   3035270   3034757   3034181   3033518   3032785  
  6740.000000   3032015   3031257   3030532   3029838   3029147  
  6730.000000   3028436   3027691   3026937   3026207   3025537  
  6720.000000   3024926   3024337   3023696   3022929   3021987  
  6710.000000   3020876   3019645   3018372   3017125   3015945  
  6700.000000   3014825   3013733   3012623   3011475   3010283  
  6690.000000   3009075   3007875   3006709   3005575   3004465  
  6680.000000   3003357   3002239   3001095   2999913   2998669  
  6670.000000   2997330   2995858   2994233   2992455   2990568  
  6660.000000   2988636   2986736   2984924   2983223   2981611  
  6650.000000   2980046   2978467   2976838   2975135   2973367  
  6640.000000   2971550   2969709   2967858   2966015   2964190  
  6630.000000   2962397   2960646   2958942   2957270   2955605  
  6620.000000   2953906   2952138   2950275   2948314   2946271  
  6610.000000   2944173   2942040   2939885   2937706   2935494  
  6600.000000   2933241   2930953   2928645   2926343   2924076  
  6590.000000   2921869   2919744   2917715   2915784   2913946  
  6580.000000   2912174   2910426   2908650   2906792   2904821  
  6570.000000   2902736   2900578   2898413   2896320   2894358  
  6560.000000   2892554   2890892   2889331   2887810   2886282  
  6550.000000   2884715   2883098   2881435   2879734   2878006  
  6540.000000   2876268   2874543   2872872   2871295   2869852  
  6530.000000   2868556   2867390   2866310   2865253   2864164  
  6520.000000   2863006   2861770   2860473   2859136   2857782  
  6510.000000   2856417   2855046   2853665   2852283   2850915  
  6500.000000   2849581   2848298   2847071   2845894   2844762  
  6490.000000   2843672   2842634   2841662   2840767   2839942  
  6480.000000   2839160   2838376   2837549   2836655   2835701  
  6470.000000   2834720   2833753   2832823   2831925   2831020  
  6460.000000   2830055   2828991   2827822   2826588   2825358  
  6450.000000   2824208   2823190   2822314   2821548   2820827  
  6440.000000   2820081   2819251   2818311   2817259   2816122  
  6430.000000   2814941   2813768   2812658   2811664   2810821  
  6420.000000   2810145   2809616   2809186   2808786   2808354  
  6410.000000   2807849   2807270   2806650   2806043   2805498  
  6400.000000   2805042   2804669   2804353   2804056   2803752  
  6390.000000   2803428   2803087   2802739   2802386   2802027  
  6380.000000   2801658   2801280   2800907   2800558   2800251  
  6370.000000   2799983   2799724   2799423   2799024   2798493  
  6360.000000   2797832   2797086   2796317   2795591   2794941  
  6350.000000   2794370   2793847   2793336   2792809   2792263  
  6340.000000   2791708   2791157   2790602   2790016   2789350  
  6330.000000   2788564   2787634   2786576   2785432   2784265  
  6320.000000   2783122   2782033   2780992   2779985   2778985  
  6310.000000   2777988   2776988   2775997   2775008   2774008  
  6300.000000   2772964   2771848   2770634   2769327   2767937  
  6290.000000   2766491   2764993   2763441   2761803   2760051  
  6280.000000   2758157   2756126   2753977   2751761   2749520  
  6270.000000   2747298   2745112   2742970   2740855   2738754  
  6260.000000   2736639   2734491   2732285   2730010   2727661  
  6250.000000   2725254   2722819   2720398   2718023   2715713  
  6240.000000   2713453   2711212   2708945   2706618   2704220  
  6230.000000   2701769   2699297   2696841   2694418   2692023  
  6220.000000   2689636   2687231   2684793   2682326   2679851  
  6210.000000   2677392   2674967   2672582   2670229   2667899  
  6200.000000   2665590   2663315   2661091   2658933   2656838  
  6190.000000   2654785   2652736   2650655   2648516   2646315  
  6180.000000   2644067   2641793   2639511   2637224   2634926  
  6170.000000   2632608   2630272   2627931   2625611   2623338  
  6160.000000   2621128   2618978   2616870   2614783   2612703  
  6150.000000   2610632   2608588   2606592   2604662   2602795  
  6140.000000   2600975   2599173   2597365   2595536   2593689  
  6130.000000   2591835   2589996   2588182   2586408   2584677  
  6120.000000   2583000   2581383   2579842   2578380   2577000  
  6110.000000   2575684   2574414   2573163   2571923   2570687  
  6100.000000   2569470   2568287   2567157   2566084   2565068  
  6090.000000   2564098   2563167   2562269   2561411   2560599  
  6080.000000   2559851   2559172   2558575   2558057   2557622  
  6070.000000   2557256   2556954   2556693   2556461   2556236  
  6060.000000   2556019   2555816   2555659   2555577   2555611  
  6050.000000   2555774   2556072   2556473   2556950   2557457  
  6040.000000   2557971   2558473   2558972   2559480   2560026  
  6030.000000   2560634   2561338   2562165   2563150   2564305  
  6020.000000   2565636   2567112   2568685   2570283   2571841  
  6010.000000   2573305   2574657   2575905   2577090   2578252  
  6000.000000   2579430   2580637   2581879   2583139   2584409  
  5990.000000   2585676   2586942   2588208   2589477   2590748  
  5980.000000   2592029   2593330   2594684   2596127   2597706  
  5970.000000   2599452   2601379   2603465   2605679   2607965  
  5960.000000   2610286   2612610   2614935   2617261   2619610  
  5950.000000   2621984   2624397   2626843   2629330   2631855  
  5940.000000   2634426   2637042   2639701   2642390   2645093  
  5930.000000   2647796   2650490   2653179   2655873   2658584  
  5920.000000   2661315   2664058   2666794   2669497   2672146  
  5910.000000   2674724   2677227   2679655   2682014   2684311  
  5900.000000   2686559   2688775   2690988   2693232   2695534  
  5890.000000   2697918   2700381   2702908   2705468   2708035  
  5880.000000   2710592   2713137   2715680   2718230   2720785  
  5870.000000   2723325   2725818   2728226   2730527   2732720  
  5860.000000   2734833   2736907   2738990   2741120   2743319  
  5850.000000   2745592   2747938   2750350   2752827   2755371  
  5840.000000   2757983   2760665   2763413   2766223   2769088  
  5830.000000   2772003   2774959   2777939   2780917   2783855  
  5820.000000   2786710   2789447   2792046   2794515   2796871  
  5810.000000   2799155   2801388   2803596   2805768   2807899  
  5800.000000   2809958   2811942   2813829   2815638   2817356  
  5790.000000   2818997   2820533   2821949   2823187   2824204  
  5780.000000   2824928   2825309   2825292   2824863   2824030  
  5770.000000   2822855   2821425   2819861   2818269   2816751  
  5760.000000   2815354   2814102   2812980   2811973   2811065  
  5750.000000   2810264   2809581   2809035   2808631   2808352  
  5740.000000   2808174   2808059   2807989   2807945   2807934  
  5730.000000   2807953   2808009   2808086   2808174   2808250  
  5720.000000   2808316   2808377   2808460   2808585   2808775  
  5710.000000   2809027   2809336   2809687   2810077   2810511  
  5700.000000   2811007   2811583   2812248   2812995   2813800  
  5690.000000   2814631   2815459   2816264   2817037   2817777  
  5680.000000   2818477   2819130   2819712   2820202   2820575  
  5670.000000   2820820   2820923   2820882   2820688   2820339  
  5660.000000   2819830   2819178   2818407   2817568   2816707  
  5650.000000   2815872   2815083   2814342   2813627   2812918  
  5640.000000   2812197   2811471   2810753   2810070   2809435  
  5630.000000   2808848   2808292   2807747   2807193   2806623  
  5620.000000   2806040   2805452   2804863   2804266   2803647  
  5610.000000   2802994   2802301   2801581   2800852   2800142  
  5600.000000   2799462   2798814   2798180   2797538   2796862  
  5590.000000   2796142   2795370   2794546   2793663   2792714  
  5580.000000   2791686   2790576   2789390   2788153   2786896  
  5570.000000   2785650   2784428   2783227   2782027   2780806  
  5560.000000   2779548   2778257   2776951   2775655   2774384  
  5550.000000   2773144   2771923   2770707   2769485   2768258  
  5540.000000   2767039   2765845   2764685   2763560   2762455  
  5530.000000   2761358   2760261   2759167   2758090   2757044  
  5520.000000   2756032   2755041   2754045   2753013   2751923  
  5510.000000   2750771   2749567   2748336   2747100   2745878  
  5500.000000   2744672   2743485   2742311   2741148   2739991  
  5490.000000   2738833   2737652   2736424   2735117   2733715  
  5480.000000   2732212   2730630   2728995   2727344   2725691  
  5470.000000   2724039   2722366   2720651   2718868   2717014  
  5460.000000   2715085   2713091   2711030   2708902   2706700  
  5450.000000   2704431   2702114   2699786   2697487   2695251  
  5440.000000   2693088   2690987   2688923   2686875   2684843  
  5430.000000   2682840   2680896   2679027   2677238   2675501  
  5420.000000   2673794   2672091   2670412   2668790   2667299  
  5410.000000   2665985   2664893   2664003   2663294   2662714  
  5400.000000   2662252   2661895   2661680   2661615   2661727  
  5390.000000   2661986   2662379   2662865   2663455   2664160  
  5380.000000   2665048   2666151   2667517   2669114   2670923  
  5370.000000   2672863   2674914   2677031   2679262   2681615  
  5360.000000   2684173   2686941   2689987   2693296   2696935  
  5350.000000   2700900   2705277   2710063   2715333   2721044  
  5340.000000   2727238   2733850   2740937   2748464   2756521  
  5330.000000   2765076   2774207   2783842   2794021   2804658  
  5320.000000   2815823   2827478   2839762   2852674   2866371  
  5310.000000   2880824   2896138   2912229   2929166   2946864  
  5300.000000   2965415   2984780   3005100   3026375   3048751  
  5290.000000   3072203   3096798   3122405   3148965   3176261  
  5280.000000   3204204   3232646   3261623   3291146   3321365  
  5270.000000   3352323   3384060   3416439   3449260   3482251  
  5260.000000   3515178   3547915   3580436   3612830   3645151  
  5250.000000   3677444   3709566   3741350   3772471   3802746  
  5240.000000   3831953   3860134   3887281   3913602   3939135  
  5230.000000   3964042   3988235   4011729   4034320   4055982  
  5220.000000   4076544   4096090   4114581   4132222   4149049  
  5210.000000   4165266   4180829   4195809   4210020   4223432  
  5200.000000   4235846   4247308   4257752   4267349   4276113  
  5190.000000   4284217   4291622   4298412   4304484   4309894  
  5180.000000   4314567   4318602   4321966   4324761   4326927  
  5170.000000   4328519   4329452   4329782   4329471   4328629  
  5160.000000   4327266   4325500   4323315   4320776   4317824  
  5150.000000   4314498   4310752   4306649   4302174   4297394  
  5140.000000   4292287   4286896   4281189   4275212   4268963  
  5130.000000   4262510   4255871   4249106   4242211   4235215  
  5120.000000   4228094   4220873   4213546   4206154   4198701  
  5110.000000   4191214   4183673   4176072   4168378   4160594  
  5100.000000   4152718   4144790   4136836   4128900   4120989  
  5090.000000   4113113   4105246   4097379   4089485   4081563  
  5080.000000   4073600   4065603   4057558   4049471   4041334  
  5070.000000   4033160   4024958   4016754   4008554   4000366  
  5060.000000   3992171   3983948   3975665   3967311   3958880  
  5050.000000   3950395   3941879   3933366   3924872   3916407  
  5040.000000   3907963   3899534   3891114   3882704   3874317  
  5030.000000   3865964   3857660   3849407   3841211   3833068  
  5020.000000   3824985   3816965   3809028   3801185   3793464  
  5010.000000   3785868   3778422   3771122   3763988   3757013  
  5000.000000   3750220   3743597   3737173   3730935   3724919  
  4990.000000   3719117   3713579   3708305   3703351   3698708  
  4980.000000   3694421   3690460   3686852   3683555   3680597  
  4970.000000   3677946   3675645   3673671   3672074   3670824  
  4960.000000   3669960   3669440   3669296   3669485   3670045  
  4950.000000   3670940   3672215   3673834   3675841   3678197  
  4940.000000   3680942   3684034   3687510   3691325   3695506  
  4930.000000   3699999   3704827   3709939   3715367   3721081  
  4920.000000   3727125   3733482   3740190   3747219   3754582  
  4910.000000   3762229   3770159   3778324   3786727   3795330  
  4900.000000   3804140   3813126   3822283   3831580   3841004  
  4890.000000   3850526   3860133   3869802   3879512   3889241  
  4880.000000   3898955   3908626   3918211   3927678   3936975  
  4870.000000   3946070   3954908   3963469   3971718   3979668  
  4860.000000   3987320   3994719   4001877   4008836   4015589  
  4850.000000   4022152   4028498   4034645   4040583   4046355  
  4840.000000   4051972   4057481   4062879   4068185   4073366  
  4830.000000   4078423   4083325   4088089   4092706   4097204  
  4820.000000   4101574   4105826   4109931   4113881   4117647  
  4810.000000   4121234   4124637   4127884   4130985   4133970  
  4800.000000   4136846   4139639   4142352   4145012   4147628  
  4790.000000   4150224   4152802   4155375   4157928   4160465  
  4780.000000   4162972   4165460   4167923   4170372   4172791  
  4770.000000   4175173   4177478   4179680   4181733   4183625  
  4760.000000   4185328   4186854   4188193   4189364   4190353  
  4750.000000   4191173   4191799   4192243   4192487   4192551  
  4740.000000   4192425   4192138   4191682   4191078   4190312  
  4730.000000   4189393   4188295   4187020   4185540   4183860  
  4720.000000   4181972   4179901   4177667   4175316   4172886  
  4710.000000   4170429   4167975   4165561   4163200   4160910  
  4700.000000   4158690   4156545   4154464   4152441   4150456  
  4690.000000   4148496   4146541   4144580   4142606   4140619  
  4680.000000   4138620   4136604   4134567   4132490   4130362  
  4670.000000   4128164   4125900   4123579   4121239   4118915  
  4660.000000   4116662   4114518   4112524   4110701   4109070  
  4650.000000   4107633   4106397   4105355   4104502   4103820  
  4640.000000   4103293   4102896   4102610   4102409   4102276  
  4630.000000   4102185   4102118   4102040   4101924   4101734  
  4620.000000   4101446   4101037   4100502   4099844   4099077  
  4610.000000   4098220   4097299   4096344   4095383   4094450  
  4600.000000   4093569   4092762   4092032   4091372   4090757  
  4590.000000   4090161   4089551   4088909   4088219   4087483  
  4580.000000   4086698   4085870   4084995   4084069   4083081  
  4570.000000   4082029   4080905   4079711   4078441   4077097  
  4560.000000   4075669   4074159   4072565   4070903   4069190  
  4550.000000   4067454   4065711   4063970   4062223   4060449  
  4540.000000   4058629   4056745   4054806   4052829   4050859  
  4530.000000   4048928   4047084   4045337   4043717   4042214  
  4520.000000   4040860   4039650   4038640   4037836   4037305  
  4510.000000   4037045   4037122   4037526   4038332   4039531  
  4500.000000   4041214   4043372   4046092   4049350   4053225  
  4490.000000   4057688   4062825   4068619   4075163   4082434  
  4480.000000   4090497   4099287   4108819   4118991   4129798  
  4470.000000   4141145   4153041   4165416   4178284   4191574  
  4460.000000   4205271   4219277   4233542   4247952   4262451  
  4450.000000   4276947   4291403   4305776   4320058   4334248  
  4440.000000   4348350   4362378   4376322   4390186   4403932  
  4430.000000   4417562   4431019   4444318   4457399   4470290  
  4420.000000   4482917   4495297   4507322   4518979   4530121  
  4410.000000   4540706   4550567   4559652   4567803   4574990  
  4400.000000   4581101   4586168   4590161   4593190   4595307  
  4390.000000   4596673   4597377   4597575   4597345   4596809  
  4380.000000   4596027   4595104   4594110   4593164   4592368  
  4370.000000   4591851   4591727   4592095   4593035   4594584  
  4360.000000   4596764   4599546   4602897   4606742   4611012  
  4350.000000   4615622   4620499   4625590   4630863   4636312  
  4340.000000   4641941   4647747   4653678   4659623   4665386  
  4330.000000   4670704   4675272   4678813   4681125   4682151  
  4320.000000   4681986   4680896   4679229   4677399   4675752  
  4310.000000   4674575   4673991   4674042   4674628   4675636  
  4300.000000   4676891   4678264   4679621   4680879   4681971  
  4290.000000   4682865   4683553   4684052   4684400   4684650  
  4280.000000   4684859   4685087   4685368   4685746   4686226  
  4270.000000   4686830   4687531   4688308   4689070   4689716  
  4260.000000   4690076   4689988   4689280   4687852   4685664  
  4250.000000   4682787   4679363   4675604   4671722   4667928  
  4240.000000   4664357   4661104   4658174   4655551   4653165  
  4230.000000   4650957   4648846   4646770   4644661   4642462  
  4220.000000   4640130   4637629   4634965   4632151   4629253  
  4210.000000   4626331   4623485   4620789   4618333   4616160  
  4200.000000   4614318   4612800   4611603   4610673   4609978  
  4190.000000   4609444   4609056   4608763   4608603   4608568  
  4180.000000   4608737   4609121   4609801   4610771   4612102  
  4170.000000   4613789   4615918   4618504   4621656   4625386  
  4160.000000   4629778   4634793   4640453   4646665   4653424  
  4150.000000   4660636   4668323   4676423   4684992   4693988  
  4140.000000   4703476   4713414   4723864   4734784   4746230  
  4130.000000   4758158   4770612   4783538   4796966   4810840  
  4120.000000   4825189   4839971   4855221   4870907   4887055  
  4110.000000   4903620   4920605   4937942   4955611   4973540  
  4100.000000   4991704   5010043   5028546   5047178   5065945  
  4090.000000   5084838   5103865   5123027   5142317   5161734  
  4080.000000   5181258   5200892   5220606   5240406   5260236  
  4070.000000   5280076   5299825   5319434   5338779   5357824  
  4060.000000   5376469   5394725   5412518   5429881   5446736  
  4050.000000   5463121   5478953   5494292   5509064   5523343  
  4040.000000   5537033   5550175   5562620   5574380   5585292  
  4030.000000   5595390   5604542   5612806   5620070   5626370  
  4020.000000   5631557   5635681   5638693   5640696   5641638  
  4010.000000   5641711   5641022   5639626   5637273   5634074  
  4000.000000   5630450  
##END= 
