##TITLE= Sample 012 By ssteindl date Donnerstag, November 22 2018
##JCAMP-DX= 4.24
##DATA TYPE= INFRARED SPECTRUM
##ORIGIN= Exported PE Spectrum Data File
##OWNER= Sandra Steindl
##DATE= 18/11/22
##TIME= 12:49:28.00
##SPECTROMETER/DATA SYSTEM= PERKIN-ELMER Frontier FT-IR/NIR IR
##INSTRUMENT PARAMETERS=
  APODIZATION=stark
  DETECTOR=INGAAS
##RESOLUTION= 16.000000
##DELTAX= -2.000000
##XUNITS= 1/CM
##YUNITS= A
##XFACTOR= 1.00
##YFACTOR= 0.00000011920928955078
##FIRSTX= 10000.00
##LASTX= 4000.00
##NPOINTS= 3001
##FIRSTY= 0.222676
##MAXY= 0.621813
##MINY= 0.186734
##XYDATA= (X++(Y..Y))
 10000.000000   1867941   1868505   1869589   1871610   1873919  
  9990.000000   1875203   1874485   1871431   1866302   1859708  
  9980.000000   1852565   1845650   1839304   1833455   1827914  
  9970.000000   1822735   1818323   1815496   1815108   1817735  
  9960.000000   1823263   1830861   1839164   1846672   1852248  
  9950.000000   1855302   1855940   1854631   1852050   1848741  
  9940.000000   1845111   1841449   1838051   1835299   1833598  
  9930.000000   1833294   1834433   1836777   1839663   1842304  
  9920.000000   1843854   1843764   1841880   1838488   1834255  
  9910.000000   1829940   1826242   1823516   1821719   1820427  
  9900.000000   1818979   1816791   1813544   1809454   1805179  
  9890.000000   1801726   1800022   1800611   1803343   1807339  
  9880.000000   1811260   1813638   1813446   1810266   1804502  
  9870.000000   1797072   1789173   1781874   1775907   1771631  
  9860.000000   1769089   1768222   1768924   1771124   1774661  
  9850.000000   1779238   1784337   1789280   1793358   1795943  
  9840.000000   1796681   1795462   1792522   1788277   1783354  
  9830.000000   1778440   1774257   1771440   1770413   1771287  
  9820.000000   1773753   1777159   1780606   1783253   1784479  
  9810.000000   1784116   1782383   1779846   1777196   1775077  
  9800.000000   1773974   1774101   1775430   1777654   1780229  
  9790.000000   1782431   1783457   1782634   1779627   1774626  
  9780.000000   1768408   1762160   1757179   1754419   1754198  
  9770.000000   1756020   1758820   1761294   1762446   1761900  
  9760.000000   1760007   1757670   1755897   1755498   1756741  
  9750.000000   1759453   1763142   1767311   1771656   1776044  
  9740.000000   1780463   1784705   1788335   1790591   1790652  
  9730.000000   1787864   1782065   1773748   1764020   1754464  
  9720.000000   1746697   1742167   1741668   1745371   1752578  
  9710.000000   1762008   1771893   1780411   1786023   1787770  
  9700.000000   1785483   1779658   1771370   1761829   1752264  
  9690.000000   1743553   1736316   1730825   1727169   1725313  
  9680.000000   1725070   1726194   1728241   1730768   1733348  
  9670.000000   1735779   1738130   1740667   1743732   1747439  
  9660.000000   1751597   1755624   1758785   1760444   1760358  
  9650.000000   1758847   1756680   1754842   1754111   1754785  
  9640.000000   1756533   1758534   1759765   1759353   1756830  
  9630.000000   1752236   1746032   1738951   1731805   1725376  
  9620.000000   1720321   1717130   1716051   1717024   1719625  
  9610.000000   1723124   1726611   1729254   1730527   1730369  
  9600.000000   1729217   1727785   1726855   1726899   1727966  
  9590.000000   1729632   1731209   1732023   1731673   1730194  
  9580.000000   1728016   1725820   1724258   1723750   1724297  
  9570.000000   1725512   1726689   1727066   1726042   1723417  
  9560.000000   1719478   1714959   1710834   1708021   1707063  
  9550.000000   1707927   1709987   1712208   1713508   1713125  
  9540.000000   1710869   1707191   1702976   1699261   1696850  
  9530.000000   1696112   1696900   1698687   1700807   1702663  
  9520.000000   1703855   1704177   1703547   1701948   1699419  
  9510.000000   1696091   1692272   1688383   1684951   1682357  
  9500.000000   1680775   1680022   1679650   1679111   1677954  
  9490.000000   1676086   1673777   1671659   1670451   1670745  
  9480.000000   1672766   1676312   1680791   1685381   1689227  
  9470.000000   1691587   1692023   1690401   1686990   1682316  
  9460.000000   1677120   1672122   1667904   1664742   1662580  
  9450.000000   1661124   1659971   1658874   1657817   1657124  
  9440.000000   1657261   1658665   1661465   1665354   1669647  
  9430.000000   1673433   1675913   1676569   1675359   1672645  
  9420.000000   1669094   1665472   1662440   1660463   1659713  
  9410.000000   1660136   1661454   1663253   1665031   1666276  
  9400.000000   1666574   1665684   1663593   1660496   1656718  
  9390.000000   1652647   1648653   1645084   1642253   1640461  
  9380.000000   1639976   1640987   1643513   1647278   1651668  
  9370.000000   1655753   1658531   1659180   1657379   1653389  
  9360.000000   1648043   1642493   1637968   1635423   1635354  
  9350.000000   1637684   1641817   1646858   1651786   1655735  
  9340.000000   1658079   1658601   1657469   1655262   1652769  
  9330.000000   1650816   1649969   1650384   1651740   1653357  
  9320.000000   1654430   1654284   1652607   1649510   1645456  
  9310.000000   1641010   1636619   1632452   1628455   1624451  
  9300.000000   1620385   1616426   1613038   1610809   1610241  
  9290.000000   1611542   1614522   1618677   1623324   1627835  
  9280.000000   1631758   1634916   1637371   1639312   1640939  
  9270.000000   1642372   1643650   1644721   1645492   1645783  
  9260.000000   1645382   1644045   1641597   1637989   1633348  
  9250.000000   1628009   1622450   1617238   1612874   1609720  
  9240.000000   1607915   1607427   1608058   1609559   1611616  
  9230.000000   1613937   1616232   1618273   1619909   1621088  
  9220.000000   1621894   1622469   1622988   1623477   1623818  
  9210.000000   1623714   1622878   1621122   1618509   1615357  
  9200.000000   1612158   1609440   1607523   1606485   1606095  
  9190.000000   1606028   1605993   1605914   1605938   1606316  
  9180.000000   1607237   1608646   1610218   1611397   1611626  
  9170.000000   1610545   1608208   1605037   1601744   1599074  
  9160.000000   1597630   1597671   1599057   1601353   1603970  
  9150.000000   1606350   1608047   1608853   1608802   1608173  
  9140.000000   1607362   1606795   1606788   1607471   1608737  
  9130.000000   1610232   1611480   1611993   1611478   1609878  
  9120.000000   1607398   1604411   1601346   1598551   1596206  
  9110.000000   1594345   1592913   1591894   1591327   1591344  
  9100.000000   1592067   1593585   1595826   1598564   1601402  
  9090.000000   1603893   1605648   1606402   1606083   1604777  
  9080.000000   1602748   1600311   1597802   1595472   1593482  
  9070.000000   1591853   1590494   1589248   1587980   1586641  
  9060.000000   1585286   1584087   1583256   1582988   1583366  
  9050.000000   1584342   1585768   1587439   1589191   1590921  
  9040.000000   1592633   1594345   1596058   1597681   1599055  
  9030.000000   1599986   1600314   1600018   1599231   1598245  
  9020.000000   1597387   1596966   1597142   1597908   1599047  
  9010.000000   1600226   1601061   1601202   1600401   1598559  
  9000.000000   1595755   1592230   1588331   1584462   1581009  
  8990.000000   1578277   1576443   1575554   1575539   1576237  
  8980.000000   1577416   1578816   1580174   1581237   1581796  
  8970.000000   1581709   1580992   1579789   1578404   1577182  
  8960.000000   1576459   1576411   1577026   1578083   1579258  
  8950.000000   1580224   1580774   1580871   1580640   1580292  
  8940.000000   1580013   1579899   1579921   1579982   1579991  
  8930.000000   1579925   1579872   1579973   1580363   1581080  
  8920.000000   1582019   1582960   1583623   1583792   1583379  
  8910.000000   1582489   1581385   1580425   1579932   1580113  
  8900.000000   1580961   1582287   1583751   1584959   1585575  
  8890.000000   1585388   1584396   1582741   1580676   1578443  
  8880.000000   1576241   1574143   1572157   1570264   1568544  
  8870.000000   1567180   1566439   1566596   1567810   1570051  
  8860.000000   1573050   1576386   1579615   1582412   1584669  
  8850.000000   1586476   1588062   1589622   1591241   1592809  
  8840.000000   1594123   1594946   1595163   1594810   1594079  
  8830.000000   1593229   1592472   1591932   1591608   1591477  
  8820.000000   1591535   1591874   1592625   1593907   1595697  
  8810.000000   1597808   1599877   1601511   1602405   1602491  
  8800.000000   1601974   1601256   1600802   1600932   1601721  
  8790.000000   1602952   1604210   1605026   1605049   1604165  
  8780.000000   1602533   1600533   1598641   1597291   1596766  
  8770.000000   1597135   1598265   1599860   1601553   1602989  
  8760.000000   1603930   1604295   1604183   1603831   1603551  
  8750.000000   1603632   1604272   1605507   1607238   1609242  
  8740.000000   1611268   1613087   1614552   1615617   1616316  
  8730.000000   1616751   1617038   1617315   1617719   1618373  
  8720.000000   1619376   1620751   1622441   1624276   1626013  
  8710.000000   1627376   1628147   1628233   1627713   1626838  
  8700.000000   1625980   1625536   1625827   1627021   1629090  
  8690.000000   1631839   1634939   1638029   1640783   1642996  
  8680.000000   1644612   1645713   1646479   1647107   1647763  
  8670.000000   1648507   1649304   1650037   1650596   1650932  
  8660.000000   1651115   1651324   1651788   1652716   1654181  
  8650.000000   1656112   1658279   1660395   1662219   1663638  
  8640.000000   1664723   1665666   1666711   1668016   1669586  
  8630.000000   1671247   1672733   1673779   1674270   1674292  
  8620.000000   1674148   1674235   1674910   1676347   1678461  
  8610.000000   1680954   1683410   1685475   1686990   1688061  
  8600.000000   1689013   1690264   1692140   1694736   1697843  
  8590.000000   1701014   1703719   1705530   1706273   1706079  
  8580.000000   1705325   1704505   1704023   1704096   1704678  
  8570.000000   1705552   1706429   1707095   1707471   1707632  
  8560.000000   1707732   1707924   1708265   1708709   1709127  
  8550.000000   1709396   1709459   1709372   1709292   1709420  
  8540.000000   1709919   1710866   1712221   1713842   1715534  
  8530.000000   1717082   1718323   1719128   1719449   1719288  
  8520.000000   1718743   1717962   1717162   1716568   1716403  
  8510.000000   1716809   1717841   1719440   1721476   1723794  
  8500.000000   1726253   1728772   1731327   1733935   1736615  
  8490.000000   1739358   1742120   1744827   1747408   1749793  
  8480.000000   1751938   1753804   1755353   1756541   1757319  
  8470.000000   1757671   1757629   1757306   1756864   1756504  
  8460.000000   1756395   1756652   1757271   1758173   1759196  
  8450.000000   1760188   1761023   1761666   1762165   1762637  
  8440.000000   1763232   1764062   1765172   1766498   1767891  
  8430.000000   1769146   1770080   1770587   1770690   1770551  
  8420.000000   1770433   1770624   1771338   1772656   1774491  
  8410.000000   1776620   1778734   1780548   1781863   1782624  
  8400.000000   1782888   1782809   1782565   1782310   1782135  
  8390.000000   1782058   1782051   1782042   1781940   1781652  
  8380.000000   1781104   1780266   1779167   1777912   1776672  
  8370.000000   1775663   1775082   1775058   1775606   1776623  
  8360.000000   1777916   1779261   1780468   1781425   1782119  
  8350.000000   1782610   1782988   1783320   1783639   1783921  
  8340.000000   1784123   1784199   1784139   1783972   1783759  
  8330.000000   1783571   1783470   1783490   1783630   1783860  
  8320.000000   1784136   1784404   1784614   1784729   1784728  
  8310.000000   1784633   1784493   1784402   1784456   1784758  
  8300.000000   1785369   1786303   1787492   1788795   1790009  
  8290.000000   1790909   1791297   1791036   1790091   1788544  
  8280.000000   1786599   1784535   1782652   1781198   1780310  
  8270.000000   1779997   1780133   1780519   1780933   1781223  
  8260.000000   1781324   1781290   1781220   1781238   1781415  
  8250.000000   1781762   1782220   1782689   1783069   1783277  
  8240.000000   1783259   1782979   1782401   1781489   1780209  
  8230.000000   1778563   1776611   1774480   1772341   1770371  
  8220.000000   1768693   1767356   1766311   1765461   1764684  
  8210.000000   1763913   1763137   1762425   1761858   1761501  
  8200.000000   1761348   1761317   1761275   1761069   1760586  
  8190.000000   1759768   1758638   1757257   1755715   1754088  
  8180.000000   1752428   1750772   1749145   1747587   1746137  
  8170.000000   1744848   1743744   1742833   1742074   1741415  
  8160.000000   1740790   1740150   1739471   1738747   1737984  
  8150.000000   1737170   1736282   1735267   1734085   1732717  
  8140.000000   1731204   1729641   1728163   1726902   1725949  
  8130.000000   1725324   1724961   1724742   1724522   1724184  
  8120.000000   1723660   1722947   1722087   1721145   1720180  
  8110.000000   1719225   1718293   1717380   1716490   1715622  
  8100.000000   1714785   1713969   1713147   1712266   1711266  
  8090.000000   1710119   1708836   1707514   1706284   1705315  
  8080.000000   1704727   1704579   1704820   1705309   1705839  
  8070.000000   1706183   1706144   1705576   1704413   1702652  
  8060.000000   1700372   1697711   1694871   1692100   1689658  
  8050.000000   1687777   1686599   1686149   1686302   1686831  
  8040.000000   1687444   1687866   1687904   1687472   1686604  
  8030.000000   1685390   1683959   1682399   1680781   1679139  
  8020.000000   1677528   1676029   1674768   1673876   1673449  
  8010.000000   1673508   1673962   1674644   1675340   1675866  
  8000.000000   1676116   1676088   1675871   1675588   1675353  
  7990.000000   1675212   1675139   1675041   1674808   1674356  
  7980.000000   1673659   1672758   1671736   1670700   1669723  
  7970.000000   1668847   1668064   1667342   1666640   1665928  
  7960.000000   1665192   1664433   1663654   1662853   1662026  
  7950.000000   1661167   1660285   1659402   1658569   1657838  
  7940.000000   1657271   1656900   1656735   1656743   1656867  
  7930.000000   1657032   1657163   1657202   1657127   1656947  
  7920.000000   1656717   1656514   1656428   1656526   1656839  
  7910.000000   1657333   1657916   1658454   1658810   1658886  
  7900.000000   1658653   1658174   1657575   1657018   1656643  
  7890.000000   1656530   1656672   1656992   1657365   1657667  
  7880.000000   1657806   1657743   1657482   1657059   1656508  
  7870.000000   1655858   1655122   1654323   1653495   1652700  
  7860.000000   1652011   1651500   1651195   1651082   1651087  
  7850.000000   1651108   1651035   1650793   1650357   1649753  
  7840.000000   1649050   1648319   1647618   1646966   1646353  
  7830.000000   1645745   1645110   1644437   1643747   1643094  
  7820.000000   1642542   1642159   1641983   1642021   1642235  
  7810.000000   1642556   1642891   1643147   1643247   1643144  
  7800.000000   1642825   1642311   1641647   1640887   1640085  
  7790.000000   1639279   1638483   1637698   1636908   1636106  
  7780.000000   1635297   1634511   1633792   1633192   1632739  
  7770.000000   1632429   1632201   1631964   1631607   1631050  
  7760.000000   1630270   1629324   1628336   1627464   1626841  
  7750.000000   1626530   1626491   1626595   1626660   1626510  
  7740.000000   1626035   1625217   1624129   1622899   1621661  
  7730.000000   1620519   1619521   1618673   1617957   1617359  
  7720.000000   1616881   1616534   1616317   1616203   1616129  
  7710.000000   1616007   1615751   1615307   1614671   1613890  
  7700.000000   1613050   1612242   1611548   1611010   1610642  
  7690.000000   1610425   1610318   1610263   1610197   1610058  
  7680.000000   1609796   1609400   1608899   1608373   1607928  
  7670.000000   1607665   1607641   1607842   1608183   1608526  
  7660.000000   1608737   1608715   1608437   1607951   1607347  
  7650.000000   1606723   1606143   1605627   1605159   1604715  
  7640.000000   1604289   1603904   1603607   1603438   1603412  
  7630.000000   1603500   1603641   1603763   1603821   1603806  
  7620.000000   1603763   1603751   1603833   1604038   1604360  
  7610.000000   1604755   1605170   1605561   1605913   1606238  
  7600.000000   1606567   1606935   1607360   1607843   1608359  
  7590.000000   1608869   1609330   1609703   1609972   1610135  
  7580.000000   1610224   1610273   1610327   1610413   1610538  
  7570.000000   1610679   1610806   1610894   1610952   1611035  
  7560.000000   1611233   1611650   1612362   1613390   1614685  
  7550.000000   1616133   1617602   1618965   1620157   1621159  
  7540.000000   1622016   1622775   1623495   1624201   1624918  
  7530.000000   1625659   1626461   1627368   1628425   1629652  
  7520.000000   1631024   1632473   1633908   1635250   1636471  
  7510.000000   1637600   1638717   1639908   1641233   1642689  
  7500.000000   1644221   1645740   1647172   1648488   1649727  
  7490.000000   1650967   1652304   1653803   1655483   1657306  
  7480.000000   1659203   1661093   1662922   1664657   1666298  
  7470.000000   1667850   1669335   1670772   1672197   1673657  
  7460.000000   1675218   1676943   1678881   1681033   1683357  
  7450.000000   1685765   1688164   1690471   1692651   1694711  
  7440.000000   1696704   1698695   1700743   1702874   1705092  
  7430.000000   1707382   1709729   1712126   1714584   1717113  
  7420.000000   1719720   1722391   1725086   1727750   1730322  
  7410.000000   1732753   1735019   1737123   1739097   1740990  
  7400.000000   1742857   1744749   1746707   1748758   1750912  
  7390.000000   1753163   1755493   1757870   1760256   1762613  
  7380.000000   1764902   1767101   1769210   1771249   1773259  
  7370.000000   1775290   1777388   1779576   1781849   1784171  
  7360.000000   1786485   1788739   1790899   1792972   1794998  
  7350.000000   1797044   1799170   1801408   1803737   1806090  
  7340.000000   1808375   1810507   1812437   1814170   1815757  
  7330.000000   1817284   1818832   1820463   1822199   1824034  
  7320.000000   1825936   1827872   1829814   1831742   1833635  
  7310.000000   1835469   1837209   1838824   1840294   1841626  
  7300.000000   1842858   1844056   1845286   1846602   1848008  
  7290.000000   1849470   1850909   1852248   1853420   1854414  
  7280.000000   1855265   1856059   1856889   1857831   1858911  
  7270.000000   1860091   1861285   1862384   1863300   1863991  
  7260.000000   1864486   1864869   1865268   1865808   1866588  
  7250.000000   1867655   1869012   1870610   1872386   1874256  
  7240.000000   1876149   1877995   1879752   1881389   1882920  
  7230.000000   1884375   1885840   1887392   1889129   1891092  
  7220.000000   1893297   1895689   1898204   1900756   1903309  
  7210.000000   1905859   1908467   1911209   1914172   1917394  
  7200.000000   1920883   1924582   1928437   1932371   1936349  
  7190.000000   1940328   1944296   1948212   1952050   1955758  
  7180.000000   1959327   1962765   1966150   1969571   1973156  
  7170.000000   1976985   1981115   1985526   1990178   1994994  
  7160.000000   1999934   2004970   2010126   2015427   2020913  
  7150.000000   2026585   2032443   2038439   2044543   2050691  
  7140.000000   2056856   2062985   2069067   2075070   2081012  
  7130.000000   2086908   2092826   2098826   2104996   2111382  
  7120.000000   2118020   2124895   2131982   2139235   2146637  
  7110.000000   2154168   2161835   2169613   2177476   2185348  
  7100.000000   2193167   2200859   2208415   2215854   2223263  
  7090.000000   2230732   2238362   2246209   2254302   2262623  
  7080.000000   2271137   2279789   2288529   2297294   2306026  
  7070.000000   2314652   2323121   2331391   2339464   2347370  
  7060.000000   2355177   2362954   2370771   2378674   2386685  
  7050.000000   2394805   2403018   2411305   2419630   2427961  
  7040.000000   2436252   2444464   2452565   2460551   2468432  
  7030.000000   2476239   2483993   2491703   2499345   2506885  
  7020.000000   2514281   2521526   2528639   2535680   2542699  
  7010.000000   2549740   2556784   2563783   2570645   2577303  
  7000.000000   2583710   2589882   2595856   2601703   2607456  
  6990.000000   2613148   2618765   2624308   2629770   2635176  
  6980.000000   2640536   2645861   2651106   2656213   2661086  
  6970.000000   2665673   2669949   2673973   2677833   2681653  
  6960.000000   2685511   2689454   2693447   2697437   2701331  
  6950.000000   2705076   2708620   2711963   2715101   2718064  
  6940.000000   2720869   2723565   2726192   2728810   2731452  
  6930.000000   2734136   2736822   2739452   2741937   2744226  
  6920.000000   2746292   2748175   2749940   2751669   2753415  
  6910.000000   2755201   2757009   2758819   2760609   2762388  
  6900.000000   2764168   2765966   2767770   2769547   2771237  
  6890.000000   2772793   2774190   2775451   2776628   2777787  
  6880.000000   2778976   2780218   2781498   2782792   2784074  
  6870.000000   2785334   2786570   2787782   2788951   2790046  
  6860.000000   2791026   2791869   2792580   2793210   2793830  
  6850.000000   2794518   2795323   2796265   2797320   2798453  
  6840.000000   2799623   2800807   2801987   2803144   2804242  
  6830.000000   2805230   2806055   2806685   2807123   2807419  
  6820.000000   2807645   2807879   2808168   2808527   2808930  
  6810.000000   2809347   2809750   2810139   2810521   2810913  
  6800.000000   2811304   2811668   2811958   2812146   2812222  
  6790.000000   2812222   2812196   2812199   2812254   2812350  
  6780.000000   2812439   2812471   2812399   2812209   2811901  
  6770.000000   2811487   2810962   2810316   2809531   2808618  
  6760.000000   2807613   2806598   2805656   2804859   2804223  
  6750.000000   2803712   2803245   2802746   2802162   2801500  
  6740.000000   2800800   2800120   2799491   2798904   2798309  
  6730.000000   2797644   2796866   2795975   2795012   2794043  
  6720.000000   2793114   2792245   2791412   2790578   2789708  
  6710.000000   2788800   2787874   2786962   2786074   2785186  
  6700.000000   2784235   2783153   2781886   2780435   2778846  
  6690.000000   2777209   2775609   2774106   2772710   2771392  
  6680.000000   2770093   2768763   2767362   2765880   2764321  
  6670.000000   2762702   2761038   2759351   2757659   2755990  
  6660.000000   2754359   2752772   2751205   2749617   2747957  
  6650.000000   2746189   2744309   2742350   2740369   2738421  
  6640.000000   2736533   2734693   2732849   2730946   2728941  
  6630.000000   2726835   2724667   2722506   2720415   2718437  
  6620.000000   2716576   2714811   2713105   2711426   2709749  
  6610.000000   2708060   2706341   2704572   2702731   2700806  
  6600.000000   2698806   2696764   2694725   2692726   2690781  
  6590.000000   2688869   2686942   2684953   2682878   2680730  
  6580.000000   2678562   2676442   2674428   2672548   2670793  
  6570.000000   2669125   2667503   2665896   2664297   2662711  
  6560.000000   2661152   2659616   2658097   2656576   2655050  
  6550.000000   2653527   2652040   2650619   2649287   2648036  
  6540.000000   2646835   2645633   2644388   2643077   2641709  
  6530.000000   2640315   2638937   2637610   2636356   2635175  
  6520.000000   2634059   2632994   2631962   2630946   2629927  
  6510.000000   2628883   2627800   2626673   2625518   2624363  
  6500.000000   2623240   2622169   2621147   2620145   2619122  
  6490.000000   2618043   2616901   2615722   2614555   2613459  
  6480.000000   2612470   2611592   2610796   2610034   2609262  
  6470.000000   2608454   2607611   2606744   2605863   2604968  
  6460.000000   2604042   2603066   2602035   2600963   2599889  
  6450.000000   2598861   2597914   2597063   2596289   2595553  
  6440.000000   2594811   2594030   2593194   2592303   2591366  
  6430.000000   2590388   2589377   2588333   2587273   2586221  
  6420.000000   2585213   2584285   2583461   2582743   2582111  
  6410.000000   2581532   2580975   2580421   2579865   2579314  
  6400.000000   2578776   2578250   2577729   2577201   2576664  
  6390.000000   2576123   2575595   2575097   2574641   2574222  
  6380.000000   2573822   2573418   2572986   2572515   2572002  
  6370.000000   2571447   2570850   2570201   2569491   2568722  
  6360.000000   2567907   2567084   2566297   2565589   2564978  
  6350.000000   2564457   2563990   2563532   2563042   2562502  
  6340.000000   2561912   2561287   2560636   2559964   2559256  
  6330.000000   2558499   2557681   2556812   2555915   2555025  
  6320.000000   2554167   2553353   2552564   2551773   2550935  
  6310.000000   2550024   2549012   2547897   2546672   2545342  
  6300.000000   2543900   2542355   2540712   2539000   2537245  
  6290.000000   2535487   2533740   2532017   2530296   2528560  
  6280.000000   2526776   2524938   2523036   2521086   2519092  
  6270.000000   2517064   2514996   2512881   2510705   2508469  
  6260.000000   2506177   2503847   2501500   2499161   2496844  
  6250.000000   2494566   2492325   2490125   2487952   2485796  
  6240.000000   2483635   2481452   2479232   2476967   2474656  
  6230.000000   2472304   2469910   2467472   2464980   2462430  
  6220.000000   2459823   2457179   2454530   2451917   2449373  
  6210.000000   2446916   2444537   2442211   2439900   2437575  
  6200.000000   2435218   2432831   2430426   2428014   2425601  
  6190.000000   2423187   2420772   2418364   2415983   2413652  
  6180.000000   2411394   2409212   2407089   2404988   2402871  
  6170.000000   2400709   2398499   2396263   2394035   2391850  
  6160.000000   2389729   2387674   2385675   2383720   2381806  
  6150.000000   2379936   2378116   2376339   2374583   2372804  
  6140.000000   2370961   2369025   2367002   2364927   2362862  
  6130.000000   2360867   2358981   2357206   2355514   2353855  
  6120.000000   2352188   2350492   2348778   2347080   2345446  
  6110.000000   2343914   2342508   2341227   2340054   2338955  
  6100.000000   2337899   2336849   2335787   2334692   2333571  
  6090.000000   2332433   2331307   2330222   2329213   2328297  
  6080.000000   2327486   2326770   2326137   2325569   2325056  
  6070.000000   2324588   2324163   2323772   2323413   2323073  
  6060.000000   2322758   2322467   2322222   2322034   2321920  
  6050.000000   2321871   2321877   2321909   2321955   2322011  
  6040.000000   2322102   2322263   2322536   2322942   2323486  
  6030.000000   2324138   2324866   2325631   2326418   2327221  
  6020.000000   2328057   2328932   2329849   2330790   2331734  
  6010.000000   2332658   2333558   2334440   2335327   2336237  
  6000.000000   2337186   2338167   2339173   2340192   2341224  
  5990.000000   2342277   2343372   2344516   2345716   2346954  
  5980.000000   2348216   2349482   2350757   2352052   2353402  
  5970.000000   2354833   2356369   2358009   2359749   2361573  
  5960.000000   2363479   2365461   2367526   2369665   2371864  
  5950.000000   2374088   2376308   2378498   2380661   2382816  
  5940.000000   2385009   2387274   2389638   2392096   2394621  
  5930.000000   2397174   2399723   2402247   2404741   2407204  
  5920.000000   2409630   2411998   2414283   2416457   2418515  
  5910.000000   2420474   2422379   2424283   2426234   2428256  
  5900.000000   2430345   2432478   2434624   2436763   2438887  
  5890.000000   2441005   2443134   2445285   2447462   2449657  
  5880.000000   2451856   2454045   2456215   2458357   2460468  
  5870.000000   2462544   2464582   2466580   2468544   2470480  
  5860.000000   2472397   2474297   2476177   2478028   2479851  
  5850.000000   2481660   2483494   2485407   2487459   2489692  
  5840.000000   2492114   2494691   2497361   2500051   2502707  
  5830.000000   2505303   2507854   2510397   2512968   2515587  
  5820.000000   2518242   2520895   2523491   2525985   2528346  
  5810.000000   2530570   2532660   2534642   2536522   2538323  
  5800.000000   2540042   2541703   2543305   2544871   2546389  
  5790.000000   2547856   2549222   2550449   2551467   2552232  
  5780.000000   2552691   2552831   2552639   2552137   2551352  
  5770.000000   2550342   2549164   2547899   2546611   2545365  
  5760.000000   2544199   2543143   2542202   2541384   2540686  
  5750.000000   2540112   2539657   2539305   2539029   2538790  
  5740.000000   2538556   2538303   2538042   2537796   2537613  
  5730.000000   2537524   2537556   2537695   2537918   2538180  
  5720.000000   2538456   2538724   2538993   2539271   2539577  
  5710.000000   2539916   2540291   2540702   2541158   2541671  
  5700.000000   2542264   2542949   2543723   2544563   2545428  
  5690.000000   2546279   2547082   2547832   2548537   2549223  
  5680.000000   2549903   2550584   2551248   2551869   2552410  
  5670.000000   2552845   2553148   2553309   2553312   2553153  
  5660.000000   2552826   2552349   2551749   2551082   2550403  
  5650.000000   2549766   2549195   2548691   2548220   2547747  
  5640.000000   2547234   2546669   2546057   2545423   2544793  
  5630.000000   2544185   2543606   2543060   2542542   2542057  
  5620.000000   2541606   2541185   2540780   2540366   2539908  
  5610.000000   2539383   2538783   2538124   2537433   2536746  
  5600.000000   2536075   2535417   2534745   2534031   2533253  
  5590.000000   2532415   2531537   2530651   2529778   2528925  
  5580.000000   2528071   2527190   2526254   2525257   2524205  
  5570.000000   2523120   2522020   2520915   2519797   2518653  
  5560.000000   2517470   2516247   2514998   2513745   2512507  
  5550.000000   2511294   2510106   2508937   2507783   2506652  
  5540.000000   2505557   2504514   2503529   2502592   2501679  
  5530.000000   2500763   2499823   2498856   2497875   2496898  
  5520.000000   2495940   2495001   2494063   2493102   2492097  
  5510.000000   2491041   2489939   2488808   2487662   2486510  
  5500.000000   2485348   2484173   2482983   2481793   2480617  
  5490.000000   2479475   2478362   2477257   2476115   2474892  
  5480.000000   2473549   2472080   2470496   2468840   2467148  
  5470.000000   2465453   2463761   2462068   2460351   2458595  
  5460.000000   2456784   2454913   2452974   2450961   2448868  
  5450.000000   2446701   2444476   2442227   2439997   2437825  
  5440.000000   2435734   2433725   2431786   2429896   2428046  
  5430.000000   2426233   2424469   2422753   2421082   2419430  
  5420.000000   2417782   2416123   2414484   2412913   2411491  
  5410.000000   2410275   2409308   2408564   2408005   2407551  
  5400.000000   2407162   2406798   2406478   2406216   2406057  
  5390.000000   2406010   2406100   2406316   2406682   2407206  
  5380.000000   2407939   2408896   2410108   2411541   2413174  
  5370.000000   2414932   2416795   2418716   2420730   2422837  
  5360.000000   2425108   2427547   2430221   2433122   2436319  
  5350.000000   2439812   2443686   2447940   2452646   2457769  
  5340.000000   2463351   2469335   2475769   2482609   2489926  
  5330.000000   2497674   2505912   2514569   2523687   2533201  
  5320.000000   2543195   2553654   2564725   2576417   2588875  
  5310.000000   2602064   2616068   2630795   2646297   2662489  
  5300.000000   2679458   2697170   2715763   2735238   2755733  
  5290.000000   2777216   2799744   2823188   2847495   2872468  
  5280.000000   2898042   2924094   2950681   2977828   3005683  
  5270.000000   3034288   3063671   3093690   3124140   3154745  
  5260.000000   3185272   3215592   3245679   3275616   3305467  
  5250.000000   3335284   3364948   3394312   3423079   3451072  
  5240.000000   3478079   3504125   3529195   3553475   3577001  
  5230.000000   3599928   3622181   3643784   3664555   3684471  
  5220.000000   3703377   3721347   3738342   3754547   3769988  
  5210.000000   3784842   3799060   3812695   3825568   3837655  
  5200.000000   3848782   3859008   3868291   3876808   3884580  
  5190.000000   3891766   3898321   3904304   3909600   3914245  
  5180.000000   3918154   3921418   3924006   3926025   3927432  
  5170.000000   3928297   3928559   3928287   3927451   3926151  
  5160.000000   3924377   3922212   3919608   3916598   3913112  
  5150.000000   3909189   3904809   3900064   3894976   3889639  
  5140.000000   3884048   3878244   3872188   3865903   3859371  
  5130.000000   3852647   3845748   3838738   3831624   3824443  
  5120.000000   3817176   3809841   3802426   3794955   3787427  
  5110.000000   3779865   3772258   3764613   3756916   3749182  
  5100.000000   3741421   3733667   3725938   3718254   3710602  
  5090.000000   3702967   3695314   3687627   3679893   3672128  
  5080.000000   3664343   3656563   3648790   3641027   3633259  
  5070.000000   3625481   3617684   3609878   3602066   3594259  
  5060.000000   3586449   3578630   3570780   3562889   3554951  
  5050.000000   3546974   3538970   3530956   3522941   3514927  
  5040.000000   3506913   3498899   3490894   3482917   3474995  
  5030.000000   3467151   3459404   3451754   3444201   3436726  
  5020.000000   3429330   3422010   3414792   3407690   3400743  
  5010.000000   3393958   3387363   3380943   3374709   3368638  
  5000.000000   3362747   3357016   3351475   3346112   3340965  
  4990.000000   3336021   3331321   3326853   3322658   3318718  
  4980.000000   3315068   3311684   3308602   3305796   3303316  
  4970.000000   3301149   3299355   3297922   3296903   3296262  
  4960.000000   3296027   3296148   3296647   3297478   3298683  
  4950.000000   3300230   3302164   3304447   3307108   3310089  
  4940.000000   3313410   3317021   3320956   3325189   3329768  
  4930.000000   3334672   3339938   3345524   3351448   3357657  
  4920.000000   3364162   3370921   3377951   3385219   3392745  
  4910.000000   3400495   3408483   3416678   3425088   3433686  
  4900.000000   3442473   3451417   3460513   3469728   3479052  
  4890.000000   3488459   3497939   3507468   3517025   3526581  
  4880.000000   3536100   3545550   3554896   3564119   3573196  
  4870.000000   3582120   3590867   3599431   3607780   3615909  
  4860.000000   3623792   3631445   3638865   3646087   3653117  
  4850.000000   3659991   3666706   3673287   3679720   3686029  
  4840.000000   3692197   3698248   3704163   3709960   3715613  
  4830.000000   3721135   3726500   3731721   3736777   3741676  
  4820.000000   3746392   3750923   3755236   3759334   3763195  
  4810.000000   3766840   3770271   3773523   3776608   3779562  
  4800.000000   3782390   3785120   3787756   3790326   3792832  
  4790.000000   3795297   3797714   3800096   3802425   3804709  
  4780.000000   3806932   3809111   3811239   3813331   3815370  
  4770.000000   3817353   3819242   3821020   3822646   3824115  
  4760.000000   3825404   3826529   3827481   3828280   3828910  
  4750.000000   3829383   3829672   3829786   3829698   3829423  
  4740.000000   3828938   3828259   3827368   3826282   3824989  
  4730.000000   3823510   3821845   3820022   3818043   3815935  
  4720.000000   3813695   3811339   3808862   3806283   3803606  
  4710.000000   3800865   3798078   3795285   3792507   3789774  
  4700.000000   3787092   3784469   3781897   3779366   3776856  
  4690.000000   3774356   3771849   3769330   3766800   3764262  
  4680.000000   3761728   3759204   3756695   3754192   3751689  
  4670.000000   3749164   3746610   3744021   3741413   3738809  
  4660.000000   3736252   3733778   3731430   3729226   3727184  
  4650.000000   3725298   3723567   3721977   3720528   3719208  
  4640.000000   3718020   3716950   3715992   3715127   3714345  
  4630.000000   3713628   3712974   3712371   3711826   3711327  
  4620.000000   3710871   3710437   3710006   3709545   3709034  
  4610.000000   3708449   3707784   3707044   3706248   3705425  
  4600.000000   3704607   3703826   3703102   3702448   3701860  
  4590.000000   3701325   3700819   3700319   3699801   3699246  
  4580.000000   3698637   3697968   3697230   3696425   3695553  
  4570.000000   3694626   3693649   3692636   3691589   3690515  
  4560.000000   3689400   3688238   3687007   3685701   3684306  
  4550.000000   3682822   3681252   3679598   3677868   3676066  
  4540.000000   3674206   3672303   3670390   3668498   3666670  
  4530.000000   3664932   3663317   3661827   3660480   3659260  
  4520.000000   3658194   3657275   3656550   3656019   3655740  
  4510.000000   3655701   3655958   3656492   3657369   3658580  
  4500.000000   3660212   3662270   3664850   3667949   3671655  
  4490.000000   3675950   3680915   3686526   3692859   3699877  
  4480.000000   3707631   3716055   3725165   3734866   3745157  
  4470.000000   3755945   3767234   3778946   3791091   3803599  
  4460.000000   3816472   3829634   3843069   3856699   3870493  
  4450.000000   3884377   3898314   3912247   3926151   3940004  
  4440.000000   3953803   3967560   3981280   3994984   4008644  
  4430.000000   4022262   4035764   4049127   4062248   4075109  
  4420.000000   4087601   4099720   4111361   4122526   4133095  
  4410.000000   4143059   4152277   4160726   4168260   4174866  
  4400.000000   4180428   4184973   4188447   4190929   4192431  
  4390.000000   4193082   4192949   4192194   4190922   4189308  
  4380.000000   4187466   4185553   4183669   4181933   4180422  
  4370.000000   4179221   4178397   4178014   4178138   4178809  
  4360.000000   4180081   4181959   4184456   4187530   4191143  
  4350.000000   4195217   4199686   4204480   4209555   4214883  
  4340.000000   4220454   4226249   4232219   4238257   4244182  
  4330.000000   4249745   4254658   4258646   4261504   4263159  
  4320.000000   4263686   4263319   4262379   4261253   4260256  
  4310.000000   4259651   4259534   4259933   4260742   4261858  
  4300.000000   4263130   4264469   4265779   4267018   4268137  
  4290.000000   4269112   4269914   4270533   4270969   4271247  
  4280.000000   4271399   4271475   4271511   4271558   4271633  
  4270.000000   4271775   4271979   4272254   4272547   4272796  
  4260.000000   4272872   4272644   4271958   4270709   4268839  
  4250.000000   4266385   4263449   4260208   4256845   4253548  
  4240.000000   4250442   4247613   4245065   4242781   4240694  
  4230.000000   4238747   4236869   4235003   4233094   4231093  
  4220.000000   4228966   4226687   4224270   4221734   4219149  
  4210.000000   4216577   4214106   4211792   4209697   4207842  
  4200.000000   4206251   4204910   4203825   4202960   4202312  
  4190.000000   4201832   4201515   4201307   4201219   4201217  
  4180.000000   4201350   4201612   4202089   4202796   4203838  
  4170.000000   4205243   4207124   4209510   4212504   4216110  
  4160.000000   4220392   4225301   4230854   4236961   4243620  
  4150.000000   4250739   4258334   4266335   4274779   4283613  
  4140.000000   4292890   4302568   4312709   4323282   4334349  
  4130.000000   4345873   4357896   4370364   4383300   4396650  
  4120.000000   4410442   4424645   4439305   4454402   4469972  
  4110.000000   4485974   4502409   4519210   4536352   4553765  
  4100.000000   4571428   4589289   4607342   4625559   4643941  
  4090.000000   4662467   4681130   4699908   4718778   4737721  
  4080.000000   4756716   4775766   4794861   4814026   4833237  
  4070.000000   4852501   4871747   4890942   4909980   4928825  
  4060.000000   4947378   4965636   4983514   5001025   5018071  
  4050.000000   5034669   5050719   5066263   5081222   5095668  
  4040.000000   5109518   5122828   5135465   5147452   5158628  
  4030.000000   5169014   5178460   5187001   5194498   5200974  
  4020.000000   5206270   5210435   5213421   5215337   5216146  
  4010.000000   5216047   5215155   5213549   5211010   5207664  
  4000.000000   5203913  
##END= 
