##TITLE= Sample 016 By ssteindl date Donnerstag, November 22 2018
##JCAMP-DX= 4.24
##DATA TYPE= INFRARED SPECTRUM
##ORIGIN= Exported PE Spectrum Data File
##OWNER= Sandra Steindl
##DATE= 18/11/22
##TIME= 12:54:22.00
##SPECTROMETER/DATA SYSTEM= PERKIN-ELMER Frontier FT-IR/NIR IR
##INSTRUMENT PARAMETERS=
  APODIZATION=stark
  DETECTOR=INGAAS
##RESOLUTION= 16.000000
##DELTAX= -2.000000
##XUNITS= 1/CM
##YUNITS= A
##XFACTOR= 1.00
##YFACTOR= 0.00000011920928955078
##FIRSTX= 10000.00
##LASTX= 4000.00
##NPOINTS= 3001
##FIRSTY= 0.237061
##MAXY= 0.679521
##MINY= 0.194395
##XYDATA= (X++(Y..Y))
 10000.000000   1988609   1991552   1993915   1994697   1993365  
  9990.000000   1990134   1985691   1981120   1977526   1975866  
  9980.000000   1976451   1979059   1983055   1987696   1992329  
  9970.000000   1996442   1999615   2001329   2000918   1997697  
  9960.000000   1991263   1981869   1970634   1959459   1950601  
  9950.000000   1946001   1946604   1952027   1960545   1969698  
  9940.000000   1976934   1980440   1979542   1974814   1967793  
  9930.000000   1960366   1954280   1950580   1949551   1950642  
  9920.000000   1952816   1954802   1955493   1954260   1951068  
  9910.000000   1946600   1941960   1938475   1937202   1938619  
  9900.000000   1942447   1947634   1952770   1956404   1957590  
  9890.000000   1956027   1952130   1946768   1940993   1935745  
  9880.000000   1931721   1929332   1928751   1929978   1932795  
  9870.000000   1936820   1941412   1945868   1949482   1951845  
  9860.000000   1952905   1952980   1952595   1952155   1951808  
  9850.000000   1951259   1949990   1947450   1943375   1937971  
  9840.000000   1931845   1925917   1921024   1917824   1916503  
  9830.000000   1916948   1918689   1921157   1923688   1925634  
  9820.000000   1926432   1925610   1923026   1918759   1913298  
  9810.000000   1907209   1901109   1895313   1889883   1884671  
  9800.000000   1879585   1874897   1871281   1869826   1871532  
  9790.000000   1877003   1885951   1897209   1908934   1919113  
  9780.000000   1926155   1929208   1928366   1924365   1918360  
  9770.000000   1911437   1904478   1898043   1892472   1888009  
  9760.000000   1884774   1882823   1881941   1881790   1881836  
  9750.000000   1881695   1881134   1880248   1879275   1878421  
  9740.000000   1877725   1876901   1875588   1873401   1870303  
  9730.000000   1866545   1862683   1859285   1856730   1855099  
  9720.000000   1854181   1853745   1853666   1854135   1855525  
  9710.000000   1858205   1862257   1867264   1872402   1876591  
  9700.000000   1878905   1878772   1876161   1871484   1865469  
  9690.000000   1858988   1852908   1848055   1845108   1844560  
  9680.000000   1846507   1850573   1855808   1860880   1864356  
  9670.000000   1865170   1862923   1858059   1851673   1845171  
  9660.000000   1839807   1836350   1834958   1835279   1836666  
  9650.000000   1838428   1839939   1840715   1840377   1838659  
  9640.000000   1835465   1830924   1825474   1819743   1814429  
  9630.000000   1810018   1806669   1804196   1802239   1800565  
  9620.000000   1799204   1798569   1799159   1801323   1804925  
  9610.000000   1809261   1813290   1815904   1816444   1814770  
  9600.000000   1811370   1806953   1802233   1797603   1793196  
  9590.000000   1789025   1785276   1782439   1781206   1782204  
  9580.000000   1785579   1790857   1796954   1802602   1806749  
  9570.000000   1808961   1809492   1809076   1808593   1808627  
  9560.000000   1809348   1810468   1811534   1812131   1812066  
  9550.000000   1811357   1810091   1808342   1806084   1803371  
  9540.000000   1800390   1797633   1795702   1795155   1796153  
  9530.000000   1798347   1800910   1802839   1803365   1802234  
  9520.000000   1799815   1796832   1794027   1791761   1789912  
  9510.000000   1787999   1785546   1782426   1779042   1776218  
  9500.000000   1774841   1775473   1778038   1781843   1785784  
  9490.000000   1788798   1790209   1789932   1788399   1786285  
  9480.000000   1784235   1782629   1781575   1780958   1780584  
  9470.000000   1780243   1779746   1778881   1777429   1775212  
  9460.000000   1772214   1768663   1765048   1761985   1760006  
  9450.000000   1759346   1759816   1760905   1761949   1762485  
  9440.000000   1762397   1762046   1762036   1762982   1765150  
  9430.000000   1768322   1771821   1774713   1776113   1775399  
  9420.000000   1772410   1767406   1761021   1754044   1747272  
  9410.000000   1741343   1736649   1733322   1731220   1730039  
  9400.000000   1729371   1728894   1728412   1727985   1727826  
  9390.000000   1728227   1729393   1731283   1733652   1736012  
  9380.000000   1737881   1738818   1738599   1737196   1734782  
  9370.000000   1731678   1728307   1725146   1722680   1721325  
  9360.000000   1721333   1722674   1724965   1727477   1729304  
  9350.000000   1729631   1728035   1724661   1720227   1715787  
  9340.000000   1712438   1710944   1711558   1713940   1717346  
  9330.000000   1720903   1723897   1725977   1727129   1727617  
  9320.000000   1727783   1727969   1728410   1729219   1730381  
  9310.000000   1731747   1733084   1734084   1734429   1733865  
  9300.000000   1732257   1729705   1726482   1723057   1719885  
  9290.000000   1717333   1715556   1714517   1714047   1713921  
  9280.000000   1713895   1713737   1713198   1712060   1710142  
  9270.000000   1707383   1703916   1700124   1696624   1694088  
  9260.000000   1693016   1693509   1695182   1697253   1698781  
  9250.000000   1698966   1697449   1694404   1690524   1686696  
  9240.000000   1683718   1682001   1681498   1681754   1682118  
  9230.000000   1682047   1681332   1680204   1679186   1678911  
  9220.000000   1679813   1681996   1685124   1688500   1691280  
  9210.000000   1692687   1692305   1690099   1686429   1681878  
  9200.000000   1677095   1672639   1668858   1665909   1663813  
  9190.000000   1662548   1662095   1662421   1663422   1664880  
  9180.000000   1666446   1667688   1668208   1667761   1666392  
  9170.000000   1664417   1662380   1660826   1660181   1660618  
  9160.000000   1662067   1664222   1666658   1668937   1670738  
  9150.000000   1671856   1672213   1671816   1670771   1669288  
  9140.000000   1667633   1666128   1665042   1664615   1664957  
  9130.000000   1666087   1667883   1670189   1672781   1675413  
  9120.000000   1677729   1679296   1679635   1678351   1675273  
  9110.000000   1670553   1664725   1658604   1653097   1648921  
  9100.000000   1646380   1645314   1645182   1645282   1644997  
  9090.000000   1644013   1642409   1640548   1638876   1637730  
  9080.000000   1637243   1637322   1637759   1638352   1639052  
  9070.000000   1639943   1641187   1642875   1644946   1647151  
  9060.000000   1649122   1650451   1650847   1650178   1648562  
  9050.000000   1646235   1643533   1640778   1638263   1636217  
  9040.000000   1634765   1633996   1633925   1634559   1635818  
  9030.000000   1637618   1639835   1642340   1644960   1647468  
  9020.000000   1649613   1651088   1651627   1651015   1649226  
  9010.000000   1646426   1643007   1639487   1636420   1634274  
  9000.000000   1633302   1633527   1634693   1636405   1638185  
  8990.000000   1639638   1640511   1640753   1640495   1639966  
  8980.000000   1639411   1638977   1638682   1638395   1637941  
  8970.000000   1637181   1636134   1634989   1634063   1633685  
  8960.000000   1634046   1635094   1636508   1637789   1638441  
  8950.000000   1638149   1636916   1635046   1633058   1631482  
  8940.000000   1630704   1630834   1631723   1633051   1634472  
  8930.000000   1635735   1636720   1637450   1638012   1638521  
  8920.000000   1639055   1639673   1640416   1641318   1642383  
  8910.000000   1643534   1644600   1645326   1645452   1644809  
  8900.000000   1643397   1641429   1639268   1637339   1635967  
  8890.000000   1635302   1635266   1635645   1636183   1636690  
  8880.000000   1637079   1637356   1637554   1637676   1637664  
  8870.000000   1637418   1636879   1636070   1635163   1634392  
  8860.000000   1634007   1634139   1634757   1635668   1636592  
  8850.000000   1637280   1637618   1637665   1637656   1637863  
  8840.000000   1638521   1639680   1641212   1642803   1644086  
  8830.000000   1644749   1644675   1643999   1643088   1642476  
  8820.000000   1642678   1644084   1646782   1650556   1654902  
  8810.000000   1659171   1662745   1665160   1666231   1666024  
  8800.000000   1664819   1662962   1660793   1658561   1656446  
  8790.000000   1654588   1653127   1652239   1652094   1652836  
  8780.000000   1654467   1656867   1659754   1662783   1665592  
  8770.000000   1667892   1669529   1670481   1670871   1670887  
  8760.000000   1670771   1670725   1670913   1671394   1672132  
  8750.000000   1672988   1673778   1674329   1674537   1674421  
  8740.000000   1674109   1673810   1673725   1673984   1674604  
  8730.000000   1675502   1676564   1677703   1678910   1680239  
  8720.000000   1681765   1683502   1685372   1687195   1688775  
  8710.000000   1689971   1690782   1691351   1691913   1692700  
  8700.000000   1693835   1695302   1696962   1698639   1700201  
  8690.000000   1701608   1702903   1704130   1705267   1706182  
  8680.000000   1706681   1706579   1705838   1704613   1703279  
  8670.000000   1702288   1702061   1702801   1704472   1706785  
  8660.000000   1709344   1711745   1713748   1715294   1716534  
  8650.000000   1717734   1719204   1721203   1723894   1727329  
  8640.000000   1731448   1736106   1741084   1746121   1750950  
  8630.000000   1755350   1759177   1762362   1764904   1766812  
  8620.000000   1768120   1768823   1768926   1768465   1767566  
  8610.000000   1766464   1765452   1764871   1764981   1765963  
  8600.000000   1767818   1770461   1773688   1777283   1780976  
  8590.000000   1784513   1787635   1790116   1791801   1792641  
  8580.000000   1792770   1792435   1791978   1791676   1791686  
  8570.000000   1791974   1792345   1792563   1792466   1792093  
  8560.000000   1791670   1791571   1792143   1793588   1795849  
  8550.000000   1798623   1801475   1803956   1805777   1806835  
  8540.000000   1807246   1807248   1807109   1807070   1807293  
  8530.000000   1807905   1808992   1810641   1812891   1815709  
  8520.000000   1818924   1822236   1825240   1827515   1828720  
  8510.000000   1828682   1827458   1825302   1822635   1819937  
  8500.000000   1817677   1816211   1815727   1816226   1817542  
  8490.000000   1819401   1821485   1823513   1825297   1826769  
  8480.000000   1827980   1829040   1830084   1831200   1832444  
  8470.000000   1833832   1835406   1837219   1839347   1841843  
  8460.000000   1844677   1847708   1850667   1853244   1855169  
  8450.000000   1856316   1856749   1856702   1856508   1856471  
  8440.000000   1856768   1857404   1858240   1859081   1859768  
  8430.000000   1860253   1860609   1861004   1861604   1862531  
  8420.000000   1863789   1865312   1866969   1868650   1870281  
  8410.000000   1871853   1873396   1874947   1876513   1878057  
  8400.000000   1879497   1880717   1881603   1882064   1882074  
  8390.000000   1881674   1880976   1880155   1879402   1878900  
  8380.000000   1878753   1878980   1879500   1880184   1880876  
  8370.000000   1881474   1881930   1882280   1882580   1882891  
  8360.000000   1883223   1883552   1883833   1884037   1884175  
  8350.000000   1884288   1884431   1884608   1884759   1884743  
  8340.000000   1884402   1883611   1882368   1880792   1879109  
  8330.000000   1877579   1876422   1875767   1875629   1875957  
  8320.000000   1876676   1877749   1879157   1880893   1882874  
  8310.000000   1884934   1886822   1888263   1889053   1889119  
  8300.000000   1888566   1887619   1886551   1885559   1884715  
  8290.000000   1883946   1883111   1882077   1880799   1879355  
  8280.000000   1877903   1876640   1875689   1875092   1874782  
  8270.000000   1874662   1874650   1874735   1874966   1875407  
  8260.000000   1876075   1876893   1877694   1878257   1878394  
  8250.000000   1878008   1877132   1875918   1874568   1873283  
  8240.000000   1872181   1871312   1870637   1870108   1869665  
  8230.000000   1869288   1868951   1868630   1868243   1867685  
  8220.000000   1866814   1865523   1863761   1861568   1859073  
  8210.000000   1856456   1853915   1851596   1849573   1847825  
  8200.000000   1846263   1844759   1843190   1841481   1839625  
  8190.000000   1837695   1835821   1834167   1832876   1832039  
  8180.000000   1831667   1831692   1831988   1832399   1832778  
  8170.000000   1832999   1832976   1832650   1831991   1830983  
  8160.000000   1829644   1828017   1826192   1824284   1822417  
  8150.000000   1820694   1819160   1817810   1816579   1815402  
  8140.000000   1814232   1813072   1811956   1810923   1809977  
  8130.000000   1809063   1808078   1806902   1805465   1803780  
  8120.000000   1801961   1800200   1798689   1797571   1796877  
  8110.000000   1796536   1796404   1796322   1796171   1795876  
  8100.000000   1795411   1794750   1793854   1792654   1791092  
  8090.000000   1789159   1786945   1784638   1782487   1780731  
  8080.000000   1779511   1778833   1778556   1778458   1778300  
  8070.000000   1777912   1777225   1776271   1775144   1773947  
  8060.000000   1772760   1771613   1770516   1769456   1768430  
  8050.000000   1767428   1766434   1765410   1764303   1763065  
  8040.000000   1761684   1760206   1758730   1757385   1756274  
  8030.000000   1755436   1754821   1754312   1753768   1753087  
  8020.000000   1752252   1751324   1750426   1749662   1749082  
  8010.000000   1748634   1748198   1747620   1746788   1745679  
  8000.000000   1744381   1743067   1741941   1741184   1740886  
  7990.000000   1741038   1741532   1742192   1742822   1743241  
  7980.000000   1743315   1742968   1742188   1741017   1739548  
  7970.000000   1737901   1736223   1734650   1733303   1732258  
  7960.000000   1731543   1731130   1730941   1730872   1730813  
  7950.000000   1730679   1730424   1730057   1729638   1729249  
  7940.000000   1728981   1728884   1728966   1729169   1729402  
  7930.000000   1729556   1729549   1729344   1728966   1728482  
  7920.000000   1727970   1727499   1727092   1726739   1726410  
  7910.000000   1726080   1725761   1725497   1725348   1725359  
  7900.000000   1725520   1725758   1725947   1725956   1725699  
  7890.000000   1725184   1724526   1723907   1723526   1723510  
  7880.000000   1723864   1724453   1725039   1725366   1725241  
  7870.000000   1724616   1723607   1722459   1721462   1720858  
  7860.000000   1720754   1721095   1721681   1722245   1722542  
  7850.000000   1722421   1721872   1721002   1719991   1719018  
  7840.000000   1718210   1717610   1717191   1716883   1716616  
  7830.000000   1716349   1716075   1715817   1715604   1715460  
  7820.000000   1715388   1715376   1715394   1715408   1715381  
  7810.000000   1715275   1715055   1714705   1714228   1713669  
  7800.000000   1713096   1712597   1712240   1712048   1711977  
  7790.000000   1711922   1711736   1711287   1710489   1709345  
  7780.000000   1707937   1706420   1704962   1703715   1702767  
  7770.000000   1702134   1701757   1701531   1701318   1700995  
  7760.000000   1700459   1699663   1698618   1697401   1696133  
  7750.000000   1694958   1694003   1693334   1692943   1692728  
  7740.000000   1692539   1692207   1691609   1690699   1689526  
  7730.000000   1688213   1686915   1685774   1684880   1684258  
  7720.000000   1683881   1683680   1683590   1683543   1683487  
  7710.000000   1683372   1683145   1682766   1682211   1681500  
  7700.000000   1680704   1679943   1679355   1679052   1679080  
  7690.000000   1679388   1679834   1680214   1680330   1680036  
  7680.000000   1679292   1678164   1676805   1675396   1674104  
  7670.000000   1673032   1672218   1671644   1671269   1671060  
  7660.000000   1671009   1671129   1671437   1671919   1672524  
  7650.000000   1673151   1673689   1674028   1674122   1673978  
  7640.000000   1673679   1673341   1673090   1673017   1673165  
  7630.000000   1673523   1674038   1674651   1675306   1675973  
  7620.000000   1676638   1677297   1677939   1678534   1679042  
  7610.000000   1679403   1679570   1679505   1679208   1678712  
  7600.000000   1678091   1677448   1676898   1676554   1676497  
  7590.000000   1676762   1677322   1678098   1678972   1679826  
  7580.000000   1680579   1681201   1681731   1682247   1682847  
  7570.000000   1683593   1684509   1685548   1686635   1687673  
  7560.000000   1688601   1689390   1690067   1690678   1691280  
  7550.000000   1691907   1692579   1693289   1694042   1694844  
  7540.000000   1695736   1696758   1697958   1699348   1700913  
  7530.000000   1702599   1704337   1706060   1707733   1709350  
  7520.000000   1710947   1712571   1714279   1716096   1718026  
  7510.000000   1720031   1722059   1724037   1725908   1727619  
  7500.000000   1729150   1730501   1731714   1732850   1734002  
  7490.000000   1735259   1736714   1738416   1740384   1742573  
  7480.000000   1744905   1747280   1749613   1751854   1754014  
  7470.000000   1756150   1758357   1760718   1763286   1766044  
  7460.000000   1768934   1771841   1774665   1777320   1779786  
  7450.000000   1782088   1784296   1786486   1788728   1791069  
  7440.000000   1793537   1796140   1798885   1801773   1804799  
  7430.000000   1807939   1811143   1814339   1817447   1820407  
  7420.000000   1823191   1825818   1828347   1830848   1833389  
  7410.000000   1836004   1838698   1841447   1844213   1846965  
  7400.000000   1849681   1852352   1854971   1857533   1860034  
  7390.000000   1862476   1864877   1867271   1869698   1872195  
  7380.000000   1874775   1877428   1880121   1882818   1885502  
  7370.000000   1888183   1890894   1893672   1896528   1899438  
  7360.000000   1902337   1905152   1907827   1910354   1912785  
  7350.000000   1915211   1917727   1920389   1923183   1926034  
  7340.000000   1928832   1931486   1933954   1936266   1938497  
  7330.000000   1940739   1943049   1945433   1947833   1950164  
  7320.000000   1952338   1954314   1956097   1957744   1959336  
  7310.000000   1960952   1962632   1964386   1966178   1967967  
  7300.000000   1969707   1971381   1972995   1974579   1976168  
  7290.000000   1977797   1979479   1981208   1982948   1984652  
  7280.000000   1986270   1987759   1989104   1990310   1991415  
  7270.000000   1992467   1993519   1994603   1995739   1996925  
  7260.000000   1998153   1999417   2000730   2002113   2003603  
  7250.000000   2005221   2006984   2008873   2010863   2012898  
  7240.000000   2014945   2016962   2018946   2020897   2022850  
  7230.000000   2024836   2026918   2029139   2031568   2034236  
  7220.000000   2037176   2040371   2043796   2047383   2051077  
  7210.000000   2054811   2058564   2062323   2066124   2069992  
  7200.000000   2073975   2078080   2082327   2086697   2091192  
  7190.000000   2095787   2100484   2105259   2110105   2114988  
  7180.000000   2119898   2124808   2129732   2134682   2139707  
  7170.000000   2144844   2150146   2155629   2161307   2167154  
  7160.000000   2173142   2179216   2185344   2191477   2197608  
  7150.000000   2203721   2209848   2216003   2222240   2228572  
  7140.000000   2235029   2241594   2248268   2255033   2261914  
  7130.000000   2268940   2276185   2283695   2291516   2299622  
  7120.000000   2307963   2316428   2324927   2333373   2341750  
  7110.000000   2350059   2358350   2366650   2374988   2383352  
  7100.000000   2391754   2400197   2408735   2417418   2426302  
  7090.000000   2435387   2444627   2453917   2463145   2472227  
  7080.000000   2481158   2490001   2498882   2507920   2517187  
  7070.000000   2526663   2536253   2545813   2555222   2564414  
  7060.000000   2573402   2582256   2591067   2599902   2608780  
  7050.000000   2617676   2626536   2635311   2643976   2652540  
  7040.000000   2661027   2669469   2677880   2686272   2694640  
  7030.000000   2702992   2711327   2719658   2727972   2736250  
  7020.000000   2744444   2752512   2760412   2768138   2775691  
  7010.000000   2783100   2790375   2797528   2804540   2811406  
  7000.000000   2818114   2824694   2831178   2837621   2844042  
  6990.000000   2850455   2856814   2863080   2869190   2875127  
  6980.000000   2880875   2886464   2891910   2897242   2902451  
  6970.000000   2907548   2912518   2917388   2922169   2926903  
  6960.000000   2931594   2936243   2940801   2945217   2949417  
  6950.000000   2953366   2957032   2960434   2963597   2966577  
  6940.000000   2969416   2972178   2974899   2977625   2980364  
  6930.000000   2983119   2985849   2988513   2991051   2993437  
  6920.000000   2995657   2997745   2999739   3001689   3003611  
  6910.000000   3005504   3007340   3009095   3010757   3012350  
  6900.000000   3013914   3015508   3017172   3018926   3020751  
  6890.000000   3022616   3024479   3026311   3028093   3029821  
  6880.000000   3031490   3033098   3034634   3036093   3037474  
  6870.000000   3038789   3040052   3041274   3042457   3043597  
  6860.000000   3044682   3045723   3046743   3047793   3048923  
  6850.000000   3050178   3051566   3053061   3054602   3056122  
  6840.000000   3057559   3058881   3060076   3061157   3062139  
  6830.000000   3063035   3063851   3064598   3065290   3065954  
  6820.000000   3066613   3067289   3067974   3068653   3069286  
  6810.000000   3069852   3070333   3070745   3071104   3071438  
  6800.000000   3071744   3072010   3072200   3072296   3072289  
  6790.000000   3072211   3072108   3072035   3072025   3072082  
  6780.000000   3072172   3072248   3072251   3072147   3071913  
  6770.000000   3071556   3071088   3070536   3069920   3069274  
  6760.000000   3068627   3068017   3067464   3066978   3066538  
  6750.000000   3066110   3065647   3065118   3064503   3063810  
  6740.000000   3063055   3062256   3061415   3060531   3059599  
  6730.000000   3058630   3057660   3056743   3055930   3055251  
  6720.000000   3054685   3054173   3053625   3052965   3052151  
  6710.000000   3051198   3050164   3049123   3048132   3047207  
  6700.000000   3046315   3045400   3044397   3043274   3042028  
  6690.000000   3040703   3039353   3038043   3036812   3035685  
  6680.000000   3034652   3033695   3032768   3031822   3030792  
  6670.000000   3029626   3028283   3026759   3025079   3023307  
  6660.000000   3021511   3019751   3018048   3016387   3014715  
  6650.000000   3012983   3011152   3009232   3007259   3005302  
  6640.000000   3003414   3001627   2999927   2998273   2996603  
  6630.000000   2994865   2993031   2991110   2989132   2987149  
  6620.000000   2985206   2983337   2981550   2979830   2978138  
  6610.000000   2976429   2974653   2972785   2970823   2968800  
  6600.000000   2966767   2964787   2962904   2961126   2959422  
  6590.000000   2957728   2955972   2954094   2952072   2949925  
  6580.000000   2947708   2945487   2943324   2941259   2939304  
  6570.000000   2937453   2935685   2933982   2932325   2930702  
  6560.000000   2929104   2927520   2925942   2924363   2922775  
  6550.000000   2921168   2919532   2917850   2916115   2914325  
  6540.000000   2912503   2910687   2908929   2907272   2905733  
  6530.000000   2904298   2902925   2901564   2900184   2898791  
  6520.000000   2897430   2896164   2895048   2894094   2893269  
  6510.000000   2892489   2891662   2890710   2889607   2888371  
  6500.000000   2887059   2885734   2884443   2883204   2882010  
  6490.000000   2880845   2879703   2878596   2877544   2876568  
  6480.000000   2875668   2874825   2874002   2873162   2872278  
  6470.000000   2871340   2870356   2869331   2868272   2867174  
  6460.000000   2866038   2864877   2863725   2862634   2861655  
  6450.000000   2860819   2860119   2859514   2858934   2858309  
  6440.000000   2857593   2856769   2855855   2854884   2853894  
  6430.000000   2852906   2851938   2850995   2850091   2849239  
  6420.000000   2848456   2847743   2847087   2846457   2845819  
  6410.000000   2845151   2844456   2843764   2843121   2842567  
  6400.000000   2842126   2841785   2841513   2841266   2841010  
  6390.000000   2840727   2840417   2840085   2839736   2839364  
  6380.000000   2838959   2838512   2838027   2837524   2837025  
  6370.000000   2836548   2836090   2835628   2835127   2834556  
  6360.000000   2833904   2833188   2832447   2831727   2831063  
  6350.000000   2830468   2829932   2829437   2828959   2828485  
  6340.000000   2828010   2827529   2827031   2826499   2825908  
  6330.000000   2825246   2824511   2823726   2822924   2822142  
  6320.000000   2821400   2820703   2820028   2819350   2818632  
  6310.000000   2817849   2816976   2815996   2814882   2813618  
  6300.000000   2812184   2810592   2808865   2807063   2805248  
  6290.000000   2803485   2801801   2800207   2798670   2797155  
  6280.000000   2795609   2794004   2792308   2790517   2788617  
  6270.000000   2786613   2784505   2782315   2780068   2777806  
  6260.000000   2775566   2773371   2771218   2769083   2766920  
  6250.000000   2764691   2762364   2759940   2757435   2754886  
  6240.000000   2752329   2749801   2747327   2744928   2742619  
  6230.000000   2740406   2738282   2736222   2734183   2732116  
  6220.000000   2729973   2727731   2725390   2722978   2720538  
  6210.000000   2718110   2715720   2713373   2711060   2708769  
  6200.000000   2706493   2704235   2702002   2699800   2697621  
  6190.000000   2695448   2693263   2691055   2688832   2686616  
  6180.000000   2684439   2682328   2680293   2678327   2676413  
  6170.000000   2674531   2672668   2670824   2669002   2667200  
  6160.000000   2665403   2663586   2661721   2659789   2657796  
  6150.000000   2655765   2653741   2651761   2649854   2648024  
  6140.000000   2646256   2644529   2642825   2641133   2639458  
  6130.000000   2637804   2636179   2634581   2633010   2631466  
  6120.000000   2629961   2628510   2627133   2625834   2624605  
  6110.000000   2623413   2622226   2621007   2619744   2618439  
  6100.000000   2617123   2615827   2614589   2613428   2612358  
  6090.000000   2611380   2610498   2609710   2609021   2608423  
  6080.000000   2607907   2607449   2607030   2606627   2606237  
  6070.000000   2605860   2605514   2605210   2604967   2604782  
  6060.000000   2604664   2604607   2604619   2604700   2604861  
  6050.000000   2605096   2605403   2605762   2606168   2606609  
  6040.000000   2607094   2607628   2608229   2608897   2609637  
  6030.000000   2610436   2611295   2612215   2613219   2614325  
  6020.000000   2615552   2616892   2618320   2619780   2621221  
  6010.000000   2622596   2623893   2625117   2626309   2627499  
  6000.000000   2628719   2629973   2631257   2632552   2633857  
  5990.000000   2635171   2636520   2637921   2639402   2640966  
  5980.000000   2642619   2644354   2646174   2648082   2650098  
  5970.000000   2652228   2654485   2656856   2659330   2661879  
  5960.000000   2664490   2667139   2669828   2672540   2675278  
  5950.000000   2678024   2680779   2683536   2686309   2689115  
  5940.000000   2691985   2694940   2697999   2701164   2704425  
  5930.000000   2707766   2711162   2714591   2718021   2721417  
  5920.000000   2724736   2727931   2730966   2733818   2736491  
  5910.000000   2739008   2741411   2743740   2746035   2748321  
  5900.000000   2750616   2752938   2755305   2757744   2760276  
  5890.000000   2762918   2765664   2768499   2771388   2774298  
  5880.000000   2777195   2780054   2782855   2785578   2788205  
  5870.000000   2790716   2793104   2795376   2797560   2799700  
  5860.000000   2801845   2804033   2806281   2808583   2810923  
  5850.000000   2813280   2815651   2818043   2820477   2822974  
  5840.000000   2825547   2828196   2830915   2833699   2836551  
  5830.000000   2839480   2842492   2845575   2848693   2851785  
  5820.000000   2854780   2857623   2860283   2862778   2865149  
  5810.000000   2867464   2869770   2872106   2874460   2876824  
  5800.000000   2879151   2881425   2883606   2885690   2887636  
  5790.000000   2889432   2891027   2892406   2893533   2894410  
  5780.000000   2895020   2895366   2895419   2895162   2894564  
  5770.000000   2893631   2892386   2890911   2889298   2887664  
  5760.000000   2886095   2884662   2883386   2882274   2881308  
  5750.000000   2880482   2879786   2879220   2878777   2878441  
  5740.000000   2878192   2878005   2877868   2877767   2877706  
  5730.000000   2877673   2877666   2877660   2877650   2877627  
  5720.000000   2877616   2877650   2877778   2878026   2878404  
  5710.000000   2878879   2879408   2879934   2880429   2880890  
  5700.000000   2881347   2881841   2882411   2883075   2883824  
  5690.000000   2884639   2885489   2886356   2887225   2888090  
  5680.000000   2888926   2889710   2890397   2890956   2891359  
  5670.000000   2891608   2891713   2891697   2891564   2891310  
  5660.000000   2890907   2890341   2889601   2888722   2887750  
  5650.000000   2886757   2885791   2884886   2884032   2883205  
  5640.000000   2882368   2881501   2880600   2879682   2878770  
  5630.000000   2877885   2877034   2876217   2875433   2874682  
  5620.000000   2873974   2873317   2872717   2872164   2871636  
  5610.000000   2871107   2870549   2869953   2869320   2868670  
  5600.000000   2868019   2867384   2866765   2866161   2865558  
  5590.000000   2864947   2864311   2863636   2862893   2862057  
  5580.000000   2861097   2860001   2858770   2857436   2856036  
  5570.000000   2854618   2853211   2851832   2850473   2849123  
  5560.000000   2847769   2846411   2845053   2843704   2842365  
  5550.000000   2841031   2839689   2838333   2836968   2835616  
  5540.000000   2834310   2833075   2831921   2830830   2829769  
  5530.000000   2828698   2827593   2826448   2825284   2824132  
  5520.000000   2823018   2821952   2820923   2819909   2818884  
  5510.000000   2817836   2816762   2815675   2814585   2813500  
  5500.000000   2812420   2811341   2810254   2809159   2808053  
  5490.000000   2806933   2805785   2804590   2803324   2801977  
  5480.000000   2800550   2799069   2797565   2796071   2794598  
  5470.000000   2793138   2791656   2790121   2788497   2786777  
  5460.000000   2784958   2783056   2781077   2779023   2776892  
  5450.000000   2774690   2772433   2770159   2767913   2765737  
  5440.000000   2763649   2761647   2759713   2757825   2755976  
  5430.000000   2754168   2752420   2750733   2749101   2747491  
  5420.000000   2745882   2744256   2742649   2741115   2739748  
  5410.000000   2738611   2737747   2737124   2736695   2736376  
  5400.000000   2736127   2735918   2735783   2735745   2735856  
  5390.000000   2736116   2736535   2737076   2737746   2738536  
  5380.000000   2739494   2740640   2742020   2743617   2745431  
  5370.000000   2747401   2749523   2751753   2754131   2756648  
  5360.000000   2759366   2762277   2765444   2768857   2772605  
  5350.000000   2776705   2781274   2786327   2791949   2798091  
  5340.000000   2804781   2811929   2819569   2827638   2836211  
  5330.000000   2845243   2854810   2864842   2875395   2886401  
  5320.000000   2897958   2910053   2922853   2936375   2950780  
  5310.000000   2966031   2982209   2999199   3017036   3035606  
  5300.000000   3054988   3075138   3096207   3118208   3141301  
  5290.000000   3165467   3190770   3217070   3244290   3272203  
  5280.000000   3300712   3329673   3359133   3389120   3419791  
  5270.000000   3451199   3483367   3516141   3549283   3582494  
  5260.000000   3615511   3648206   3680560   3712692   3744687  
  5250.000000   3776626   3808391   3839832   3870621   3900576  
  5240.000000   3929464   3957330   3984170   4010206   4035486  
  5230.000000   4060178   4084188   4107519   4129947   4151431  
  5220.000000   4171799   4191140   4209431   4226893   4243564  
  5210.000000   4259641   4275061   4289870   4303867   4317022  
  5200.000000   4329155   4340339   4350535   4359927   4368527  
  5190.000000   4376485   4383731   4390320   4396130   4401215  
  5180.000000   4405507   4409124   4412043   4414378   4416072  
  5170.000000   4417181   4417627   4417477   4416704   4415428  
  5160.000000   4413658   4411503   4408927   4405974   4402568  
  5150.000000   4398744   4394468   4389819   4384807   4379518  
  5140.000000   4373945   4368140   4362077   4355800   4349305  
  5130.000000   4342658   4335867   4328981   4321981   4314875  
  5120.000000   4307626   4300248   4292733   4285126   4277442  
  5110.000000   4269718   4261947   4254132   4246249   4238306  
  5100.000000   4230304   4222284   4214270   4206301   4198382  
  5090.000000   4190519   4182691   4174894   4167114   4159356  
  5080.000000   4151612   4143877   4136122   4128324   4120444  
  5070.000000   4112469   4104390   4096227   4087999   4079732  
  5060.000000   4071435   4063119   4054773   4046405   4038012  
  5050.000000   4029613   4021217   4012840   4004482   3996138  
  5040.000000   3987800   3979463   3971131   3962816   3954536  
  5030.000000   3946301   3938120   3929987   3921900   3913853  
  5020.000000   3905861   3897941   3890136   3882472   3874992  
  5010.000000   3867701   3860617   3853718   3847006   3840449  
  5000.000000   3834057   3827808   3821729   3815810   3810093  
  4990.000000   3804577   3799310   3794290   3789561   3785099  
  4980.000000   3780934   3777024   3773390   3769997   3766884  
  4970.000000   3764041   3761535   3759370   3757618   3756272  
  4960.000000   3755380   3754907   3754880   3755242   3756009  
  4950.000000   3757115   3758575   3760327   3762395   3764733  
  4940.000000   3767388   3770340   3773651   3777306   3781358  
  4930.000000   3785770   3790565   3795684   3801134   3806858  
  4920.000000   3812870   3819134   3825680   3832485   3839589  
  4910.000000   3846974   3854676   3862671   3870975   3879545  
  4900.000000   3888367   3897382   3906561   3915855   3925250  
  4890.000000   3934725   3944280   3953901   3963568   3973243  
  4880.000000   3982876   3992419   4001819   4011053   4020089  
  4870.000000   4028925   4037535   4045918   4054034   4061879  
  4860.000000   4069417   4076661   4083598   4090265   4096661  
  4850.000000   4102832   4108778   4114541   4120120   4125557  
  4840.000000   4130847   4136022   4141066   4145995   4150785  
  4830.000000   4155450   4159969   4164367   4168630   4172778  
  4820.000000   4176792   4180675   4184403   4187981   4191400  
  4810.000000   4194686   4197847   4200915   4203893   4206800  
  4800.000000   4209624   4212374   4215044   4217651   4220200  
  4790.000000   4222710   4225175   4227600   4229963   4232260  
  4780.000000   4234477   4236625   4238707   4240745   4242737  
  4770.000000   4244691   4246584   4248406   4250125   4251735  
  4760.000000   4253212   4254561   4255762   4256820   4257709  
  4750.000000   4258429   4258956   4259300   4259446   4259413  
  4740.000000   4259190   4258797   4258220   4257476   4256557  
  4730.000000   4255481   4254245   4252870   4251353   4249711  
  4720.000000   4247941   4246067   4244100   4242083   4240045  
  4710.000000   4238031   4236068   4234179   4232364   4230616  
  4700.000000   4228911   4227227   4225536   4223819   4222060  
  4690.000000   4220250   4218389   4216486   4214556   4212621  
  4680.000000   4210705   4208821   4206978   4205168   4203379  
  4670.000000   4201587   4199782   4197952   4196114   4194280  
  4660.000000   4192486   4190756   4189126   4187615   4186250  
  4650.000000   4185043   4184017   4183179   4182538   4182083  
  4640.000000   4181800   4181655   4181615   4181640   4181704  
  4630.000000   4181777   4181850   4181908   4181945   4181948  
  4620.000000   4181907   4181801   4181619   4181344   4180973  
  4610.000000   4180504   4179946   4179315   4178629   4177917  
  4600.000000   4177197   4176497   4175827   4175203   4174621  
  4590.000000   4174084   4173575   4173087   4172598   4172092  
  4580.000000   4171546   4170946   4170273   4169524   4168693  
  4570.000000   4167789   4166812   4165771   4164660   4163475  
  4560.000000   4162199   4160828   4159352   4157783   4156130  
  4550.000000   4154412   4152641   4150824   4148956   4147027  
  4540.000000   4145031   4142967   4140853   4138717   4136602  
  4530.000000   4134544   4132589   4130752   4129062   4127511  
  4520.000000   4126121   4124874   4123799   4122877   4122154  
  4510.000000   4121614   4121326   4121289   4121597   4122262  
  4500.000000   4123390   4124988   4127154   4129878   4133253  
  4490.000000   4137260   4141996   4147444   4153688   4160690  
  4480.000000   4168499   4177036   4186311   4196225   4206781  
  4470.000000   4217891   4229567   4241730   4254388   4267458  
  4460.000000   4280927   4294701   4308748   4322970   4337323  
  4450.000000   4351715   4366103   4380424   4394659   4408799  
  4440.000000   4422861   4436878   4450866   4464856   4478820  
  4430.000000   4492755   4506586   4520294   4533786   4547054  
  4420.000000   4559997   4572608   4584770   4596462   4607543  
  4410.000000   4617979   4627624   4636450   4644329   4651260  
  4400.000000   4657159   4662081   4666008   4669057   4671279  
  4390.000000   4672830   4673792   4674318   4674482   4674403  
  4380.000000   4674137   4673780   4673389   4673059   4672869  
  4370.000000   4672918   4673298   4674096   4675393   4677237  
  4360.000000   4679671   4682691   4686282   4690386   4694933  
  4350.000000   4699836   4705011   4710390   4715924   4721594  
  4340.000000   4727380   4733263   4739171   4744984   4750502  
  4330.000000   4755476   4759626   4762714   4764575   4765195  
  4320.000000   4764692   4763349   4761512   4759586   4757892  
  4310.000000   4756695   4756088   4756090   4756585   4757451  
  4300.000000   4758519   4759674   4760809   4761871   4762819  
  4290.000000   4763639   4764328   4764892   4765352   4765740  
  4280.000000   4766093   4766458   4766866   4767361   4767946  
  4270.000000   4768644   4769423   4770257   4771053   4771711  
  4260.000000   4772073   4771992   4771317   4769965   4767906  
  4250.000000   4765215   4762021   4758524   4754913   4751383  
  4240.000000   4748052   4745008   4742250   4739763   4737474  
  4230.000000   4735325   4733231   4731126   4728943   4726631  
  4220.000000   4724161   4721519   4718736   4715848   4712935  
  4210.000000   4710061   4707311   4704733   4702384   4700278  
  4200.000000   4698442   4696866   4695555   4694474   4693616  
  4190.000000   4692927   4692403   4691996   4691734   4691601  
  4180.000000   4691664   4691931   4692487   4693337   4694562  
  4170.000000   4696167   4698237   4700783   4703898   4707582  
  4160.000000   4711900   4716807   4722322   4728356   4734912  
  4150.000000   4741901   4749351   4757200   4765500   4774210  
  4140.000000   4783395   4793022   4803163   4813794   4824984  
  4130.000000   4836701   4848986   4861777   4875079   4888811  
  4120.000000   4902967   4917481   4932370   4947601   4963212  
  4110.000000   4979184   4995551   5012280   5029376   5046783  
  4100.000000   5064477   5082391   5100494   5118736   5137107  
  4090.000000   5155594   5174203   5192944   5211818   5230827  
  4080.000000   5249948   5269169   5288444   5307751   5327019  
  4070.000000   5346209   5365225   5384026   5402519   5420703  
  4060.000000   5438523   5456028   5473177   5490027   5506508  
  4050.000000   5522658   5538383   5553729   5568601   5583049  
  4040.000000   5596950   5610308   5622941   5634817   5645748  
  4030.000000   5655749   5664700   5672678   5679618   5685598  
  4020.000000   5690514   5694434   5697312   5699238   5700153  
  4010.000000   5700234   5699574   5698247   5696046   5693092  
  4000.000000   5689757  
##END= 
