##TITLE= Sample 004 By ssteindl date Montag, November 26 2018
##JCAMP-DX= 4.24
##DATA TYPE= INFRARED SPECTRUM
##ORIGIN= Exported PE Spectrum Data File
##OWNER= Sandra Steindl
##DATE= 18/11/26
##TIME= 12:07:01.00
##SPECTROMETER/DATA SYSTEM= PERKIN-ELMER Frontier FT-IR/NIR IR
##INSTRUMENT PARAMETERS=
  APODIZATION=stark
  DETECTOR=INGAAS
##RESOLUTION= 16.000000
##DELTAX= -2.000000
##XUNITS= 1/CM
##YUNITS= A
##XFACTOR= 1.00
##YFACTOR= 0.00000011920928955078
##FIRSTX= 10000.00
##LASTX= 4000.00
##NPOINTS= 3001
##FIRSTY= 0.271297
##MAXY= 0.627233
##MINY= 0.221066
##XYDATA= (X++(Y..Y))
 10000.000000   2275801   2268261   2262023   2258812   2258976  
  9990.000000   2261548   2265542   2270164   2274624   2278170  
  9980.000000   2280487   2281609   2281740   2281194   2280562  
  9970.000000   2280583   2281983   2285175   2290010   2295634  
  9960.000000   2300647   2303502   2303058   2299017   2292129  
  9950.000000   2283948   2276311   2270667   2267570   2266586  
  9940.000000   2266565   2266293   2265013   2262835   2260557  
  9930.000000   2259362   2260125   2263106   2267709   2272782  
  9920.000000   2277047   2279543   2279974   2278565   2275930  
  9910.000000   2272600   2268909   2264876   2260408   2255476  
  9900.000000   2250268   2245215   2240844   2237648   2235907  
  9890.000000   2235693   2236863   2239166   2242268   2245774  
  9880.000000   2249210   2252021   2253670   2253781   2252341  
  9870.000000   2249775   2246933   2244808   2244275   2245703  
  9860.000000   2248843   2252819   2256406   2258433   2258124  
  9850.000000   2255414   2250841   2245469   2240449   2236847  
  9840.000000   2235328   2236112   2238918   2243026   2247440  
  9830.000000   2251021   2252756   2251890   2248122   2241655  
  9820.000000   2233216   2223924   2215083   2207911   2203288  
  9810.000000   2201615   2202748   2206116   2210841   2215969  
  9800.000000   2220599   2224047   2225873   2225915   2224264  
  9790.000000   2221224   2217315   2213159   2209455   2206772  
  9780.000000   2205497   2205659   2206938   2208692   2210090  
  9770.000000   2210340   2208879   2205583   2200803   2195319  
  9760.000000   2190141   2186263   2184379   2184747   2187089  
  9750.000000   2190732   2194761   2198299   2200716   2201760  
  9740.000000   2201570   2200497   2198940   2197087   2194912  
  9730.000000   2192144   2188560   2184074   2179001   2173962  
  9720.000000   2169793   2167275   2166833   2168434   2171496  
  9710.000000   2175191   2178674   2181479   2183618   2185563  
  9700.000000   2187944   2191213   2195367   2199855   2203804  
  9690.000000   2206267   2206666   2204880   2201319   2196645  
  9680.000000   2191532   2186452   2181603   2177069   2172940  
  9670.000000   2169541   2167319   2166782   2168125   2171161  
  9660.000000   2175197   2179303   2182577   2184442   2184843  
  9650.000000   2184093   2182743   2181149   2179411   2177257  
  9640.000000   2174369   2170591   2166207   2161922   2158625  
  9630.000000   2157099   2157634   2160024   2163582   2167528  
  9620.000000   2171194   2174248   2176648   2178477   2179792  
  9610.000000   2180465   2180280   2179000   2176593   2173270  
  9600.000000   2169494   2165794   2162587   2160061   2158166  
  9590.000000   2156776   2155792   2155258   2155265   2155850  
  9580.000000   2156846   2157874   2158444   2158169   2156955  
  9570.000000   2155094   2153179   2151885   2151693   2152685  
  9560.000000   2154511   2156539   2158107   2158770   2158411  
  9550.000000   2157197   2155408   2153273   2150871   2148180  
  9540.000000   2145181   2141977   2138837   2136121   2134153  
  9530.000000   2133083   2132787   2132931   2133033   2132689  
  9520.000000   2131662   2129999   2127978   2126006   2124494  
  9510.000000   2123703   2123696   2124286   2125108   2125657  
  9500.000000   2125449   2124113   2121569   2118052   2114104  
  9490.000000   2110416   2107592   2105983   2105554   2105964  
  9480.000000   2106734   2107449   2107949   2108330   2108861  
  9470.000000   2109743   2110921   2111999   2112377   2111516  
  9460.000000   2109268   2106021   2102661   2100259   2099682  
  9450.000000   2101267   2104658   2108957   2112979   2115691  
  9440.000000   2116487   2115377   2112882   2109810   2106954  
  9430.000000   2104853   2103716   2103420   2103633   2103906  
  9420.000000   2103782   2102917   2101099   2098403   2095108  
  9410.000000   2091775   2089040   2087494   2087471   2088896  
  9400.000000   2091325   2093974   2095968   2096504   2095071  
  9390.000000   2091578   2086389   2080248   2074135   2069034  
  9380.000000   2065792   2064902   2066428   2069893   2074342  
  9370.000000   2078534   2081253   2081686   2079663   2075747  
  9360.000000   2071078   2067041   2064857   2065165   2067837  
  9350.000000   2072018   2076466   2079967   2081699   2081426  
  9340.000000   2079438   2076414   2073117   2070204   2068029  
  9330.000000   2066653   2065901   2065512   2065240   2064881  
  9320.000000   2064289   2063344   2062001   2060264   2058234  
  9310.000000   2056021   2053768   2051543   2049391   2047297  
  9300.000000   2045290   2043504   2042240   2041974   2043183  
  9290.000000   2046222   2051062   2057282   2064042   2070333  
  9280.000000   2075221   2078101   2078893   2077910   2075775  
  9270.000000   2073064   2070182   2067182   2063865   2059949  
  9260.000000   2055313   2050216   2045236   2041213   2038858  
  9250.000000   2038658   2040571   2044138   2048515   2052789  
  9240.000000   2056195   2058266   2058878   2058126   2056272  
  9230.000000   2053569   2050301   2046688   2043027   2039602  
  9220.000000   2036733   2034608   2033233   2032406   2031774  
  9210.000000   2031045   2030083   2029048   2028316   2028400  
  9200.000000   2029725   2032429   2036265   2040648   2044873  
  9190.000000   2048281   2050475   2051336   2051057   2049968  
  9180.000000   2048429   2046706   2044956   2043280   2041766  
  9170.000000   2040552   2039764   2039532   2039854   2040668  
  9160.000000   2041770   2042956   2043991   2044718   2045022  
  9150.000000   2044827   2044073   2042700   2040702   2038130  
  9140.000000   2035133   2031934   2028799   2025972   2023624  
  9130.000000   2021820   2020532   2019681   2019165   2018875  
  9120.000000   2018685   2018465   2018101   2017533   2016795  
  9110.000000   2016046   2015551   2015595   2016355   2017797  
  9100.000000   2019649   2021461   2022758   2023186   2022649  
  9090.000000   2021305   2019495   2017575   2015763   2014102  
  9080.000000   2012467   2010712   2008785   2006826   2005151  
  9070.000000   2004112   2003922   2004526   2005580   2006533  
  9060.000000   2006816   2006035   2004151   2001471   1998572  
  9050.000000   1996101   1994605   1994369   1995356   1997260  
  9040.000000   1999601   2001893   2003723   2004867   2005267  
  9030.000000   2005049   2004418   2003612   2002830   2002161  
  9020.000000   2001597   2000989   2000149   1998833   1996858  
  9010.000000   1994129   1990714   1986833   1982839   1979189  
  9000.000000   1976350   1974719   1974499   1975692   1978068  
  8990.000000   1981239   1984693   1987967   1990725   1992815  
  8980.000000   1994248   1995116   1995563   1995638   1995327  
  8970.000000   1994502   1993083   1991023   1988400   1985405  
  8960.000000   1982303   1979410   1976953   1975147   1974101  
  8950.000000   1973922   1974623   1976160   1978370   1980934  
  8940.000000   1983406   1985248   1986006   1985359   1983277  
  8930.000000   1980002   1976071   1972144   1968878   1966787  
  8920.000000   1966163   1967050   1969219   1972277   1975709  
  8910.000000   1979012   1981736   1983580   1984438   1984388  
  8900.000000   1983670   1982562   1981349   1980198   1979178  
  8890.000000   1978244   1977321   1976379   1975457   1974703  
  8880.000000   1974263   1974271   1974732   1975552   1976529  
  8870.000000   1977442   1978111   1978429   1978390   1978021  
  8860.000000   1977390   1976530   1975474   1974254   1972951  
  8850.000000   1971691   1970637   1969936   1969692   1969920  
  8840.000000   1970556   1971478   1972535   1973597   1974550  
  8830.000000   1975330   1975912   1976327   1976660   1977048  
  8820.000000   1977656   1978623   1980000   1981685   1983415  
  8810.000000   1984818   1985521   1985277   1984053   1982058  
  8800.000000   1979695   1977429   1975651   1974554   1974088  
  8790.000000   1974012   1973984   1973718   1973067   1972098  
  8780.000000   1971050   1970260   1970050   1970612   1971952  
  8770.000000   1973857   1975965   1977834   1979084   1979479  
  8760.000000   1979028   1977968   1976716   1975740   1975420  
  8750.000000   1975934   1977195   1978894   1980593   1981891  
  8740.000000   1982552   1982569   1982145   1981581   1981146  
  8730.000000   1980960   1980948   1980884   1980505   1979646  
  8720.000000   1978342   1976855   1975588   1974962   1975242  
  8710.000000   1976452   1978329   1980423   1982228   1983334  
  8700.000000   1983563   1982973   1981849   1980553   1979424  
  8690.000000   1978649   1978264   1978159   1978197   1978265  
  8680.000000   1978355   1978543   1978954   1979699   1980806  
  8670.000000   1982227   1983848   1985549   1987245   1988902  
  8660.000000   1990540   1992187   1993852   1995499   1997069  
  8650.000000   1998497   1999747   2000821   2001732   2002489  
  8640.000000   2003060   2003404   2003485   2003343   2003099  
  8630.000000   2002955   2003110   2003683   2004628   2005726  
  8620.000000   2006644   2007039   2006712   2005668   2004150  
  8610.000000   2002531   2001198   2000424   2000313   2000812  
  8600.000000   2001774   2003076   2004648   2006494   2008598  
  8590.000000   2010893   2013207   2015294   2016918   2017914  
  8580.000000   2018305   2018218   2017866   2017387   2016829  
  8570.000000   2016117   2015135   2013857   2012418   2011159  
  8560.000000   2010509   2010881   2012474   2015204   2018655  
  8550.000000   2022231   2025321   2027472   2028508   2028518  
  8540.000000   2027823   2026804   2025814   2025057   2024605  
  8530.000000   2024399   2024335   2024316   2024302   2024325  
  8520.000000   2024472   2024857   2025567   2026646   2028050  
  8510.000000   2029661   2031298   2032775   2033972   2034880  
  8500.000000   2035634   2036465   2037631   2039302   2041477  
  8490.000000   2043949   2046350   2048260   2049345   2049484  
  8480.000000   2048809   2047674   2046511   2045716   2045509  
  8470.000000   2045897   2046678   2047546   2048204   2048457  
  8460.000000   2048256   2047688   2046920   2046142   2045496  
  8450.000000   2045072   2044900   2044988   2045329   2045928  
  8440.000000   2046782   2047885   2049202   2050670   2052184  
  8430.000000   2053619   2054843   2055719   2056137   2056009  
  8420.000000   2055328   2054149   2052626   2050970   2049435  
  8410.000000   2048252   2047578   2047465   2047833   2048533  
  8400.000000   2049369   2050196   2050943   2051644   2052392  
  8390.000000   2053300   2054422   2055732   2057110   2058382  
  8380.000000   2059379   2059983   2060170   2059997   2059575  
  8370.000000   2059015   2058392   2057737   2057037   2056277  
  8360.000000   2055447   2054579   2053725   2052960   2052338  
  8350.000000   2051899   2051641   2051541   2051549   2051599  
  8340.000000   2051607   2051476   2051126   2050503   2049620  
  8330.000000   2048555   2047451   2046476   2045769   2045399  
  8320.000000   2045334   2045472   2045681   2045869   2046022  
  8310.000000   2046193   2046467   2046885   2047401   2047858  
  8300.000000   2048048   2047783   2046997   2045799   2044451  
  8290.000000   2043299   2042632   2042615   2043207   2044210  
  8280.000000   2045318   2046229   2046724   2046705   2046186  
  8270.000000   2045239   2043963   2042443   2040771   2039050  
  8260.000000   2037409   2036003   2034972   2034422   2034363  
  8250.000000   2034744   2035439   2036327   2037287   2038228  
  8240.000000   2039057   2039656   2039877   2039546   2038524  
  8230.000000   2036760   2034356   2031570   2028763   2026311  
  8220.000000   2024475   2023346   2022796   2022560   2022295  
  8210.000000   2021722   2020692   2019218   2017439   2015546  
  8200.000000   2013703   2011996   2010433   2008972   2007583  
  8190.000000   2006270   2005105   2004175   2003532   2003148  
  8180.000000   2002888   2002550   2001926   2000885   1999432  
  8170.000000   1997718   1996000   1994552   1993563   1993064  
  8160.000000   1992912   1992842   1992562   1991851   1990637  
  8150.000000   1989004   1987162   1985354   1983772   1982493  
  8140.000000   1981472   1980593   1979731   1978815   1977855  
  8130.000000   1976931   1976138   1975550   1975170   1974936  
  8120.000000   1974732   1974436   1973947   1973214   1972241  
  8110.000000   1971070   1969777   1968442   1967148   1965952  
  8100.000000   1964887   1963937   1963040   1962101   1961016  
  8090.000000   1959722   1958231   1956651   1955158   1953945  
  8080.000000   1953154   1952814   1952828   1952998   1953096  
  8070.000000   1952936   1952440   1951648   1950695   1949745  
  8060.000000   1948937   1948331   1947908   1947584   1947260  
  8050.000000   1946849   1946304   1945615   1944800   1943891  
  8040.000000   1942930   1941972   1941083   1940339   1939802  
  8030.000000   1939503   1939405   1939423   1939423   1939287  
  8020.000000   1938932   1938357   1937629   1936851   1936109  
  8010.000000   1935424   1934739   1933922   1932834   1931372  
  8000.000000   1929538   1927441   1925284   1923299   1921686  
  7990.000000   1920555   1919901   1919620   1919558   1919561  
  7980.000000   1919533   1919456   1919383   1919398   1919573  
  7970.000000   1919926   1920408   1920908   1921303   1921484  
  7960.000000   1921409   1921101   1920639   1920126   1919638  
  7950.000000   1919208   1918800   1918346   1917763   1917011  
  7940.000000   1916101   1915115   1914166   1913373   1912804  
  7930.000000   1912458   1912258   1912071   1911763   1911219  
  7920.000000   1910406   1909353   1908167   1906979   1905930  
  7910.000000   1905124   1904627   1904452   1904586   1904993  
  7900.000000   1905631   1906458   1907424   1908473   1909534  
  7890.000000   1910536   1911417   1912137   1912687   1913082  
  7880.000000   1913350   1913504   1913530   1913381   1912997  
  7870.000000   1912329   1911368   1910171   1908846   1907543  
  7860.000000   1906399   1905516   1904917   1904573   1904402  
  7850.000000   1904326   1904287   1904274   1904303   1904403  
  7840.000000   1904578   1904802   1905015   1905144   1905135  
  7830.000000   1904962   1904647   1904231   1903763   1903279  
  7820.000000   1902783   1902264   1901701   1901089   1900442  
  7810.000000   1899793   1899181   1898633   1898144   1897689  
  7800.000000   1897221   1896703   1896117   1895490   1894882  
  7790.000000   1894382   1894068   1893982   1894109   1894360  
  7780.000000   1894597   1894647   1894367   1893657   1892518  
  7770.000000   1891031   1889357   1887684   1886190   1885002  
  7760.000000   1884168   1883678   1883470   1883477   1883639  
  7750.000000   1883924   1884308   1884764   1885240   1885655  
  7740.000000   1885911   1885910   1885595   1884949   1884020  
  7730.000000   1882891   1881666   1880457   1879356   1878443  
  7720.000000   1877768   1877367   1877227   1877306   1877502  
  7710.000000   1877690   1877725   1877493   1876933   1876060  
  7700.000000   1874960   1873757   1872585   1871531   1870632  
  7690.000000   1869863   1869171   1868501   1867825   1867157  
  7680.000000   1866538   1866017   1865623   1865359   1865197  
  7670.000000   1865101   1865045   1865021   1865045   1865134  
  7660.000000   1865291   1865493   1865685   1865805   1865808  
  7650.000000   1865682   1865466   1865225   1865029   1864913  
  7640.000000   1864857   1864785   1864589   1864168   1863475  
  7630.000000   1862535   1861450   1860364   1859414   1858695  
  7620.000000   1858224   1857957   1857816   1857730   1857667  
  7610.000000   1857643   1857702   1857890   1858208   1858604  
  7600.000000   1858978   1859209   1859209   1858931   1858407  
  7590.000000   1857711   1856951   1856221   1855588   1855086  
  7580.000000   1854723   1854503   1854434   1854528   1854793  
  7570.000000   1855211   1855738   1856296   1856800   1857169  
  7560.000000   1857360   1857365   1857219   1856982   1856734  
  7550.000000   1856552   1856507   1856649   1856998   1857540  
  7540.000000   1858223   1858965   1859666   1860231   1860599  
  7530.000000   1860756   1860749   1860659   1860590   1860620  
  7520.000000   1860802   1861137   1861603   1862155   1862760  
  7510.000000   1863401   1864079   1864811   1865619   1866520  
  7500.000000   1867529   1868636   1869827   1871055   1872262  
  7490.000000   1873368   1874304   1875021   1875522   1875870  
  7480.000000   1876185   1876608   1877270   1878253   1879568  
  7470.000000   1881153   1882898   1884672   1886370   1887917  
  7460.000000   1889287   1890480   1891524   1892455   1893322  
  7450.000000   1894178   1895086   1896109   1897302   1898693  
  7440.000000   1900272   1901996   1903794   1905590   1907314  
  7430.000000   1908917   1910370   1911662   1912801   1913804  
  7420.000000   1914705   1915546   1916381   1917259   1918216  
  7410.000000   1919260   1920373   1921524   1922679   1923828  
  7400.000000   1924981   1926175   1927449   1928830   1930320  
  7390.000000   1931889   1933501   1935107   1936683   1938211  
  7380.000000   1939697   1941149   1942584   1944021   1945495  
  7370.000000   1947051   1948739   1950597   1952624   1954770  
  7360.000000   1956935   1958997   1960847   1962432   1963767  
  7350.000000   1964937   1966062   1967247   1968547   1969952  
  7340.000000   1971399   1972813   1974140   1975371   1976536  
  7330.000000   1977685   1978849   1980035   1981214   1982358  
  7320.000000   1983449   1984509   1985591   1986765   1988080  
  7310.000000   1989541   1991098   1992659   1994112   1995370  
  7300.000000   1996387   1997172   1997778   1998280   1998754  
  7290.000000   1999264   1999842   2000502   2001232   2002015  
  7280.000000   2002832   2003672   2004528   2005402   2006288  
  7270.000000   2007175   2008035   2008832   2009531   2010114  
  7260.000000   2010598   2011031   2011493   2012055   2012769  
  7250.000000   2013630   2014589   2015562   2016479   2017306  
  7240.000000   2018083   2018894   2019857   2021057   2022532  
  7230.000000   2024237   2026093   2027989   2029864   2031687  
  7220.000000   2033495   2035339   2037283   2039361   2041599  
  7210.000000   2043992   2046548   2049264   2052148   2055178  
  7200.000000   2058313   2061467   2064555   2067489   2070241  
  7190.000000   2072828   2075336   2077865   2080518   2083345  
  7180.000000   2086351   2089486   2092690   2095911   2099138  
  7170.000000   2102383   2105693   2109091   2112597   2116176  
  7160.000000   2119792   2123382   2126919   2130381   2133799  
  7150.000000   2137216   2140712   2144362   2148253   2152435  
  7140.000000   2156938   2161728   2166743   2171875   2177032  
  7130.000000   2182117   2187093   2191941   2196704   2201423  
  7120.000000   2206173   2210997   2215955   2221076   2226401  
  7110.000000   2231942   2237710   2243682   2249824   2256073  
  7100.000000   2262380   2268701   2275032   2281382   2287779  
  7090.000000   2294226   2300705   2307156   2313518   2319732  
  7080.000000   2325791   2331722   2337599   2343498   2349478  
  7070.000000   2355555   2361706   2367885   2374055   2380202  
  7060.000000   2386345   2392519   2398764   2405094   2411502  
  7050.000000   2417954   2424413   2430845   2437231   2443560  
  7040.000000   2449829   2456035   2462177   2468267   2474326  
  7030.000000   2480397   2486512   2492700   2498946   2505209  
  7020.000000   2511410   2517471   2523318   2528912   2534234  
  7010.000000   2539295   2544106   2548695   2553091   2557350  
  7000.000000   2561540   2565758   2570082   2574581   2579263  
  6990.000000   2584106   2589038   2593997   2598920   2603785  
  6980.000000   2608570   2613266   2617832   2622219   2626356  
  6970.000000   2630206   2633760   2637074   2640225   2643315  
  6960.000000   2646404   2649526   2652654   2655756   2658783  
  6950.000000   2661721   2664555   2667295   2669920   2672408  
  6940.000000   2674714   2676820   2678732   2680514   2682249  
  6930.000000   2684039   2685944   2687985   2690118   2692281  
  6920.000000   2694390   2696399   2698277   2700027   2701650  
  6910.000000   2703151   2704518   2705751   2706859   2707889  
  6900.000000   2708899   2709959   2711113   2712375   2713715  
  6890.000000   2715081   2716412   2717669   2718829   2719901  
  6880.000000   2720900   2721851   2722778   2723713   2724691  
  6870.000000   2725755   2726933   2728228   2729603   2730985  
  6860.000000   2732279   2733398   2734285   2734936   2735389  
  6850.000000   2735718   2735999   2736302   2736675   2737155  
  6840.000000   2737764   2738524   2739436   2740486   2741625  
  6830.000000   2742792   2743904   2744905   2745761   2746481  
  6820.000000   2747094   2747637   2748129   2748567   2748932  
  6810.000000   2749204   2749380   2749480   2749531   2749560  
  6800.000000   2749570   2749551   2749477   2749350   2749192  
  6790.000000   2749071   2749051   2749192   2749495   2749913  
  6780.000000   2750355   2750725   2750951   2751006   2750905  
  6770.000000   2750683   2750368   2749962   2749453   2748828  
  6760.000000   2748101   2747327   2746587   2745966   2745516  
  6750.000000   2745239   2745084   2744981   2744864   2744711  
  6740.000000   2744540   2744400   2744339   2744378   2744495  
  6730.000000   2744634   2744724   2744705   2744545   2744238  
  6720.000000   2743803   2743266   2742656   2742004   2741338  
  6710.000000   2740691   2740088   2739545   2739047   2738569  
  6700.000000   2738065   2737506   2736882   2736221   2735561  
  6690.000000   2734953   2734420   2733962   2733543   2733124  
  6680.000000   2732662   2732137   2731537   2730858   2730082  
  6670.000000   2729183   2728126   2726901   2725523   2724051  
  6660.000000   2722563   2721134   2719803   2718567   2717372  
  6650.000000   2716160   2714874   2713507   2712080   2710646  
  6640.000000   2709251   2707918   2706638   2705384   2704120  
  6630.000000   2702831   2701516   2700189   2698859   2697519  
  6620.000000   2696144   2694705   2693177   2691560   2689874  
  6610.000000   2688159   2686444   2684748   2683065   2681387  
  6600.000000   2679700   2678013   2676343   2674716   2673143  
  6590.000000   2671615   2670100   2668558   2666953   2665271  
  6580.000000   2663519   2661723   2659911   2658105   2656321  
  6570.000000   2654568   2652860   2651220   2649672   2648232  
  6560.000000   2646897   2645635   2644398   2643128   2641783  
  6550.000000   2640345   2638826   2637253   2635660   2634070  
  6540.000000   2632499   2630950   2629434   2627959   2626538  
  6530.000000   2625176   2623867   2622589   2621319   2620042  
  6520.000000   2618764   2617513   2616329   2615244   2614264  
  6510.000000   2613360   2612481   2611567   2610579   2609507  
  6500.000000   2608375   2607223   2606091   2605000   2603950  
  6490.000000   2602932   2601935   2600961   2600022   2599129  
  6480.000000   2598279   2597449   2596590   2595652   2594597  
  6470.000000   2593415   2592129   2590784   2589426   2588092  
  6460.000000   2586797   2585541   2584318   2583126   2581973  
  6450.000000   2580869   2579823   2578831   2577879   2576950  
  6440.000000   2576032   2575123   2574236   2573381   2572566  
  6430.000000   2571782   2571012   2570230   2569428   2568607  
  6420.000000   2567789   2566998   2566259   2565575   2564938  
  6410.000000   2564332   2563747   2563182   2562654   2562181  
  6400.000000   2561777   2561434   2561136   2560851   2560554  
  6390.000000   2560233   2559892   2559547   2559219   2558919  
  6380.000000   2558652   2558411   2558189   2557974   2557756  
  6370.000000   2557524   2557263   2556954   2556583   2556146  
  6360.000000   2555655   2555136   2554614   2554112   2553624  
  6350.000000   2553130   2552598   2552002   2551336   2550624  
  6340.000000   2549904   2549222   2548598   2548030   2547483  
  6330.000000   2546913   2546279   2545563   2544771   2543933  
  6320.000000   2543080   2542240   2541420   2540614   2539803  
  6310.000000   2538974   2538109   2537207   2536256   2535257  
  6300.000000   2534200   2533087   2531916   2530701   2529447  
  6290.000000   2528161   2526835   2525459   2524018   2522514  
  6280.000000   2520958   2519384   2517823   2516302   2514820  
  6270.000000   2513357   2511869   2510321   2508688   2506977  
  6260.000000   2505212   2503431   2501659   2499906   2498157  
  6250.000000   2496388   2494577   2492716   2490815   2488901  
  6240.000000   2486999   2485130   2483300   2481508   2479747  
  6230.000000   2478015   2476309   2474631   2472972   2471323  
  6220.000000   2469666   2467985   2466269   2464515   2462729  
  6210.000000   2460913   2459074   2457207   2455313   2453396  
  6200.000000   2451474   2449575   2447730   2445968   2444298  
  6190.000000   2442715   2441199   2439729   2438288   2436870  
  6180.000000   2435478   2434110   2432763   2431421   2430065  
  6170.000000   2428680   2427266   2425832   2424398   2422980  
  6160.000000   2421585   2420204   2418822   2417424   2416005  
  6150.000000   2414575   2413151   2411744   2410354   2408964  
  6140.000000   2407552   2406097   2404601   2403082   2401584  
  6130.000000   2400145   2398799   2397556   2396412   2395349  
  6120.000000   2394360   2393442   2392607   2391860   2391205  
  6110.000000   2390617   2390068   2389517   2388943   2388336  
  6100.000000   2387720   2387121   2386574   2386092   2385682  
  6090.000000   2385328   2385020   2384743   2384498   2384281  
  6080.000000   2384096   2383927   2383761   2383576   2383367  
  6070.000000   2383135   2382906   2382705   2382562   2382490  
  6060.000000   2382496   2382573   2382724   2382953   2383283  
  6050.000000   2383732   2384323   2385049   2385898   2386825  
  6040.000000   2387800   2388786   2389781   2390788   2391840  
  6030.000000   2392961   2394182   2395513   2396965   2398532  
  6020.000000   2400214   2401994   2403860   2405776   2407708  
  6010.000000   2409606   2411431   2413150   2414762   2416278  
  6000.000000   2417736   2419176   2420645   2422171   2423780  
  5990.000000   2425473   2427251   2429102   2431022   2433000  
  5980.000000   2435041   2437141   2439312   2441557   2443888  
  5970.000000   2446305   2448814   2451406   2454083   2456833  
  5960.000000   2459660   2462553   2465514   2468524   2471575  
  5950.000000   2474635   2477689   2480713   2483706   2486672  
  5940.000000   2489636   2492628   2495677   2498811   2502038  
  5930.000000   2505358   2508751   2512188   2515629   2519031  
  5920.000000   2522345   2525532   2528558   2531404   2534066  
  5910.000000   2536556   2538900   2541131   2543287   2545412  
  5900.000000   2547543   2549723   2551979   2554339   2556802  
  5890.000000   2559363   2561987   2564645   2567297   2569922  
  5880.000000   2572504   2575040   2577522   2579937   2582261  
  5870.000000   2584460   2586506   2588384   2590110   2591719  
  5860.000000   2593270   2594823   2596433   2598137   2599956  
  5850.000000   2601900   2603969   2606157   2608451   2610828  
  5840.000000   2613256   2615697   2618121   2620507   2622865  
  5830.000000   2625213   2627588   2630011   2632492   2635012  
  5820.000000   2637544   2640054   2642523   2644944   2647330  
  5810.000000   2649697   2652053   2654401   2656726   2659027  
  5800.000000   2661291   2663548   2665803   2668094   2670403  
  5790.000000   2672724   2674985   2677125   2679039   2680646  
  5780.000000   2681841   2682552   2682694   2682232   2681146  
  5770.000000   2679495   2677368   2674930   2672346   2669795  
  5760.000000   2667391   2665218   2663275   2661547   2659980  
  5750.000000   2658544   2657211   2655980   2654848   2653812  
  5740.000000   2652863   2651978   2651143   2650339   2649564  
  5730.000000   2648807   2648073   2647348   2646636   2645929  
  5720.000000   2645243   2644592   2643997   2643467   2642999  
  5710.000000   2642573   2642167   2641761   2641361   2640989  
  5700.000000   2640685   2640483   2640398   2640415   2640494  
  5690.000000   2640590   2640659   2640686   2640673   2640645  
  5680.000000   2640614   2640588   2640540   2640430   2640199  
  5670.000000   2639799   2639179   2638315   2637186   2635800  
  5660.000000   2634173   2632354   2630406   2628419   2626473  
  5650.000000   2624641   2622954   2621411   2619969   2618577  
  5640.000000   2617180   2615748   2614278   2612789   2611315  
  5630.000000   2609889   2608541   2607286   2606136   2605087  
  5620.000000   2604135   2603255   2602423   2601599   2600758  
  5610.000000   2599879   2598971   2598055   2597166   2596331  
  5600.000000   2595563   2594850   2594171   2593501   2592828  
  5590.000000   2592156   2591503   2590888   2590312   2589756  
  5580.000000   2589180   2588540   2587800   2586949   2586000  
  5570.000000   2584983   2583933   2582879   2581834   2580805  
  5560.000000   2579791   2578796   2577822   2576872   2575943  
  5550.000000   2575022   2574089   2573131   2572138   2571116  
  5540.000000   2570081   2569049   2568027   2567012   2565996  
  5530.000000   2564969   2563935   2562914   2561934   2561024  
  5520.000000   2560194   2559438   2558724   2558014   2557271  
  5510.000000   2556472   2555606   2554681   2553701   2552674  
  5500.000000   2551604   2550499   2549367   2548229   2547096  
  5490.000000   2545977   2544855   2543699   2542464   2541118  
  5480.000000   2539643   2538056   2536391   2534702   2533030  
  5470.000000   2531404   2529826   2528287   2526769   2525257  
  5460.000000   2523734   2522182   2520577   2518890   2517092  
  5450.000000   2515171   2513140   2511038   2508922   2506850  
  5440.000000   2504863   2502975   2501182   2499468   2497824  
  5430.000000   2496244   2494734   2493281   2491872   2490466  
  5420.000000   2489040   2487577   2486112   2484700   2483434  
  5410.000000   2482380   2481581   2481010   2480621   2480331  
  5400.000000   2480094   2479872   2479683   2479539   2479476  
  5390.000000   2479494   2479602   2479780   2480046   2480416  
  5380.000000   2480949   2481681   2482653   2483845   2485233  
  5370.000000   2486739   2488326   2489938   2491595   2493295  
  5360.000000   2495104   2497033   2499153   2501470   2504057  
  5350.000000   2506927   2510166   2513781   2517838   2522306  
  5340.000000   2527213   2532501   2538208   2544291   2550813  
  5330.000000   2557732   2565098   2572838   2580981   2589455  
  5320.000000   2598333   2607599   2617396   2627747   2638807  
  5310.000000   2650566   2663121   2676397   2690447   2705187  
  5300.000000   2720683   2736886   2753902   2771713   2790435  
  5290.000000   2810034   2830572   2851939   2874103   2896891  
  5280.000000   2920250   2944058   2968361   2993167   3018612  
  5270.000000   3044734   3071583   3099046   3126970   3155124  
  5260.000000   3183317   3211434   3239459   3267461   3295493  
  5250.000000   3323585   3351619   3379433   3406744   3433373  
  5240.000000   3459125   3484028   3508085   3531483   3554274  
  5230.000000   3576603   3598404   3619676   3640233   3660022  
  5220.000000   3678880   3696850   3713889   3730158   3745685  
  5210.000000   3760641   3774994   3788807   3801934   3814364  
  5200.000000   3825944   3836726   3846665   3855911   3864470  
  5190.000000   3872477   3879881   3886735   3892929   3898502  
  5180.000000   3903381   3907654   3911297   3914410   3916947  
  5170.000000   3918965   3920394   3921288   3921614   3921468  
  5160.000000   3920855   3919876   3918511   3916814   3914725  
  5150.000000   3912277   3909427   3906231   3902676   3898819  
  5140.000000   3894640   3890177   3885402   3880361   3875061  
  5130.000000   3869578   3863949   3858248   3852490   3846706  
  5120.000000   3840874   3835001   3829066   3823082   3817044  
  5110.000000   3810971   3804854   3798699   3792495   3786251  
  5100.000000   3779974   3773693   3767429   3761211   3755044  
  5090.000000   3748933   3742866   3736837   3730835   3724864  
  5080.000000   3718919   3713000   3707088   3701170   3695216  
  5070.000000   3689214   3683146   3677019   3670832   3664598  
  5060.000000   3658311   3651971   3645562   3639078   3632510  
  5050.000000   3625866   3619150   3612380   3605564   3598713  
  5040.000000   3591832   3584928   3578007   3571080   3564158  
  5030.000000   3557255   3550382   3543548   3536765   3530040  
  5020.000000   3523386   3516811   3510330   3503944   3497666  
  5010.000000   3491486   3485415   3479442   3473585   3467840  
  5000.000000   3462237   3456778   3451500   3446404   3441530  
  4990.000000   3436874   3432473   3428312   3424417   3420756  
  4980.000000   3417343   3414135   3411152   3408366   3405822  
  4970.000000   3403521   3401531   3399861   3398575   3397653  
  4960.000000   3397130   3396956   3397144   3397638   3398462  
  4950.000000   3399578   3401031   3402799   3404935   3407416  
  4940.000000   3410287   3413512   3417124   3421076   3425394  
  4930.000000   3430031   3435015   3440308   3445945   3451898  
  4920.000000   3458202   3464824   3471789   3479051   3486621  
  4910.000000   3494453   3502556   3510895   3519480   3528283  
  4900.000000   3537306   3546516   3555899   3565422   3575057  
  4890.000000   3584775   3594535   3604295   3613991   3623569  
  4880.000000   3632951   3642093   3650931   3659455   3667624  
  4870.000000   3675446   3682880   3689933   3696556   3702757  
  4860.000000   3708502   3713827   3718723   3723248   3727407  
  4850.000000   3731259   3734804   3738097   3741140   3743987  
  4840.000000   3746644   3749162   3751540   3753818   3755992  
  4830.000000   3758094   3760125   3762114   3764062   3765986  
  4820.000000   3767869   3769706   3771472   3773160   3774762  
  4810.000000   3776297   3777783   3779254   3780731   3782235  
  4800.000000   3783770   3785336   3786928   3788548   3790198  
  4790.000000   3791883   3793610   3795380   3797188   3799024  
  4780.000000   3800875   3802726   3804567   3806388   3808183  
  4770.000000   3809953   3811697   3813422   3815131   3816832  
  4760.000000   3818521   3820192   3821822   3823392   3824866  
  4750.000000   3826226   3827447   3828530   3829470   3830283  
  4740.000000   3830973   3831558   3832038   3832425   3832715  
  4730.000000   3832916   3833019   3833026   3832926   3832720  
  4720.000000   3832408   3832007   3831543   3831052   3830576  
  4710.000000   3830149   3829802   3829551   3829404   3829365  
  4700.000000   3829441   3829639   3829973   3830451   3831083  
  4690.000000   3831860   3832771   3833792   3834898   3836054  
  4680.000000   3837235   3838401   3839526   3840571   3841520  
  4670.000000   3842349   3843070   3843692   3844260   3844806  
  4660.000000   3845388   3846042   3846817   3847744   3848861  
  4650.000000   3850190   3851753   3853548   3855564   3857767  
  4640.000000   3860116   3862560   3865061   3867587   3870121  
  4630.000000   3872653   3875168   3877648   3880058   3882359  
  4620.000000   3884505   3886464   3888207   3889733   3891041  
  4610.000000   3892155   3893088   3893876   3894534   3895105  
  4600.000000   3895606   3896080   3896532   3896984   3897415  
  4590.000000   3897819   3898151   3898390   3898490   3898436  
  4580.000000   3898193   3897757   3897108   3896254   3895191  
  4570.000000   3893943   3892522   3890968   3889301   3887561  
  4560.000000   3885759   3883923   3882051   3880160   3878244  
  4550.000000   3876316   3874373   3872423   3870460   3868485  
  4540.000000   3866488   3864465   3862410   3860320   3858201  
  4530.000000   3856054   3853896   3851733   3849595   3847490  
  4520.000000   3845461   3843512   3841685   3839973   3838414  
  4510.000000   3836993   3835763   3834726   3833972   3833523  
  4500.000000   3833492   3833899   3834843   3836313   3838387  
  4490.000000   3841037   3844345   3848293   3852980   3858391  
  4480.000000   3864613   3871601   3879402   3887934   3897211  
  4470.000000   3907135   3917710   3928840   3940526   3952670  
  4460.000000   3965264   3978214   3991507   4005062   4018871  
  4450.000000   4032868   4047046   4061351   4075767   4090249  
  4440.000000   4104768   4119291   4133781   4148218   4162561  
  4430.000000   4176809   4190920   4204903   4218705   4232328  
  4420.000000   4245689   4258768   4271448   4283690   4295363  
  4410.000000   4306431   4316772   4326369   4335125   4343057  
  4400.000000   4350115   4356365   4361815   4366582   4370719  
  4390.000000   4374367   4377593   4380524   4383216   4385770  
  4380.000000   4388228   4390674   4393152   4395740   4398489  
  4370.000000   4401466   4404714   4408271   4412152   4416354  
  4360.000000   4420862   4425650   4430684   4435941   4441373  
  4350.000000   4446964   4452651   4458432   4464243   4470112  
  4340.000000   4476001   4481942   4487853   4493636   4499018  
  4330.000000   4503651   4507051   4508755   4508368   4505728  
  4320.000000   4500932   4494398   4486747   4478741   4471070  
  4310.000000   4464304   4458738   4454474   4451382   4449271  
  4300.000000   4447892   4447060   4446639   4446549   4446752  
  4290.000000   4447196   4447859   4448676   4449637   4450700  
  4280.000000   4451880   4453176   4454603   4456171   4457876  
  4270.000000   4459728   4461700   4463772   4465840   4467766  
  4260.000000   4469303   4470178   4470084   4468794   4466181  
  4250.000000   4462304   4457362   4451708   4445716   4439777  
  4240.000000   4434162   4429060   4424502   4420461   4416819  
  4230.000000   4413471   4410294   4407201   4404118   4400990  
  4220.000000   4397794   4394513   4391191   4387863   4384633  
  4210.000000   4381568   4378775   4376294   4374179   4372421  
  4200.000000   4371025   4369954   4369201   4368725   4368522  
  4190.000000   4368539   4368765   4369132   4369630   4370191  
  4180.000000   4370827   4371501   4372260   4373103   4374116  
  4170.000000   4375333   4376867   4378766   4381140   4384014  
  4160.000000   4387457   4391439   4395979   4401003   4406516  
  4150.000000   4412446   4418814   4425571   4432761   4440342  
  4140.000000   4448371   4456805   4465701   4475013   4484791  
  4130.000000   4494979   4505611   4516623   4528046   4539835  
  4120.000000   4552043   4564662   4577769   4591371   4605530  
  4110.000000   4620223   4635460   4651169   4667309   4683779  
  4100.000000   4700523   4717451   4734523   4751688   4768940  
  4090.000000   4786267   4803680   4821181   4838767   4856438  
  4080.000000   4874170   4891966   4909791   4927645   4945468  
  4070.000000   4963228   4980813   4998158   5015127   5031676  
  4060.000000   5047710   5063254   5078262   5092801   5106829  
  4050.000000   5120415   5133501   5146157   5158319   5170054  
  4040.000000   5181271   5192004   5202115   5211607   5220334  
  4030.000000   5228320   5235454   5241789   5247241   5251853  
  4020.000000   5255520   5258306   5260194   5261299   5261610  
  4010.000000   5261307   5260489   5259204   5257245   5254673  
  4000.000000   5251783  
##END= 
