##TITLE= Sample 042 By ssteindl date Donnerstag, November 22 2018
##JCAMP-DX= 4.24
##DATA TYPE= INFRARED SPECTRUM
##ORIGIN= Exported PE Spectrum Data File
##OWNER= Sandra Steindl
##DATE= 18/11/22
##TIME= 12:20:05.00
##SPECTROMETER/DATA SYSTEM= PERKIN-ELMER Frontier FT-IR/NIR IR
##INSTRUMENT PARAMETERS=
  APODIZATION=stark
  DETECTOR=INGAAS
##RESOLUTION= 16.000000
##DELTAX= -2.000000
##XUNITS= 1/CM
##YUNITS= A
##XFACTOR= 1.00
##YFACTOR= 0.00000011920928955078
##FIRSTX= 10000.00
##LASTX= 4000.00
##NPOINTS= 3001
##FIRSTY= 0.222575
##MAXY= 0.658443
##MINY= 0.186700
##XYDATA= (X++(Y..Y))
 10000.000000   1867098   1861685   1857452   1856050   1857754  
  9990.000000   1861397   1865465   1868731   1870455   1870505  
  9980.000000   1869440   1868063   1866962   1866267   1865807  
  9970.000000   1865291   1864542   1863598   1862614   1861700  
  9960.000000   1860774   1859629   1858000   1855835   1853269  
  9950.000000   1850647   1848287   1846293   1844513   1842543  
  9940.000000   1840036   1836792   1832955   1828836   1824781  
  9930.000000   1820926   1817185   1813396   1809607   1806281  
  9920.000000   1804303   1804674   1808097   1814522   1823050  
  9910.000000   1832070   1839812   1844844   1846593   1845400  
  9900.000000   1842390   1838987   1836453   1835573   1836515  
  9890.000000   1839026   1842563   1846569   1850503   1853921  
  9880.000000   1856423   1857691   1857485   1855728   1852480  
  9870.000000   1847953   1842436   1836270   1829857   1823704  
  9860.000000   1818443   1814788   1813311   1814248   1817220  
  9850.000000   1821277   1825050   1827236   1826999   1824313  
  9840.000000   1819939   1815129   1811180   1808944   1808659  
  9830.000000   1809888   1811826   1813550   1814308   1813636  
  9820.000000   1811362   1807583   1802617   1797008   1791520  
  9810.000000   1787034   1784378   1783992   1785737   1788768  
  9800.000000   1791808   1793548   1793179   1790733   1787062  
  9790.000000   1783523   1781403   1781450   1783643   1787286  
  9780.000000   1791401   1795088   1797862   1799630   1800567  
  9770.000000   1800821   1800362   1798993   1796536   1793075  
  9760.000000   1789057   1785250   1782459   1781262   1781764  
  9750.000000   1783617   1786161   1788710   1790760   1792041  
  9740.000000   1792465   1791959   1790437   1787804   1784132  
  9730.000000   1779777   1775423   1771956   1770202   1770658  
  9720.000000   1773290   1777574   1782579   1787337   1790980  
  9710.000000   1793031   1793350   1792143   1789823   1786902  
  9700.000000   1783929   1781347   1779455   1778215   1777284  
  9690.000000   1775988   1773592   1769545   1763757   1756748  
  9680.000000   1749486   1743193   1738868   1737098   1737866  
  9670.000000   1740720   1744970   1749933   1755058   1759890  
  9660.000000   1763997   1766870   1767996   1766975   1763771  
  9650.000000   1758808   1752999   1747454   1743199   1740782  
  9640.000000   1740172   1740798   1741815   1742449   1742170  
  9630.000000   1740851   1738604   1735752   1732643   1729702  
  9620.000000   1727390   1726210   1726611   1728775   1732479  
  9610.000000   1736964   1741096   1743633   1743644   1740830  
  9600.000000   1735636   1729129   1722644   1717379   1714070  
  9590.000000   1712875   1713456   1715189   1717373   1719370  
  9580.000000   1720642   1720784   1719532   1716862   1713030  
  9570.000000   1708609   1704372   1701105   1699375   1699342  
  9560.000000   1700732   1702955   1705329   1707311   1708597  
  9550.000000   1709104   1708847   1707796   1705864   1702953  
  9540.000000   1699158   1694821   1690568   1687097   1684971  
  9530.000000   1684374   1685073   1686502   1688022   1689139  
  9520.000000   1689675   1689736   1689604   1689545   1689700  
  9510.000000   1690092   1690698   1691600   1692988   1695140  
  9500.000000   1698217   1702168   1706634   1711048   1714765  
  9490.000000   1717236   1718122   1717297   1714819   1710859  
  9480.000000   1705678   1699651   1693289   1687257   1682249  
  9470.000000   1678860   1677364   1677617   1679061   1680906  
  9460.000000   1682371   1682927   1682399   1680950   1678952  
  9450.000000   1676825   1674964   1673697   1673333   1674164  
  9440.000000   1676389   1679996   1684615   1689522   1693769  
  9430.000000   1696476   1697129   1695739   1692821   1689129  
  9420.000000   1685343   1681779   1678365   1674788   1670848  
  9410.000000   1666686   1662844   1660077   1658960   1659636  
  9400.000000   1661591   1663905   1665544   1665886   1664976  
  9390.000000   1663524   1662565   1662937   1664896   1667951  
  9380.000000   1671106   1673201   1673420   1671492   1667814  
  9370.000000   1663156   1658376   1654098   1650583   1647821  
  9360.000000   1645670   1644077   1643111   1642967   1643808  
  9350.000000   1645676   1648382   1651554   1654716   1657410  
  9340.000000   1659321   1660274   1660270   1659383   1657780  
  9330.000000   1655671   1653329   1651066   1649192   1647953  
  9320.000000   1647483   1647772   1648635   1649771   1650761  
  9310.000000   1651236   1650888   1649625   1647561   1645061  
  9300.000000   1642688   1641058   1640655   1641596   1643547  
  9290.000000   1645760   1647310   1647373   1645515   1641865  
  9280.000000   1637116   1632317   1628518   1626406   1626106  
  9270.000000   1627216   1629028   1630796   1631973   1632348  
  9260.000000   1632023   1631314   1630532   1629889   1629439  
  9250.000000   1629141   1628949   1628832   1628821   1628910  
  9240.000000   1629053   1629117   1628921   1628278   1627059  
  9230.000000   1625263   1623047   1620691   1618547   1616949  
  9220.000000   1616153   1616285   1617274   1618876   1620699  
  9210.000000   1622330   1623444   1623901   1623785   1623351  
  9200.000000   1622933   1622762   1622881   1623098   1623115  
  9190.000000   1622633   1621525   1619899   1618079   1616494  
  9180.000000   1615475   1615184   1615539   1616350   1617362  
  9170.000000   1618423   1619445   1620420   1621293   1621963  
  9160.000000   1622270   1622061   1621269   1619919   1618151  
  9150.000000   1616074   1613734   1611020   1607763   1603859  
  9140.000000   1599422   1594851   1590733   1587716   1586251  
  9130.000000   1586473   1588116   1590661   1593526   1596234  
  9120.000000   1598518   1600263   1601468   1602083   1602040  
  9110.000000   1601215   1599617   1597423   1595038   1592939  
  9100.000000   1591529   1590993   1591247   1592033   1593004  
  9090.000000   1593934   1594745   1595513   1596331   1597186  
  9080.000000   1597941   1598343   1598192   1597399   1596068  
  9070.000000   1594431   1592755   1591234   1589931   1588868  
  9060.000000   1588096   1587807   1588254   1589672   1592054  
  9050.000000   1595073   1598067   1600236   1600936   1599915  
  9040.000000   1597458   1594235   1591073   1588601   1587052  
  9030.000000   1586218   1585625   1584825   1583625   1582201  
  9020.000000   1580953   1580332   1580573   1581597   1583017  
  9010.000000   1584326   1585128   1585235   1584718   1583763  
  9000.000000   1582581   1581278   1579872   1578363   1576854  
  8990.000000   1575572   1574835   1574887   1575783   1577297  
  8980.000000   1578968   1580273   1580796   1580413   1579302  
  8970.000000   1577912   1576779   1576371   1576944   1578494  
  8960.000000   1580776   1583380   1585817   1587578   1588248  
  8950.000000   1587547   1585450   1582171   1578185   1574100  
  8940.000000   1570536   1567946   1566512   1566152   1566597  
  8930.000000   1567565   1568848   1570424   1572374   1574793  
  8920.000000   1577630   1580634   1583409   1585507   1586632  
  8910.000000   1586701   1585929   1584683   1583378   1582308  
  8900.000000   1581600   1581223   1581059   1581006   1581013  
  8890.000000   1581100   1581272   1581512   1581726   1581815  
  8880.000000   1581711   1581451   1581175   1581074   1581311  
  8870.000000   1581924   1582800   1583696   1584333   1584505  
  8860.000000   1584170   1583449   1582591   1581847   1581410  
  8850.000000   1581324   1581513   1581808   1582044   1582113  
  8840.000000   1582024   1581897   1581928   1582338   1583294  
  8830.000000   1584882   1587055   1589656   1592428   1595076  
  8820.000000   1597335   1599023   1600091   1600592   1600663  
  8810.000000   1600448   1600054   1599514   1598803   1597875  
  8800.000000   1596734   1595463   1594230   1593248   1592718  
  8790.000000   1592747   1593320   1594292   1595451   1596576  
  8780.000000   1597535   1598306   1599007   1599839   1601026  
  8770.000000   1602746   1605067   1607939   1611197   1614616  
  8760.000000   1617978   1621114   1623947   1626436   1628563  
  8750.000000   1630249   1631366   1631726   1631171   1629651  
  8740.000000   1627320   1624574   1621967   1620134   1619561  
  8730.000000   1620523   1622935   1626438   1630448   1634352  
  8720.000000   1637647   1640029   1641438   1641962   1641798  
  8710.000000   1641129   1640141   1638977   1637819   1636870  
  8700.000000   1636395   1636635   1637758   1639771   1642491  
  8690.000000   1645573   1648567   1651053   1652744   1653588  
  8680.000000   1653791   1653758   1653986   1654913   1656794  
  8670.000000   1659622   1663130   1666859   1670296   1672997  
  8660.000000   1674724   1675458   1675397   1674828   1674049  
  8650.000000   1673265   1672600   1672089   1671763   1671685  
  8640.000000   1671980   1672814   1674296   1676465   1679225  
  8630.000000   1682399   1685769   1689143   1692408   1695498  
  8620.000000   1698386   1700996   1703227   1704946   1706093  
  8610.000000   1706709   1707007   1707313   1707976   1709248  
  8600.000000   1711155   1713530   1716018   1718285   1720087  
  8590.000000   1721430   1722516   1723679   1725209   1727211  
  8580.000000   1729556   1731864   1733662   1734503   1734168  
  8570.000000   1732694   1730401   1727795   1725464   1723943  
  8560.000000   1723592   1724572   1726803   1730030   1733837  
  8550.000000   1737784   1741469   1744627   1747144   1749070  
  8540.000000   1750601   1751949   1753303   1754686   1756017  
  8530.000000   1757074   1757629   1757530   1756791   1755637  
  8520.000000   1754429   1753627   1753634   1754723   1756925  
  8510.000000   1760043   1763686   1767343   1770504   1772752  
  8500.000000   1773882   1773918   1773127   1771952   1770921  
  8490.000000   1770517   1771051   1772617   1775078   1778134  
  8480.000000   1781391   1784492   1787180   1789341   1790962  
  8470.000000   1792087   1792758   1792990   1792791   1792175  
  8460.000000   1791238   1790156   1789191   1788615   1788621  
  8450.000000   1789278   1790480   1792008   1793575   1794943  
  8440.000000   1795989   1796729   1797292   1797842   1798524  
  8430.000000   1799391   1800413   1801495   1802546   1803526  
  8420.000000   1804470   1805470   1806625   1808003   1809590  
  8410.000000   1811298   1812979   1814478   1815681   1816539  
  8400.000000   1817072   1817343   1817432   1817416   1817355  
  8390.000000   1817301   1817294   1817384   1817605   1817991  
  8380.000000   1818545   1819256   1820094   1821038   1822072  
  8370.000000   1823176   1824303   1825377   1826268   1826843  
  8360.000000   1826985   1826687   1826080   1825428   1825053  
  8350.000000   1825229   1826076   1827486   1829116   1830477  
  8340.000000   1831093   1830666   1829192   1826968   1824505  
  8330.000000   1822380   1821047   1820730   1821345   1822589  
  8320.000000   1824044   1825336   1826230   1826666   1826733  
  8310.000000   1826580   1826342   1826066   1825728   1825248  
  8300.000000   1824574   1823706   1822739   1821829   1821156  
  8290.000000   1820873   1821044   1821655   1822587   1823681  
  8280.000000   1824743   1825615   1826182   1826411   1826331  
  8270.000000   1826033   1825630   1825230   1824885   1824581  
  8260.000000   1824237   1823728   1822934   1821776   1820247  
  8250.000000   1818419   1816415   1814380   1812438   1810676  
  8240.000000   1809136   1807836   1806786   1806006   1805517  
  8230.000000   1805333   1805426   1805725   1806115   1806463  
  8220.000000   1806657   1806637   1806406   1806023   1805572  
  8210.000000   1805122   1804706   1804307   1803866   1803319  
  8200.000000   1802605   1801699   1800598   1799325   1797901  
  8190.000000   1796358   1794716   1793001   1791244   1789477  
  8180.000000   1787723   1785995   1784285   1782580   1780871  
  8170.000000   1779181   1777563   1776112   1774920   1774059  
  8160.000000   1773530   1773271   1773150   1773011   1772714  
  8150.000000   1772166   1771347   1770287   1769046   1767664  
  8140.000000   1766142   1764448   1762543   1760435   1758198  
  8130.000000   1755988   1754003   1752423   1751345   1750729  
  8120.000000   1750388   1750024   1749309   1747990   1745983  
  8110.000000   1743405   1740566   1737865   1735692   1734296  
  8100.000000   1733735   1733845   1734313   1734761   1734882  
  8090.000000   1734500   1733624   1732404   1731060   1729803  
  8080.000000   1728773   1728020   1727519   1727209   1727033  
  8070.000000   1726953   1726949   1726993   1727028   1726956  
  8060.000000   1726658   1726022   1724994   1723588   1721908  
  8050.000000   1720102   1718338   1716753   1715431   1714408  
  8040.000000   1713676   1713221   1713013   1713036   1713246  
  8030.000000   1713586   1713957   1714245   1714334   1714140  
  8020.000000   1713634   1712841   1711841   1710724   1709578  
  8010.000000   1708452   1707363   1706293   1705216   1704110  
  8000.000000   1702971   1701814   1700666   1699556   1698505  
  7990.000000   1697532   1696650   1695882   1695260   1694827  
  7980.000000   1694619   1694653   1694906   1695308   1695750  
  7970.000000   1696103   1696256   1696136   1695737   1695106  
  7960.000000   1694334   1693516   1692727   1691999   1691328  
  7950.000000   1690684   1690038   1689376   1688700   1688025  
  7940.000000   1687357   1686690   1686005   1685291   1684568  
  7930.000000   1683890   1683347   1683017   1682937   1683062  
  7920.000000   1683272   1683401   1683307   1682936   1682352  
  7910.000000   1681739   1681323   1681305   1681765   1682637  
  7900.000000   1683721   1684743   1685455   1685679   1685364  
  7890.000000   1684551   1683347   1681871   1680241   1678573  
  7880.000000   1676999   1675684   1674800   1674501   1674841  
  7870.000000   1675760   1677047   1678419   1679567   1680274  
  7860.000000   1680450   1680148   1679515   1678709   1677843  
  7850.000000   1676935   1675949   1674822   1673542   1672172  
  7840.000000   1670841   1669700   1668852   1668327   1668058  
  7830.000000   1667933   1667835   1667706   1667555   1667445  
  7820.000000   1667450   1667602   1667866   1668151   1668342  
  7810.000000   1668348   1668141   1667760   1667290   1666823  
  7800.000000   1666413   1666060   1665705   1665267   1664671  
  7790.000000   1663889   1662941   1661901   1660859   1659911  
  7780.000000   1659120   1658522   1658109   1657845   1657670  
  7770.000000   1657506   1657276   1656904   1656338   1655553  
  7760.000000   1654563   1653417   1652195   1650991   1649896  
  7750.000000   1648985   1648304   1647865   1647645   1647594  
  7740.000000   1647638   1647701   1647709   1647609   1647376  
  7730.000000   1647009   1646533   1645975   1645362   1644704  
  7720.000000   1644000   1643241   1642423   1641550   1640638  
  7710.000000   1639704   1638760   1637808   1636845   1635880  
  7700.000000   1634942   1634093   1633417   1632994   1632872  
  7690.000000   1633038   1633412   1633859   1634241   1634453  
  7680.000000   1634470   1634336   1634155   1634028   1634014  
  7670.000000   1634101   1634213   1634249   1634125   1633827  
  7660.000000   1633408   1632984   1632673   1632558   1632644  
  7650.000000   1632861   1633082   1633177   1633047   1632655  
  7640.000000   1632029   1631243   1630400   1629594   1628905  
  7630.000000   1628384   1628053   1627907   1627912   1628019  
  7620.000000   1628168   1628313   1628438   1628564   1628751  
  7610.000000   1629066   1629556   1630204   1630926   1631582  
  7600.000000   1632030   1632168   1631993   1631598   1631159  
  7590.000000   1630867   1630876   1631238   1631900   1632719  
  7580.000000   1633529   1634196   1634666   1634973   1635215  
  7570.000000   1635514   1635969   1636624   1637476   1638468  
  7560.000000   1639544   1640637   1641714   1642735   1643675  
  7550.000000   1644497   1645178   1645713   1646140   1646548  
  7540.000000   1647064   1647826   1648949   1650481   1652384  
  7530.000000   1654529   1656732   1658792   1660556   1661940  
  7520.000000   1662961   1663703   1664307   1664908   1665617  
  7510.000000   1666483   1667512   1668668   1669916   1671227  
  7500.000000   1672593   1674026   1675545   1677164   1678891  
  7490.000000   1680724   1682671   1684735   1686940   1689282  
  7480.000000   1691751   1694284   1696799   1699187   1701365  
  7470.000000   1703286   1704987   1706559   1708146   1709886  
  7460.000000   1711889   1714192   1716771   1719542   1722401  
  7450.000000   1725249   1728017   1730670   1733200   1735612  
  7440.000000   1737925   1740155   1742332   1744486   1746666  
  7430.000000   1748915   1751274   1753761   1756364   1759045  
  7420.000000   1761746   1764409   1766986   1769458   1771836  
  7410.000000   1774163   1776500   1778905   1781425   1784064  
  7400.000000   1786788   1789521   1792176   1794668   1796954  
  7390.000000   1799048   1801019   1802978   1805038   1807286  
  7380.000000   1809756   1812424   1815223   1818070   1820898  
  7370.000000   1823668   1826369   1829008   1831590   1834115  
  7360.000000   1836581   1838995   1841387   1843806   1846308  
  7350.000000   1848928   1851658   1854442   1857180   1859782  
  7340.000000   1862188   1864418   1866550   1868702   1870974  
  7330.000000   1873412   1875980   1878575   1881057   1883307  
  7320.000000   1885267   1886969   1888505   1890018   1891629  
  7310.000000   1893432   1895439   1897612   1899858   1902082  
  7300.000000   1904196   1906142   1907888   1909421   1910736  
  7290.000000   1911833   1912706   1913367   1913845   1914206  
  7280.000000   1914544   1914979   1915624   1916565   1917817  
  7270.000000   1919325   1920966   1922582   1924029   1925208  
  7260.000000   1926105   1926776   1927340   1927911   1928596  
  7250.000000   1929434   1930434   1931560   1932790   1934113  
  7240.000000   1935561   1937168   1938984   1941017   1943263  
  7230.000000   1945664   1948177   1950731   1953302   1955846  
  7220.000000   1958369   1960856   1963335   1965830   1968420  
  7210.000000   1971180   1974212   1977577   1981305   1985347  
  7200.000000   1989617   1993988   1998368   2002693   2006976  
  7190.000000   2011254   2015603   2020048   2024597   2029177  
  7180.000000   2033715   2038113   2042341   2046397   2050358  
  7170.000000   2054319   2058409   2062732   2067384   2072406  
  7160.000000   2077810   2083548   2089554   2095724   2101969  
  7150.000000   2108194   2114365   2120468   2126557   2132680  
  7140.000000   2138911   2145260   2151726   2158245   2164783  
  7130.000000   2171300   2177823   2184396   2191103   2197993  
  7120.000000   2205105   2212412   2219881   2227451   2235098  
  7110.000000   2242804   2250589   2258458   2266423   2274459  
  7100.000000   2282560   2290710   2298937   2307274   2315778  
  7090.000000   2324466   2333328   2342296   2351285   2360201  
  7080.000000   2369001   2377676   2386281   2394876   2403528  
  7070.000000   2412260   2421070   2429921   2438784   2447638  
  7060.000000   2456488   2465346   2474223   2483115   2491999  
  7050.000000   2500852   2509654   2518406   2527120   2535814  
  7040.000000   2544484   2553106   2561631   2570010   2578206  
  7030.000000   2586219   2594076   2601831   2609529   2617209  
  7020.000000   2624868   2632499   2640070   2647574   2654998  
  7010.000000   2662361   2669663   2676917   2684101   2691203  
  7000.000000   2698184   2705026   2711696   2718189   2724487  
  6990.000000   2730605   2736549   2742364   2748073   2753725  
  6980.000000   2759321   2764854   2770259   2775472   2780409  
  6970.000000   2785038   2789348   2793399   2797261   2801033  
  6960.000000   2804775   2808542   2812342   2816192   2820078  
  6950.000000   2824005   2827943   2831866   2835700   2839378  
  6940.000000   2842824   2846013   2848958   2851735   2854438  
  6930.000000   2857163   2859956   2862818   2865689   2868501  
  6920.000000   2871180   2873703   2876073   2878342   2880554  
  6910.000000   2882757   2884959   2887158   2889320   2891420  
  6900.000000   2893431   2895343   2897150   2898866   2900498  
  6890.000000   2902068   2903582   2905048   2906452   2907778  
  6880.000000   2909002   2910116   2911130   2912091   2913057  
  6870.000000   2914092   2915230   2916470   2917764   2919046  
  6860.000000   2920252   2921350   2922347   2923286   2924216  
  6850.000000   2925182   2926198   2927263   2928367   2929517  
  6840.000000   2930729   2932030   2933420   2934861   2936267  
  6830.000000   2937533   2938562   2939317   2939824   2940179  
  6820.000000   2940498   2940884   2941376   2941961   2942580  
  6810.000000   2943178   2943721   2944227   2944731   2945275  
  6800.000000   2945861   2946459   2946997   2947412   2947663  
  6790.000000   2947756   2947727   2947632   2947502   2947351  
  6780.000000   2947157   2946906   2946583   2946213   2945826  
  6770.000000   2945460   2945127   2944819   2944500   2944143  
  6760.000000   2943730   2943274   2942793   2942309   2941815  
  6750.000000   2941286   2940675   2939957   2939130   2938236  
  6740.000000   2937336   2936497   2935752   2935096   2934488  
  6730.000000   2933871   2933197   2932448   2931629   2930771  
  6720.000000   2929898   2929034   2928184   2927356   2926554  
  6710.000000   2925785   2925044   2924310   2923533   2922652  
  6700.000000   2921600   2920353   2918924   2917388   2915840  
  6690.000000   2914381   2913072   2911927   2910902   2909924  
  6680.000000   2908901   2907757   2906431   2904895   2903140  
  6670.000000   2901194   2899113   2896988   2894927   2893041  
  6660.000000   2891398   2890011   2888816   2887705   2886544  
  6650.000000   2885236   2883735   2882070   2880304   2878512  
  6640.000000   2876736   2874977   2873198   2871357   2869428  
  6630.000000   2867422   2865372   2863325   2861303   2859309  
  6620.000000   2857314   2855293   2853231   2851143   2849054  
  6610.000000   2846992   2844960   2842933   2840868   2838729  
  6600.000000   2836507   2834236   2831971   2829773   2827678  
  6590.000000   2825681   2823745   2821820   2819870   2817887  
  6580.000000   2815888   2813905   2811960   2810052   2808165  
  6570.000000   2806276   2804375   2802473   2800600   2798780  
  6560.000000   2797028   2795323   2793628   2791896   2790102  
  6550.000000   2788244   2786357   2784485   2782678   2780964  
  6540.000000   2779364   2777885   2776535   2775324   2774256  
  6530.000000   2773317   2772469   2771645   2770782   2769822  
  6520.000000   2768754   2767596   2766401   2765212   2764058  
  6510.000000   2762925   2761785   2760603   2759372   2758123  
  6500.000000   2756918   2755826   2754891   2754115   2753452  
  6490.000000   2752828   2752165   2751407   2750528   2749536  
  6480.000000   2748453   2747306   2746118   2744910   2743701  
  6470.000000   2742515   2741370   2740273   2739206   2738135  
  6460.000000   2737013   2735811   2734523   2733187   2731860  
  6450.000000   2730607   2729469   2728453   2727527   2726641  
  6440.000000   2725749   2724822   2723861   2722882   2721904  
  6430.000000   2720932   2719963   2718980   2717980   2716969  
  6420.000000   2715975   2715027   2714150   2713349   2712612  
  6410.000000   2711920   2711255   2710614   2710008   2709446  
  6400.000000   2708934   2708456   2707986   2707492   2706955  
  6390.000000   2706376   2705776   2705184   2704629   2704122  
  6380.000000   2703659   2703229   2702817   2702421   2702045  
  6370.000000   2701691   2701354   2701009   2700624   2700164  
  6360.000000   2699610   2698967   2698263   2697538   2696830  
  6350.000000   2696161   2695540   2694965   2694428   2693928  
  6340.000000   2693464   2693038   2692634   2692236   2691814  
  6330.000000   2691350   2690830   2690263   2689658   2689024  
  6320.000000   2688344   2687591   2686715   2685680   2684466  
  6310.000000   2683095   2681606   2680064   2678516   2676996  
  6300.000000   2675505   2674039   2672580   2671129   2669686  
  6290.000000   2668262   2666845   2665421   2663947   2662389  
  6280.000000   2660716   2658932   2657052   2655115   2653143  
  6270.000000   2651150   2649117   2647017   2644815   2642501  
  6260.000000   2640077   2637577   2635034   2632492   2629971  
  6250.000000   2627488   2625041   2622634   2620260   2617925  
  6240.000000   2615622   2613345   2611076   2608799   2606494  
  6230.000000   2604149   2601753   2599306   2596805   2594253  
  6220.000000   2591651   2589010   2586341   2583668   2581010  
  6210.000000   2578387   2575806   2573263   2570749   2568249  
  6200.000000   2565757   2563270   2560791   2558324   2555872  
  6190.000000   2553430   2550993   2548559   2546133   2543726  
  6180.000000   2541354   2539031   2536768   2534567   2532429  
  6170.000000   2530352   2528332   2526364   2524438   2522532  
  6160.000000   2520623   2518686   2516710   2514696   2512670  
  6150.000000   2510664   2508709   2506821   2504994   2503202  
  6140.000000   2501416   2499610   2497777   2495922   2494065  
  6130.000000   2492218   2490388   2488565   2486743   2484918  
  6120.000000   2483108   2481342   2479659   2478086   2476637  
  6110.000000   2475299   2474049   2472853   2471692   2470555  
  6100.000000   2469448   2468375   2467343   2466342   2465365  
  6090.000000   2464395   2463435   2462486   2461567   2460686  
  6080.000000   2459854   2459065   2458318   2457603   2456932  
  6070.000000   2456311   2455765   2455298   2454918   2454607  
  6060.000000   2454352   2454129   2453938   2453777   2453667  
  6050.000000   2453616   2453638   2453725   2453876   2454081  
  6040.000000   2454353   2454701   2455154   2455726   2456427  
  6030.000000   2457239   2458143   2459101   2460093   2461100  
  6020.000000   2462127   2463175   2464255   2465361   2466491  
  6010.000000   2467628   2468769   2469908   2471054   2472215  
  6000.000000   2473403   2474619   2475870   2477147   2478452  
  5990.000000   2479776   2481119   2482474   2483844   2485225  
  5980.000000   2486630   2488070   2489571   2491150   2492826  
  5970.000000   2494593   2496444   2498352   2500302   2502282  
  5960.000000   2504304   2506381   2508541   2510787   2513123  
  5950.000000   2515522   2517965   2520428   2522908   2525409  
  5940.000000   2527951   2530544   2533192   2535883   2538598  
  5930.000000   2541318   2544034   2546747   2549466   2552195  
  5920.000000   2554928   2557645   2560318   2562920   2565436  
  5910.000000   2567867   2570227   2572534   2574809   2577064  
  5900.000000   2579313   2581570   2583856   2586197   2588613  
  5890.000000   2591120   2593708   2596357   2599035   2601715  
  5880.000000   2604378   2607021   2609646   2612246   2614807  
  5870.000000   2617295   2619677   2621926   2624045   2626062  
  5860.000000   2628031   2630005   2632035   2634149   2636359  
  5850.000000   2638663   2641063   2643562   2646168   2648881  
  5840.000000   2651687   2654553   2657443   2660322   2663177  
  5830.000000   2666017   2668868   2671753   2674680   2677624  
  5820.000000   2680539   2683373   2686082   2688659   2691120  
  5810.000000   2693510   2695859   2698195   2700498   2702747  
  5800.000000   2704891   2706916   2708799   2710568   2712224  
  5790.000000   2713792   2715246   2716568   2717693   2718577  
  5780.000000   2719153   2719389   2719249   2718736   2717857  
  5770.000000   2716660   2715204   2713581   2711880   2710196  
  5760.000000   2708594   2707125   2705802   2704631   2703605  
  5750.000000   2702724   2701987   2701395   2700940   2700601  
  5740.000000   2700352   2700157   2699997   2699854   2699737  
  5730.000000   2699649   2699615   2699635   2699722   2699867  
  5720.000000   2700078   2700349   2700688   2701088   2701549  
  5710.000000   2702055   2702599   2703169   2703773   2704417  
  5700.000000   2705117   2705876   2706688   2707530   2708373  
  5690.000000   2709195   2709986   2710761   2711540   2712351  
  5680.000000   2713197   2714069   2714928   2715731   2716430  
  5670.000000   2716994   2717396   2717626   2717665   2717504  
  5660.000000   2717130   2716549   2715780   2714877   2713896  
  5650.000000   2712908   2711959   2711081   2710270   2709518  
  5640.000000   2708800   2708110   2707436   2706783   2706145  
  5630.000000   2705513   2704875   2704221   2703554   2702886  
  5620.000000   2702241   2701635   2701072   2700534   2699987  
  5610.000000   2699394   2698731   2697994   2697201   2696387  
  5600.000000   2695581   2694804   2694059   2693336   2692617  
  5590.000000   2691889   2691142   2690371   2689569   2688729  
  5580.000000   2687840   2686902   2685915   2684897   2683861  
  5570.000000   2682821   2681771   2680697   2679575   2678391  
  5560.000000   2677142   2675851   2674553   2673285   2672069  
  5550.000000   2670908   2669784   2668670   2667543   2666393  
  5540.000000   2665226   2664056   2662892   2661739   2660594  
  5530.000000   2659452   2658321   2657216   2656159   2655168  
  5520.000000   2654242   2653359   2652480   2651562   2650575  
  5510.000000   2649511   2648384   2647224   2646057   2644901  
  5500.000000   2643753   2642603   2641435   2640245   2639029  
  5490.000000   2637793   2636535   2635246   2633907   2632505  
  5480.000000   2631027   2629487   2627901   2626302   2624705  
  5470.000000   2623124   2621548   2619964   2618352   2616703  
  5460.000000   2615002   2613243   2611408   2609481   2607445  
  5450.000000   2605296   2603050   2600740   2598412   2596107  
  5440.000000   2593851   2591649   2589500   2587400   2585365  
  5430.000000   2583415   2581578   2579860   2578249   2576697  
  5420.000000   2575163   2573606   2572033   2570475   2569009  
  5410.000000   2567693   2566580   2565663   2564924   2564312  
  5400.000000   2563813   2563412   2563140   2563010   2563051  
  5390.000000   2563239   2563562   2563976   2564484   2565086  
  5380.000000   2565841   2566780   2567958   2569359   2570982  
  5370.000000   2572767   2574700   2576737   2578912   2581216  
  5360.000000   2583708   2586379   2589288   2592421   2595854  
  5350.000000   2599595   2603745   2608312   2613376   2618896  
  5340.000000   2624912   2631355   2638278   2645638   2653522  
  5330.000000   2661895   2670829   2680254   2690215   2700633  
  5320.000000   2711587   2723047   2735160   2747929   2761509  
  5310.000000   2775867   2791101   2807119   2823981   2841591  
  5300.000000   2860031   2879250   2899376   2920399   2942462  
  5290.000000   2965542   2989718   3014879   3040990   3067859  
  5280.000000   3095417   3123530   3152239   3181552   3211607  
  5270.000000   3242433   3274047   3306291   3338939   3371700  
  5260.000000   3404330   3436702   3468800   3500729   3532560  
  5250.000000   3564351   3595966   3627241   3657848   3687605  
  5240.000000   3716297   3743981   3770664   3796570   3821740  
  5230.000000   3846328   3870225   3893421   3915686   3936982  
  5220.000000   3957139   3976251   3994296   4011487   4027856  
  5210.000000   4043597   4058651   4073079   4086701   4099505  
  5200.000000   4111325   4122235   4132186   4141349   4149721  
  5190.000000   4157444   4164447   4170792   4176364   4181223  
  5180.000000   4185302   4188709   4191416   4193526   4194978  
  5170.000000   4195832   4196017   4195612   4194603   4193123  
  5160.000000   4191187   4188899   4186216   4183169   4179670  
  5150.000000   4175741   4171344   4166562   4161413   4155993  
  5140.000000   4150300   4144386   4138214   4131815   4125173  
  5130.000000   4118346   4111348   4104239   4097015   4089699  
  5120.000000   4082262   4074715   4067049   4059302   4051492  
  5110.000000   4043664   4035826   4027990   4020136   4012262  
  5100.000000   4004349   3996411   3988451   3980491   3972534  
  5090.000000   3964592   3956658   3948739   3940829   3932938  
  5080.000000   3925056   3917176   3909268   3901305   3893248  
  5070.000000   3885083   3876801   3868423   3859969   3851475  
  5060.000000   3842958   3834435   3825902   3817362   3808810  
  5050.000000   3800257   3791712   3783191   3774700   3766243  
  5040.000000   3757815   3749407   3741012   3732624   3724251  
  5030.000000   3715899   3707585   3699323   3691136   3683033  
  5020.000000   3675037   3667148   3659381   3651726   3644191  
  5010.000000   3636766   3629469   3622299   3615295   3608467  
  5000.000000   3601859   3595471   3589331   3583418   3577751  
  4990.000000   3572302   3567100   3562128   3557432   3552998  
  4980.000000   3548870   3545024   3541496   3538258   3535353  
  4970.000000   3532762   3530542   3528674   3527210   3526112  
  4960.000000   3525412   3525060   3525086   3525449   3526199  
  4950.000000   3527310   3528833   3530734   3533043   3535706  
  4940.000000   3538740   3542090   3545788   3549795   3554154  
  4930.000000   3558833   3563866   3569212   3574889   3580852  
  4920.000000   3587118   3593647   3600461   3607525   3614858  
  4910.000000   3622425   3630242   3638277   3646545   3655018  
  4900.000000   3663702   3672568   3681612   3690806   3700144  
  4890.000000   3709609   3719193   3728879   3738640   3748439  
  4880.000000   3758224   3767944   3777543   3786988   3796241  
  4870.000000   3805296   3814128   3822738   3831100   3839216  
  4860.000000   3847065   3854667   3862023   3869178   3876145  
  4850.000000   3882973   3889666   3896257   3902730   3909104  
  4840.000000   3915352   3921488   3927485   3933358   3939083  
  4830.000000   3944672   3950101   3955380   3960479   3965399  
  4820.000000   3970106   3974600   3978855   3982885   3986688  
  4810.000000   3990300   3993732   3997027   4000192   4003255  
  4800.000000   4006214   4009090   4011876   4014596   4017245  
  4790.000000   4019845   4022385   4024876   4027305   4029682  
  4780.000000   4031996   4034264   4036480   4038659   4040785  
  4770.000000   4042860   4044854   4046761   4048551   4050224  
  4760.000000   4051754   4053145   4054369   4055430   4056302  
  4750.000000   4056991   4057479   4057783   4057890   4057817  
  4740.000000   4057547   4057090   4056425   4055567   4054505  
  4730.000000   4053270   4051866   4050329   4048666   4046904  
  4720.000000   4045038   4043083   4041027   4038883   4036645  
  4710.000000   4034328   4031937   4029500   4027030   4024564  
  4700.000000   4022120   4019727   4017391   4015116   4012883  
  4690.000000   4010674   4008460   4006227   4003961   4001663  
  4680.000000   3999338   3996988   3994610   3992191   3989720  
  4670.000000   3987178   3984567   3981891   3979181   3976469  
  4660.000000   3973802   3971218   3968761   3966453   3964323  
  4650.000000   3962379   3960634   3959077   3957705   3956493  
  4640.000000   3955427   3954486   3953665   3952956   3952365  
  4630.000000   3951885   3951513   3951222   3950982   3950750  
  4620.000000   3950489   3950164   3949760   3949264   3948677  
  4610.000000   3948000   3947236   3946391   3945475   3944507  
  4600.000000   3943509   3942514   3941547   3940629   3939766  
  4590.000000   3938957   3938186   3937443   3936708   3935971  
  4580.000000   3935215   3934426   3933583   3932671   3931672  
  4570.000000   3930586   3929416   3928180   3926893   3925575  
  4560.000000   3924226   3922847   3921422   3919940   3918389  
  4550.000000   3916769   3915083   3913342   3911554   3909730  
  4540.000000   3907880   3906013   3904146   3902293   3900479  
  4530.000000   3898710   3897011   3895376   3893830   3892369  
  4520.000000   3891033   3889828   3888813   3887993   3887433  
  4510.000000   3887129   3887151   3887499   3888262   3889448  
  4500.000000   3891156   3893384   3896212   3899603   3903620  
  4490.000000   3908213   3913454   3919311   3925872   3933110  
  4480.000000   3941098   3949780   3959191   3969249   3979971  
  4470.000000   3991276   4003177   4015601   4028549   4041936  
  4460.000000   4055741   4069868   4084278   4098875   4113617  
  4450.000000   4128415   4143220   4157962   4172601   4187105  
  4440.000000   4201467   4215704   4229829   4243883   4257858  
  4430.000000   4271780   4285597   4299313   4312839   4326171  
  4420.000000   4339198   4351911   4364183   4375995   4387210  
  4410.000000   4397806   4407643   4416702   4424852   4432085  
  4400.000000   4438293   4443500   4447652   4450830   4453055  
  4390.000000   4454470   4455152   4455264   4454896   4454190  
  4380.000000   4453227   4452127   4450979   4449909   4449031  
  4370.000000   4448473   4448352   4448763   4449788   4451463  
  4360.000000   4453819   4456841   4460515   4464783   4469588  
  4350.000000   4474843   4480461   4486360   4492477   4498774  
  4340.000000   4505231   4511826   4518500   4525132   4531518  
  4330.000000   4537381   4542404   4546298   4548861   4550051  
  4320.000000   4549986   4548968   4547377   4545660   4544169  
  4310.000000   4543198   4542850   4543154   4543989   4545231  
  4300.000000   4546700   4548273   4549827   4551292   4552611  
  4290.000000   4553755   4554708   4555473   4556071   4556538  
  4280.000000   4556918   4557268   4557629   4558062   4558587  
  4270.000000   4559246   4560021   4560899   4561789   4562586  
  4260.000000   4563116   4563214   4562706   4561491   4559528  
  4250.000000   4556887   4553706   4550199   4546578   4543057  
  4240.000000   4539770   4536811   4534177   4531838   4529708  
  4230.000000   4527710   4525752   4523766   4521685   4519453  
  4220.000000   4517036   4514404   4511568   4508551   4505432  
  4210.000000   4502287   4499232   4496354   4493744   4491441  
  4200.000000   4489478   4487829   4486478   4485362   4484454  
  4190.000000   4483689   4483061   4482526   4482117   4481818  
  4180.000000   4481696   4481755   4482077   4482670   4483620  
  4170.000000   4484934   4486702   4488934   4491723   4495064  
  4160.000000   4499026   4503567   4508716   4514394   4520619  
  4150.000000   4527312   4534516   4542178   4550367   4559049  
  4140.000000   4568295   4578066   4588422   4599311   4610780  
  4130.000000   4622767   4635307   4648330   4661863   4675843  
  4120.000000   4690301   4705193   4720564   4736389   4752712  
  4110.000000   4769506   4786789   4804507   4822636   4841090  
  4100.000000   4859818   4878728   4897780   4916917   4936134  
  4090.000000   4955420   4974787   4994240   5013776   5033394  
  4080.000000   5053074   5072822   5092620   5112485   5132383  
  4070.000000   5152306   5172172   5191936   5211484   5230783  
  4060.000000   5249740   5268371   5286608   5304486   5321922  
  4050.000000   5338949   5355470   5371533   5387047   5402076  
  4040.000000   5416506   5430363   5443477   5455841   5467271  
  4030.000000   5477789   5487254   5495727   5503095   5509403  
  4020.000000   5514503   5518452   5521202   5522869   5523416  
  4010.000000   5523060   5521920   5520077   5517296   5513697  
  4000.000000   5509682  
##END= 
