##TITLE= Sample 036 By ssteindl date Donnerstag, November 22 2018
##JCAMP-DX= 4.24
##DATA TYPE= INFRARED SPECTRUM
##ORIGIN= Exported PE Spectrum Data File
##OWNER= Sandra Steindl
##DATE= 18/11/22
##TIME= 11:26:13.00
##SPECTROMETER/DATA SYSTEM= PERKIN-ELMER Frontier FT-IR/NIR IR
##INSTRUMENT PARAMETERS=
  APODIZATION=stark
  DETECTOR=INGAAS
##RESOLUTION= 16.000000
##DELTAX= -2.000000
##XUNITS= 1/CM
##YUNITS= A
##XFACTOR= 1.00
##YFACTOR= 0.00000011920928955078
##FIRSTX= 10000.00
##LASTX= 4000.00
##NPOINTS= 3001
##FIRSTY= 0.288981
##MAXY= 0.631484
##MINY= 0.204267
##XYDATA= (X++(Y..Y))
 10000.000000   2424146   2422546   2420667   2418183   2415197  
  9990.000000   2412124   2409340   2406970   2404940   2402951  
  9980.000000   2400605   2397540   2393706   2389375   2385057  
  9970.000000   2381326   2378591   2377000   2376405   2376496  
  9960.000000   2377007   2377820   2379052   2380853   2383232  
  9950.000000   2385812   2387845   2388388   2386752   2382830  
  9940.000000   2377342   2371628   2367256   2365408   2366447  
  9930.000000   2369746   2373957   2377516   2379260   2378800  
  9920.000000   2376586   2373637   2371017   2369474   2369145  
  9910.000000   2369754   2370840   2372132   2373662   2375692  
  9900.000000   2378446   2381840   2385315   2387973   2388796  
  9890.000000   2387065   2382575   2375773   2367606   2359279  
  9880.000000   2351930   2346406   2343089   2341909   2342332  
  9870.000000   2343497   2344337   2343830   2341245   2336411  
  9860.000000   2329773   2322354   2315415   2310111   2307140  
  9850.000000   2306546   2307824   2310092   2312462   2314246  
  9840.000000   2315050   2314712   2313129   2310184   2305820  
  9830.000000   2300174   2293832   2287722   2282986   2280462  
  9820.000000   2280344   2281978   2284043   2285056   2283971  
  9810.000000   2280642   2275934   2271368   2268548   2268448  
  9800.000000   2271064   2275371   2279808   2282850   2283659  
  9790.000000   2282287   2279648   2277029   2275602   2276011  
  9780.000000   2278176   2281483   2285002   2287905   2289659  
  9770.000000   2290189   2289814   2289118   2288727   2289095  
  9760.000000   2290318   2292027   2293462   2293622   2291657  
  9750.000000   2287149   2280410   2272467   2264812   2258996  
  9740.000000   2256098   2256460   2259549   2264260   2269260  
  9730.000000   2273493   2276396   2278018   2278780   2279231  
  9720.000000   2279762   2280475   2281253   2281808   2281889  
  9710.000000   2281258   2279743   2277190   2273481   2268666  
  9700.000000   2262990   2257049   2251617   2247535   2245361  
  9690.000000   2245182   2246512   2248435   2249873   2249957  
  9680.000000   2248241   2244830   2240242   2235236   2230577  
  9670.000000   2226870   2224517   2223636   2224137   2225613  
  9660.000000   2227445   2228783   2228778   2226767   2222555  
  9650.000000   2216555   2209756   2203490   2199036   2197248  
  9640.000000   2198307   2201723   2206550   2211691   2216227  
  9630.000000   2219541   2221400   2221788   2220873   2218854  
  9620.000000   2215998   2212632   2209151   2206038   2203708  
  9610.000000   2202556   2202744   2204372   2207308   2211380  
  9600.000000   2216192   2221177   2225508   2228114   2227953  
  9590.000000   2224145   2216438   2205227   2191683   2177392  
  9580.000000   2164036   2153000   2145087   2140577   2139256  
  9570.000000   2140782   2144691   2150562   2157798   2165603  
  9560.000000   2172945   2178706   2182037   2182507   2180408  
  9550.000000   2176461   2171758   2167214   2163453   2160602  
  9540.000000   2158454   2156711   2155151   2153852   2152985  
  9530.000000   2152792   2153260   2154189   2155182   2155878  
  9520.000000   2156079   2155758   2155020   2153894   2152306  
  9510.000000   2150039   2146919   2142961   2138522   2134260  
  9500.000000   2130951   2129195   2129168   2130521   2132494  
  9490.000000   2134209   2134977   2134546   2133111   2131199  
  9480.000000   2129411   2128212   2127817   2128192   2129172  
  9470.000000   2130530   2132053   2133491   2134513   2134726  
  9460.000000   2133721   2131287   2127500   2122825   2117994  
  9450.000000   2113797   2110847   2109356   2109107   2109498  
  9440.000000   2109767   2109211   2107406   2104302   2100225  
  9430.000000   2095773   2091664   2088594   2087089   2087415  
  9420.000000   2089498   2092929   2097052   2101100   2104409  
  9410.000000   2106543   2107388   2107089   2105948   2104243  
  9400.000000   2102147   2099686   2096875   2093819   2090834  
  9390.000000   2088396   2086968   2086817   2087804   2089434  
  9380.000000   2090963   2091703   2091257   2089686   2087471  
  9370.000000   2085276   2083688   2082945   2082931   2083246  
  9360.000000   2083464   2083299   2082712   2081887   2081068  
  9350.000000   2080471   2080142   2080039   2080079   2080250  
  9340.000000   2080635   2081329   2082337   2083418   2084098  
  9330.000000   2083788   2082011   2078672   2074116   2069108  
  9320.000000   2064559   2061321   2059880   2060285   2062088  
  9310.000000   2064557   2066849   2068236   2068207   2066518  
  9300.000000   2063213   2058569   2053093   2047393   2042108  
  9290.000000   2037728   2034533   2032508   2031396   2030805  
  9280.000000   2030352   2029849   2029315   2028963   2029002  
  9270.000000   2029521   2030412   2031390   2032160   2032490  
  9260.000000   2032356   2031858   2031170   2030381   2029450  
  9250.000000   2028207   2026486   2024269   2021778   2019444  
  9240.000000   2017723   2016927   2017040   2017746   2018524  
  9230.000000   2018913   2018698   2018006   2017202   2016673  
  9220.000000   2016605   2016846   2016974   2016477   2015052  
  9210.000000   2012742   2009979   2007383   2005481   2004492  
  9200.000000   2004196   2004134   2003797   2002941   2001674  
  9190.000000   2000436   1999791   2000096   2001307   2002907  
  9180.000000   2004118   2004136   2002468   1999066   1994405  
  9170.000000   1989310   1984714   1981399   1979799   1980006  
  9160.000000   1981790   1984725   1988248   1991785   1994817  
  9150.000000   1996937   1997880   1997569   1996155   1993962  
  9140.000000   1991425   1988943   1986810   1985160   1983964  
  9130.000000   1983117   1982446   1981852   1981253   1980640  
  9120.000000   1979971   1979187   1978204   1976929   1975331  
  9110.000000   1973373   1971065   1968385   1965333   1961925  
  9100.000000   1958276   1954644   1951451   1949228   1948446  
  9090.000000   1949375   1951919   1955636   1959791   1963589  
  9080.000000   1966371   1967808   1967968   1967199   1965986  
  9070.000000   1964710   1963568   1962492   1961262   1959607  
  9060.000000   1957375   1954602   1951510   1948448   1945739  
  9050.000000   1943658   1942305   1941671   1941585   1941835  
  9040.000000   1942214   1942570   1942834   1942976   1943020  
  9030.000000   1942948   1942720   1942201   1941235   1939672  
  9020.000000   1937492   1934833   1932021   1929534   1927873  
  9010.000000   1927426   1928299   1930307   1933008   1935818  
  9000.000000   1938152   1939568   1939884   1939140   1937558  
  8990.000000   1935427   1933075   1930783   1928783   1927249  
  8980.000000   1926302   1925995   1926244   1926879   1927630  
  8970.000000   1928256   1928563   1928507   1928182   1927763  
  8960.000000   1927416   1927189   1926983   1926576   1925723  
  8950.000000   1924286   1922325   1920122   1918090   1916651  
  8940.000000   1916066   1916343   1917210   1918196   1918782  
  8930.000000   1918541   1917276   1915036   1912106   1908901  
  8920.000000   1905862   1903357   1901619   1900747   1900715  
  8910.000000   1901408   1902631   1904159   1905743   1907146  
  8900.000000   1908148   1908594   1908437   1907716   1906573  
  8890.000000   1905164   1903668   1902180   1900739   1899295  
  8880.000000   1897796   1896213   1894584   1893033   1891722  
  8870.000000   1890819   1890415   1890514   1891035   1891844  
  8860.000000   1892814   1893838   1894868   1895869   1896810  
  8850.000000   1897625   1898241   1898596   1898696   1898624  
  8840.000000   1898530   1898576   1898853   1899351   1899949  
  8830.000000   1900475   1900791   1900844   1900699   1900466  
  8820.000000   1900230   1899972   1899549   1898757   1897453  
  8810.000000   1895673   1893695   1891994   1891074   1891290  
  8800.000000   1892677   1894943   1897548   1899904   1901562  
  8790.000000   1902351   1902392   1902002   1901533   1901220  
  8780.000000   1901124   1901147   1901148   1901013   1900725  
  8770.000000   1900334   1899893   1899421   1898866   1898173  
  8760.000000   1897325   1896413   1895626   1895185   1895241  
  8750.000000   1895773   1896572   1897298   1897622   1897363  
  8740.000000   1896580   1895563   1894716   1894419   1894867  
  8730.000000   1896045   1897732   1899628   1901432   1902947  
  8720.000000   1904083   1904834   1905213   1905200   1904753  
  8710.000000   1903810   1902374   1900485   1898267   1895852  
  8700.000000   1893392   1891008   1888808   1886921   1885505  
  8690.000000   1884755   1884834   1885833   1887691   1890196  
  8680.000000   1892999   1895715   1898030   1899779   1900994  
  8670.000000   1901837   1902552   1903321   1904235   1905212  
  8660.000000   1906072   1906576   1906542   1905906   1904746  
  8650.000000   1903285   1901816   1900652   1900024   1900057  
  8640.000000   1900739   1901934   1903434   1904974   1906325  
  8630.000000   1907299   1907823   1907916   1907718   1907434  
  8620.000000   1907331   1907659   1908623   1910312   1912690  
  8610.000000   1915588   1918743   1921865   1924698   1927088  
  8600.000000   1928993   1930479   1931664   1932672   1933586  
  8590.000000   1934430   1935175   1935779   1936207   1936476  
  8580.000000   1936624   1936717   1936787   1936853   1936892  
  8570.000000   1936882   1936788   1936599   1936300   1935894  
  8560.000000   1935369   1934739   1934042   1933377   1932889  
  8550.000000   1932743   1933063   1933858   1934989   1936170  
  8540.000000   1937059   1937346   1936876   1935702   1934092  
  8530.000000   1932445   1931166   1930550   1930715   1931585  
  8520.000000   1932938   1934488   1935966   1937172   1937994  
  8510.000000   1938408   1938463   1938262   1937952   1937697  
  8500.000000   1937667   1937975   1938657   1939637   1940765  
  8490.000000   1941857   1942766   1943432   1943904   1944306  
  8480.000000   1944790   1945448   1946295   1947241   1948163  
  8470.000000   1948934   1949516   1949951   1950361   1950895  
  8460.000000   1951669   1952758   1954159   1955851   1957774  
  8450.000000   1959904   1962208   1964651   1967135   1969506  
  8440.000000   1971555   1973059   1973821   1973732   1972808  
  8430.000000   1971198   1969147   1966957   1964919   1963272  
  8420.000000   1962129   1961503   1961276   1961292   1961360  
  8410.000000   1961348   1961185   1960891   1960549   1960260  
  8400.000000   1960095   1960052   1960061   1960003   1959767  
  8390.000000   1959296   1958621   1957873   1957251   1956963  
  8380.000000   1957140   1957810   1958854   1960040   1961056  
  8370.000000   1961596   1961441   1960517   1958925   1956908  
  8360.000000   1954795   1952905   1951459   1950518   1949975  
  8350.000000   1949619   1949206   1948572   1947680   1946651  
  8340.000000   1945695   1945040   1944809   1944985   1945405  
  8330.000000   1945812   1945963   1945683   1944948   1943845  
  8320.000000   1942543   1941207   1939938   1938765   1937648  
  8310.000000   1936553   1935472   1934464   1933640   1933124  
  8300.000000   1932994   1933233   1933704   1934165   1934334  
  8290.000000   1933954   1932879   1931108   1928817   1926325  
  8280.000000   1924031   1922324   1921456   1921505   1922322  
  8270.000000   1923604   1924955   1926003   1926492   1926326  
  8260.000000   1925567   1924359   1922869   1921203   1919406  
  8250.000000   1917476   1915422   1913321   1911337   1909706  
  8240.000000   1908641   1908279   1908580   1909364   1910302  
  8230.000000   1911041   1911279   1910856   1909786   1908221  
  8220.000000   1906403   1904561   1902859   1901348   1899973  
  8210.000000   1898615   1897148   1895502   1893689   1891811  
  8200.000000   1890002   1888404   1887086   1886050   1885208  
  8190.000000   1884444   1883658   1882813   1881947   1881146  
  8180.000000   1880487   1879986   1879565   1879068   1878307  
  8170.000000   1877140   1875525   1873548   1871389   1869266  
  8160.000000   1867339   1865681   1864242   1862910   1861548  
  8150.000000   1860066   1858439   1856711   1854944   1853192  
  8140.000000   1851471   1849768   1848069   1846377   1844731  
  8130.000000   1843176   1841753   1840447   1839203   1837927  
  8120.000000   1836549   1835043   1833464   1831925   1830563  
  8110.000000   1829479   1828711   1828222   1827924   1827716  
  8100.000000   1827519   1827286   1826998   1826640   1826182  
  8090.000000   1825580   1824793   1823817   1822702   1821545  
  8080.000000   1820458   1819523   1818751   1818072   1817356  
  8070.000000   1816465   1815311   1813889   1812289   1810658  
  8060.000000   1809158   1807906   1806948   1806242   1805690  
  8050.000000   1805174   1804591   1803893   1803087   1802241  
  8040.000000   1801442   1800791   1800352   1800145   1800131  
  8030.000000   1800212   1800261   1800138   1799732   1798975  
  8020.000000   1797856   1796412   1794715   1792856   1790933  
  8010.000000   1789051   1787316   1785835   1784700   1783967  
  8000.000000   1783621   1783573   1783655   1783668   1783432  
  7990.000000   1782838   1781893   1780707   1779473   1778386  
  7980.000000   1777596   1777147   1776985   1776971   1776946  
  7970.000000   1776769   1776368   1775738   1774925   1774001  
  7960.000000   1773035   1772080   1771174   1770347   1769637  
  7950.000000   1769081   1768717   1768555   1768568   1768691  
  7940.000000   1768825   1768862   1768721   1768361   1767800  
  7930.000000   1767105   1766375   1765709   1765188   1764846  
  7920.000000   1764677   1764633   1764650   1764661   1764618  
  7910.000000   1764502   1764321   1764105   1763899   1763737  
  7900.000000   1763642   1763604   1763597   1763571   1763476  
  7890.000000   1763274   1762959   1762563   1762154   1761828  
  7880.000000   1761678   1761774   1762137   1762734   1763476  
  7870.000000   1764249   1764928   1765414   1765646   1765611  
  7860.000000   1765337   1764889   1764347   1763800   1763330  
  7850.000000   1762998   1762828   1762795   1762821   1762788  
  7840.000000   1762559   1762028   1761150   1759972   1758624  
  7830.000000   1757288   1756147   1755328   1754870   1754724  
  7820.000000   1754777   1754907   1755021   1755086   1755117  
  7810.000000   1755155   1755227   1755312   1755352   1755256  
  7800.000000   1754954   1754414   1753673   1752821   1751980  
  7790.000000   1751268   1750761   1750491   1750425   1750502  
  7780.000000   1750634   1750743   1750760   1750646   1750384  
  7770.000000   1749983   1749469   1748873   1748226   1747538  
  7760.000000   1746806   1746000   1745089   1744050   1742887  
  7750.000000   1741637   1740369   1739170   1738119   1737278  
  7740.000000   1736672   1736299   1736126   1736113   1736212  
  7730.000000   1736385   1736589   1736791   1736953   1737038  
  7720.000000   1737011   1736838   1736493   1735955   1735217  
  7710.000000   1734283   1733175   1731936   1730626   1729311  
  7700.000000   1728058   1726915   1725905   1725026   1724260  
  7690.000000   1723585   1722982   1722450   1722000   1721649  
  7680.000000   1721410   1721282   1721252   1721292   1721371  
  7670.000000   1721447   1721485   1721443   1721290   1720996  
  7660.000000   1720555   1719981   1719319   1718636   1718010  
  7650.000000   1717512   1717185   1717039   1717045   1717148  
  7640.000000   1717281   1717377   1717381   1717256   1716990  
  7630.000000   1716585   1716070   1715488   1714899   1714360  
  7620.000000   1713929   1713644   1713519   1713544   1713688  
  7610.000000   1713906   1714148   1714368   1714528   1714600  
  7600.000000   1714580   1714479   1714332   1714181   1714078  
  7590.000000   1714059   1714139   1714309   1714538   1714797  
  7580.000000   1715065   1715346   1715659   1716021   1716428  
  7570.000000   1716839   1717182   1717376   1717372   1717175  
  7560.000000   1716860   1716546   1716359   1716383   1716631  
  7550.000000   1717038   1717491   1717865   1718088   1718142  
  7540.000000   1718083   1717985   1717923   1717929   1717998  
  7530.000000   1718097   1718210   1718353   1718592   1719025  
  7520.000000   1719745   1720807   1722193   1723808   1725505  
  7510.000000   1727111   1728486   1729536   1730246   1730659  
  7500.000000   1730872   1731003   1731166   1731445   1731890  
  7490.000000   1732513   1733298   1734223   1735261   1736395  
  7480.000000   1737608   1738878   1740167   1741411   1742537  
  7470.000000   1743465   1744160   1744624   1744932   1745187  
  7460.000000   1745518   1746015   1746734   1747658   1748737  
  7450.000000   1749900   1751099   1752316   1753573   1754909  
  7440.000000   1756364   1757957   1759684   1761523   1763455  
  7430.000000   1765459   1767532   1769657   1771813   1773950  
  7420.000000   1776007   1777918   1779640   1781167   1782541  
  7410.000000   1783838   1785147   1786546   1788086   1789770  
  7400.000000   1791563   1793403   1795214   1796934   1798522  
  7390.000000   1799978   1801340   1802685   1804101   1805669  
  7380.000000   1807439   1809403   1811501   1813630   1815684  
  7370.000000   1817575   1819264   1820759   1822108   1823378  
  7360.000000   1824629   1825912   1827260   1828705   1830276  
  7350.000000   1832006   1833905   1835948   1838057   1840110  
  7340.000000   1841976   1843555   1844818   1845816   1846671  
  7330.000000   1847531   1848518   1849689   1851023   1852440  
  7320.000000   1853844   1855167   1856397   1857576   1858778  
  7310.000000   1860065   1861459   1862927   1864401   1865806  
  7300.000000   1867104   1868306   1869481   1870714   1872081  
  7290.000000   1873613   1875286   1877029   1878752   1880379  
  7280.000000   1881872   1883234   1884500   1885713   1886910  
  7270.000000   1888100   1889269   1890386   1891430   1892390  
  7260.000000   1893287   1894155   1895045   1895997   1897045  
  7250.000000   1898201   1899471   1900848   1902337   1903933  
  7240.000000   1905640   1907445   1909333   1911266   1913221  
  7230.000000   1915164   1917099   1919028   1920987   1922998  
  7220.000000   1925093   1927278   1929567   1931957   1934466  
  7210.000000   1937102   1939891   1942834   1945930   1949142  
  7200.000000   1952435   1955765   1959114   1962480   1965889  
  7190.000000   1969360   1972912   1976520   1980148   1983724  
  7180.000000   1987195   1990515   1993688   1996736   1999715  
  7170.000000   2002676   2005681   2008774   2012003   2015396  
  7160.000000   2018980   2022752   2026699   2030778   2034949  
  7150.000000   2039168   2043425   2047721   2052096   2056564  
  7140.000000   2061145   2065795   2070467   2075085   2079622  
  7130.000000   2084074   2088513   2093022   2097708   2102630  
  7120.000000   2107814   2113222   2118801   2124480   2130220  
  7110.000000   2135991   2141792   2147608   2153434   2159245  
  7100.000000   2165049   2170861   2176740   2182741   2188917  
  7090.000000   2195263   2201738   2208246   2214696   2221012  
  7080.000000   2227170   2233189   2239118   2245002   2250871  
  7070.000000   2256731   2262586   2268451   2274364   2280374  
  7060.000000   2286512   2292765   2299060   2305286   2311332  
  7050.000000   2317132   2322698   2328116   2333510   2338989  
  7040.000000   2344600   2350315   2356051   2361723   2367279  
  7030.000000   2372738   2378164   2383644   2389229   2394927  
  7020.000000   2400679   2406408   2412036   2417529   2422877  
  7010.000000   2428096   2433187   2438136   2442904   2447473  
  7000.000000   2451845   2456082   2460257   2464456   2468708  
  6990.000000   2472996   2477233   2481331   2485209   2488861  
  6980.000000   2492323   2495693   2499056   2502488   2506004  
  6970.000000   2509602   2513245   2516915   2520581   2524227  
  6960.000000   2527805   2531260   2534507   2537480   2540136  
  6950.000000   2542494   2544608   2546572   2548468   2550362  
  6940.000000   2552279   2554227   2556191   2558172   2560163  
  6930.000000   2562168   2564166   2566138   2568048   2569887  
  6920.000000   2571657   2573400   2575158   2576967   2578818  
  6910.000000   2580660   2582409   2583987   2585346   2586493  
  6900.000000   2587474   2588360   2589209   2590056   2590901  
  6890.000000   2591746   2592599   2593501   2594506   2595663  
  6880.000000   2596972   2598386   2599806   2601122   2602252  
  6870.000000   2603175   2603940   2604645   2605394   2606266  
  6860.000000   2607288   2608446   2609694   2610987   2612289  
  6850.000000   2613579   2614835   2616035   2617141   2618126  
  6840.000000   2618974   2619702   2620347   2620959   2621566  
  6830.000000   2622171   2622741   2623232   2623605   2623854  
  6820.000000   2624002   2624103   2624208   2624358   2624562  
  6810.000000   2624815   2625101   2625416   2625757   2626129  
  6800.000000   2626520   2626906   2627243   2627490   2627626  
  6790.000000   2627658   2627621   2627559   2627508   2627473  
  6780.000000   2627434   2627361   2627235   2627071   2626912  
  6770.000000   2626821   2626849   2627015   2627300   2627653  
  6760.000000   2628015   2628338   2628606   2628818   2628990  
  6750.000000   2629128   2629234   2629298   2629325   2629338  
  6740.000000   2629385   2629517   2629778   2630178   2630684  
  6730.000000   2631231   2631742   2632157   2632445   2632623  
  6720.000000   2632736   2632846   2633009   2633262   2633615  
  6710.000000   2634052   2634531   2635001   2635401   2635683  
  6700.000000   2635811   2635790   2635653   2635470   2635312  
  6690.000000   2635245   2635291   2635432   2635602   2635725  
  6680.000000   2635724   2635558   2635217   2634732   2634135  
  6670.000000   2633464   2632731   2631941   2631086   2630173  
  6660.000000   2629213   2628243   2627291   2626387   2625534  
  6650.000000   2624722   2623915   2623083   2622186   2621209  
  6640.000000   2620144   2619011   2617836   2616660   2615522  
  6630.000000   2614450   2613447   2612494   2611543   2610537  
  6620.000000   2609423   2608177   2606802   2605338   2603838  
  6610.000000   2602358   2600926   2599550   2598204   2596859  
  6600.000000   2595480   2594050   2592561   2591020   2589431  
  6590.000000   2587799   2586127   2584423   2582696   2580963  
  6580.000000   2579237   2577521   2575809   2574084   2572332  
  6570.000000   2570548   2568746   2566952   2565197   2563506  
  6560.000000   2561887   2560334   2558836   2557385   2555985  
  6550.000000   2554649   2553385   2552187   2551024   2549849  
  6540.000000   2548617   2547297   2545894   2544440   2542986  
  6530.000000   2541572   2540216   2538902   2537591   2536244  
  6520.000000   2534832   2533355   2531835   2530303   2528784  
  6510.000000   2527289   2525814   2524352   2522900   2521465  
  6500.000000   2520057   2518685   2517342   2516010   2514664  
  6490.000000   2513284   2511869   2510436   2509011   2507617  
  6480.000000   2506261   2504928   2503590   2502219   2500798  
  6470.000000   2499332   2497839   2496344   2494868   2493424  
  6460.000000   2492016   2490651   2489336   2488079   2486882  
  6450.000000   2485727   2484581   2483396   2482135   2480784  
  6440.000000   2479367   2477935   2476556   2475279   2474124  
  6430.000000   2473070   2472079   2471107   2470136   2469176  
  6420.000000   2468263   2467434   2466712   2466087   2465531  
  6410.000000   2465004   2464486   2463970   2463475   2463016  
  6400.000000   2462602   2462212   2461818   2461382   2460893  
  6390.000000   2460359   2459819   2459316   2458884   2458531  
  6380.000000   2458241   2457986   2457736   2457478   2457216  
  6370.000000   2456959   2456716   2456479   2456227   2455933  
  6360.000000   2455577   2455154   2454674   2454157   2453620  
  6350.000000   2453071   2452507   2451927   2451333   2450740  
  6340.000000   2450162   2449611   2449076   2448535   2447947  
  6330.000000   2447282   2446526   2445695   2444825   2443962  
  6320.000000   2443138   2442361   2441608   2440840   2440014  
  6310.000000   2439102   2438090   2436988   2435808   2434571  
  6300.000000   2433292   2431988   2430676   2429378   2428108  
  6290.000000   2426868   2425642   2424399   2423103   2421732  
  6280.000000   2420286   2418798   2417313   2415884   2414536  
  6270.000000   2413268   2412044   2410814   2409529   2408162  
  6260.000000   2406709   2405192   2403637   2402067   2400493  
  6250.000000   2398915   2397328   2395729   2394121   2392517  
  6240.000000   2390926   2389355   2387808   2386284   2384782  
  6230.000000   2383302   2381839   2380385   2378924   2377441  
  6220.000000   2375923   2374375   2372816   2371282   2369808  
  6210.000000   2368413   2367095   2365821   2364547   2363230  
  6200.000000   2361852   2360423   2358979   2357564   2356215  
  6190.000000   2354943   2353736   2352566   2351408   2350245  
  6180.000000   2349084   2347936   2346816   2345726   2344655  
  6170.000000   2343585   2342502   2341403   2340302   2339223  
  6160.000000   2338194   2337228   2336323   2335459   2334606  
  6150.000000   2333738   2332834   2331885   2330896   2329874  
  6140.000000   2328834   2327788   2326750   2325728   2324733  
  6130.000000   2323767   2322830   2321918   2321028   2320160  
  6120.000000   2319323   2318530   2317801   2317147   2316575  
  6110.000000   2316081   2315658   2315291   2314976   2314705  
  6100.000000   2314477   2314280   2314104   2313925   2313729  
  6090.000000   2313501   2313248   2312986   2312751   2312570  
  6080.000000   2312474   2312473   2312573   2312766   2313051  
  6070.000000   2313417   2313867   2314386   2314973   2315601  
  6060.000000   2316263   2316935   2317628   2318343   2319116  
  6050.000000   2319971   2320949   2322068   2323354   2324803  
  6040.000000   2326420   2328186   2330089   2332097   2334193  
  6030.000000   2336346   2338548   2340783   2343059   2345371  
  6020.000000   2347726   2350102   2352489   2354859   2357205  
  6010.000000   2359525   2361847   2364202   2366633   2369160  
  6000.000000   2371795   2374516   2377304   2380126   2382977  
  5990.000000   2385851   2388771   2391749   2394803   2397928  
  5980.000000   2401126   2404379   2407695   2411071   2414531  
  5970.000000   2418081   2421739   2425497   2429360   2433311  
  5960.000000   2437357   2441488   2445710   2450011   2454382  
  5950.000000   2458796   2463245   2467719   2472236   2476821  
  5940.000000   2481510   2486324   2491259   2496290   2501366  
  5930.000000   2506437   2511457   2516402   2521258   2526015  
  5920.000000   2530650   2535125   2539383   2543374   2547061  
  5910.000000   2550447   2553559   2556465   2559228   2561925  
  5900.000000   2564602   2567311   2570072   2572924   2575873  
  5890.000000   2578940   2582105   2585345   2588602   2591821  
  5880.000000   2594934   2597893   2600661   2603221   2605565  
  5870.000000   2607700   2609640   2611413   2613058   2614631  
  5860.000000   2616188   2617783   2619448   2621202   2623039  
  5850.000000   2624954   2626937   2628990   2631118   2633328  
  5840.000000   2635616   2637965   2640353   2642749   2645137  
  5830.000000   2647502   2649850   2652182   2654504   2656810  
  5820.000000   2659098   2661364   2663623   2665896   2668212  
  5810.000000   2670596   2673051   2675570   2678120   2680689  
  5800.000000   2683253   2685838   2688449   2691123   2693835  
  5790.000000   2696568   2699225   2701725   2703937   2705768  
  5780.000000   2707109   2707894   2708051   2707555   2706387  
  5770.000000   2704597   2702256   2699509   2696503   2693416  
  5760.000000   2690374   2687493   2684808   2682353   2680108  
  5750.000000   2678074   2676226   2674556   2673034   2671628  
  5740.000000   2670296   2668996   2667702   2666395   2665080  
  5730.000000   2663754   2662427   2661084   2659728   2658352  
  5720.000000   2656976   2655628   2654346   2653155   2652064  
  5710.000000   2651054   2650092   2649145   2648200   2647265  
  5700.000000   2646372   2645553   2644823   2644175   2643573  
  5690.000000   2642977   2642351   2641688   2640996   2640303  
  5680.000000   2639617   2638934   2638208   2637382   2636382  
  5670.000000   2635153   2633650   2631862   2629786   2627445  
  5660.000000   2624863   2622093   2619191   2616239   2613309  
  5650.000000   2610469   2607751   2605162   2602678   2600270  
  5640.000000   2597912   2595603   2593359   2591202   2589157  
  5630.000000   2587224   2585398   2583653   2581978   2580364  
  5620.000000   2578824   2577364   2575996   2574707   2573483  
  5610.000000   2572290   2571120   2569966   2568851   2567798  
  5600.000000   2566836   2565968   2565189   2564474   2563801  
  5590.000000   2563149   2562515   2561899   2561303   2560722  
  5580.000000   2560142   2559544   2558914   2558245   2557541  
  5570.000000   2556812   2556067   2555308   2554527   2553715  
  5560.000000   2552861   2551964   2551028   2550061   2549069  
  5550.000000   2548054   2547013   2545947   2544864   2543781  
  5540.000000   2542716   2541689   2540704   2539751   2538811  
  5530.000000   2537867   2536910   2535949   2535001   2534088  
  5520.000000   2533219   2532392   2531586   2530775   2529932  
  5510.000000   2529046   2528109   2527126   2526096   2525021  
  5500.000000   2523895   2522721   2521504   2520260   2519002  
  5490.000000   2517738   2516455   2515134   2513745   2512277  
  5480.000000   2510730   2509137   2507534   2505960   2504427  
  5470.000000   2502927   2501428   2499896   2498312   2496679  
  5460.000000   2495018   2493357   2491707   2490061   2488392  
  5450.000000   2486666   2484863   2482985   2481062   2479139  
  5440.000000   2477262   2475460   2473750   2472126   2470585  
  5430.000000   2469113   2467704   2466335   2464989   2463631  
  5420.000000   2462250   2460841   2459451   2458137   2456984  
  5410.000000   2456043   2455341   2454840   2454490   2454213  
  5400.000000   2453978   2453765   2453615   2453556   2453639  
  5390.000000   2453867   2454242   2454730   2455333   2456042  
  5380.000000   2456903   2457936   2459184   2460628   2462262  
  5370.000000   2464020   2465884   2467806   2469811   2471894  
  5360.000000   2474116   2476478   2479044   2481813   2484860  
  5350.000000   2488197   2491917   2496027   2500599   2505595  
  5340.000000   2511045   2516878   2523132   2529757   2536826  
  5330.000000   2544304   2552268   2560668   2569565   2578904  
  5320.000000   2588773   2599150   2610167   2621817   2634228  
  5310.000000   2647357   2661284   2675919   2691318   2707398  
  5300.000000   2724243   2741812   2760229   2779483   2799697  
  5290.000000   2820832   2842942   2865900   2889651   2914002  
  5280.000000   2938881   2964161   2989890   3016086   3042897  
  5270.000000   3070371   3098552   3127320   3156500   3185844  
  5260.000000   3215148   3244296   3273280   3302189   3331099  
  5250.000000   3360064   3388984   3417721   3445998   3473647  
  5240.000000   3500473   3526498   3551715   3576290   3600256  
  5230.000000   3623729   3646626   3668938   3690485   3711238  
  5220.000000   3731067   3750057   3768199   3785680   3802540  
  5210.000000   3818942   3834832   3850242   3864988   3879021  
  5200.000000   3892165   3904460   3915858   3926514   3936447  
  5190.000000   3945799   3954526   3962683   3970163   3977009  
  5180.000000   3983154   3988703   3993643   3998089   4001999  
  5170.000000   4005426   4008281   4010593   4012298   4013470  
  5160.000000   4014098   4014283   4014010   4013345   4012240  
  5150.000000   4010739   4008798   4006479   4003768   4000734  
  5140.000000   3997368   3993727   3989795   3985626   3981217  
  5130.000000   3976626   3971855   3966942   3961868   3956643  
  5120.000000   3951241   3945683   3939975   3934169   3928296  
  5110.000000   3922407   3916514   3910631   3904744   3898853  
  5100.000000   3892951   3887056   3881180   3875350   3869574  
  5090.000000   3863863   3858212   3852621   3847083   3841599  
  5080.000000   3836159   3830756   3825367   3819975   3814551  
  5070.000000   3809082   3803550   3797955   3792286   3786540  
  5060.000000   3780696   3774743   3768660   3762445   3756097  
  5050.000000   3749636   3743074   3736435   3729722   3722948  
  5040.000000   3716110   3709220   3702285   3695327   3688361  
  5030.000000   3681405   3674465   3667543   3660640   3653760  
  5020.000000   3646919   3640138   3633449   3626875   3620440  
  5010.000000   3614144   3607989   3601948   3596016   3590166  
  5000.000000   3584406   3578728   3573165   3567728   3562466  
  4990.000000   3557395   3552565   3547978   3543665   3539601  
  4980.000000   3535796   3532204   3528834   3525649   3522681  
  4970.000000   3519920   3517428   3515208   3513324   3511768  
  4960.000000   3510589   3509758   3509310   3509206   3509482  
  4950.000000   3510097   3511090   3512421   3514129   3516175  
  4940.000000   3518606   3521386   3524566   3528111   3532065  
  4930.000000   3536382   3541093   3546146   3551573   3557334  
  4920.000000   3563473   3569965   3576856   3584121   3591790  
  4910.000000   3599825   3608235   3616972   3626028   3635354  
  4900.000000   3644933   3654721   3664687   3674794   3684999  
  4890.000000   3695263   3705522   3715724   3725777   3735623  
  4880.000000   3745155   3754330   3763055   3771310   3779011  
  4870.000000   3786150   3792631   3798446   3803504   3807821  
  4860.000000   3811343   3814136   3816192   3817610   3818394  
  4850.000000   3818640   3818347   3817598   3816397   3814832  
  4840.000000   3812926   3810772   3808404   3805908   3803315  
  4830.000000   3800693   3798069   3795496   3792997   3790606  
  4820.000000   3788339   3786207   3784218   3782370   3780673  
  4810.000000   3779126   3777750   3776545   3775534   3774708  
  4800.000000   3774085   3773645   3773402   3773334   3773454  
  4790.000000   3773737   3774188   3774779   3775507   3776342  
  4780.000000   3777287   3778328   3779476   3780725   3782081  
  4770.000000   3783529   3785057   3786637   3788254   3789887  
  4760.000000   3791533   3793188   3794857   3796536   3798219  
  4750.000000   3799890   3801536   3803142   3804707   3806237  
  4740.000000   3807750   3809267   3810807   3812383   3814000  
  4730.000000   3815648   3817319   3818993   3820660   3822303  
  4720.000000   3823921   3825504   3827069   3828623   3830203  
  4710.000000   3831832   3833567   3835440   3837507   3839792  
  4700.000000   3842332   3845129   3848196   3851518   3855093  
  4690.000000   3858900   3862931   3867161   3871577   3876139  
  4680.000000   3880822   3885567   3890337   3895068   3899732  
  4670.000000   3904283   3908722   3913039   3917267   3921427  
  4660.000000   3925572   3929746   3934011   3938425   3943047  
  4650.000000   3947924   3953087   3958541   3964256   3970187  
  4640.000000   3976256   3982390   3988510   3994563   4000494  
  4630.000000   4006281   4011885   4017289   4022446   4027332  
  4620.000000   4031893   4036106   4039927   4043357   4046372  
  4610.000000   4049002   4051245   4053158   4054760   4056127  
  4600.000000   4057284   4058308   4059209   4060040   4060782  
  4590.000000   4061452   4062005   4062434   4062683   4062738  
  4580.000000   4062548   4062108   4061388   4060405   4059159  
  4570.000000   4057692   4056031   4054235   4052335   4050385  
  4560.000000   4048399   4046411   4044412   4042413   4040393  
  4550.000000   4038351   4036260   4034117   4031901   4029610  
  4540.000000   4027233   4024775   4022235   4019624   4016944  
  4530.000000   4014203   4011402   4008543   4005632   4002670  
  4520.000000   3999680   3996669   3993675   3990706   3987808  
  4510.000000   3984981   3982279   3979707   3977342   3975209  
  4500.000000   3973416   3971999   3971076   3970666   3970872  
  4490.000000   3971683   3973190   3975369   3978314   3982001  
  4480.000000   3986524   3991845   3998039   4005038   4012891  
  4470.000000   4021506   4030913   4041012   4051827   4063256  
  4460.000000   4075316   4087908   4101042   4114626   4128668  
  4450.000000   4143088   4157894   4173025   4188486   4204231  
  4440.000000   4220248   4236493   4252922   4269477   4286078  
  4430.000000   4302659   4319121   4335411   4351431   4367150  
  4420.000000   4382476   4397389   4411787   4425645   4438846  
  4410.000000   4451356   4463059   4473934   4483897   4492978  
  4400.000000   4501157   4508535   4515164   4521199   4526734  
  4390.000000   4531945   4536928   4541842   4546754   4551770  
  4380.000000   4556909   4562214   4567655   4573238   4578927  
  4370.000000   4584731   4590638   4596669   4602822   4609100  
  4360.000000   4615473   4621919   4628372   4634816   4641165  
  4350.000000   4647424   4653496   4659400   4665034   4670441  
  4340.000000   4675537   4680367   4684815   4688802   4692020  
  4330.000000   4694124   4694587   4692934   4688745   4681883  
  4320.000000   4672498   4661114   4648484   4635513   4623031  
  4310.000000   4611713   4601936   4593838   4587319   4582178  
  4300.000000   4578176   4575107   4572843   4571282   4570403  
  4290.000000   4570144   4570508   4571426   4572907   4574882  
  4280.000000   4577343   4580210   4583417   4586858   4590426  
  4270.000000   4594029   4597565   4600954   4604061   4606721  
  4260.000000   4608677   4609647   4609323   4607490   4604039  
  4250.000000   4599072   4592831   4585733   4578210   4570724  
  4240.000000   4563595   4557065   4551185   4545944   4541209  
  4230.000000   4536852   4532720   4528704   4524725   4520734  
  4220.000000   4516740   4512750   4508842   4505055   4501500  
  4210.000000   4498224   4495323   4492820   4490773   4489169  
  4200.000000   4488027   4487308   4487003   4487050   4487423  
  4190.000000   4488042   4488873   4489827   4490884   4491974  
  4180.000000   4493105   4494242   4495432   4496673   4498045  
  4170.000000   4499571   4501344   4503388   4505785   4508539  
  4160.000000   4511707   4515269   4519260   4523646   4528456  
  4150.000000   4533655   4539277   4545282   4551712   4558528  
  4140.000000   4565779   4573428   4581526   4590027   4598965  
  4130.000000   4608271   4617960   4627958   4638293   4648930  
  4120.000000   4659945   4671355   4683270   4695726   4708814  
  4110.000000   4722540   4736941   4751968   4767604   4783756  
  4100.000000   4800362   4817310   4834521   4851893   4869363  
  4090.000000   4886869   4904380   4921872   4939330   4956759  
  4080.000000   4974144   4991505   5008812   5026077   5043219  
  4070.000000   5060203   5076879   5093166   5108886   5123977  
  4060.000000   5138307   5151884   5164634   5176618   5187795  
  4050.000000   5198259   5207999   5217149   5225721   5233856  
  4040.000000   5241531   5248824   5255640   5262000   5267791  
  4030.000000   5273054   5277724   5281878   5285485   5288610  
  4020.000000   5291192   5293283   5294877   5296046   5296769  
  4010.000000   5297157   5297269   5297094   5296429   5295280  
  4000.000000   5293881  
##END= 
