##TITLE= Sample 026 By ssteindl date Donnerstag, November 22 2018
##JCAMP-DX= 4.24
##DATA TYPE= INFRARED SPECTRUM
##ORIGIN= Exported PE Spectrum Data File
##OWNER= Sandra Steindl
##DATE= 18/11/22
##TIME= 11:15:06.00
##SPECTROMETER/DATA SYSTEM= PERKIN-ELMER Frontier FT-IR/NIR IR
##INSTRUMENT PARAMETERS=
  APODIZATION=stark
  DETECTOR=INGAAS
##RESOLUTION= 16.000000
##DELTAX= -2.000000
##XUNITS= 1/CM
##YUNITS= A
##XFACTOR= 1.00
##YFACTOR= 0.00000011920928955078
##FIRSTX= 10000.00
##LASTX= 4000.00
##NPOINTS= 3001
##FIRSTY= 0.246429
##MAXY= 0.602739
##MINY= 0.180671
##XYDATA= (X++(Y..Y))
 10000.000000   2067193   2070022   2072663   2074275   2073582  
  9990.000000   2069657   2062590   2053530   2044130   2036068  
  9980.000000   2030534   2027945   2027726   2028704   2029589  
  9970.000000   2029533   2028306   2026312   2024223   2022631  
  9960.000000   2021699   2021164   2020535   2019371   2017607  
  9950.000000   2015474   2013471   2011922   2010894   2010024  
  9940.000000   2008747   2006517   2003079   1998619   1993712  
  9930.000000   1989179   1985829   1984318   1985017   1987999  
  9920.000000   1993030   1999537   2006641   2013181   2017963  
  9910.000000   2019977   2018779   2014638   2008578   2002103  
  9900.000000   1996761   1993701   1993330   1995306   1998722  
  9890.000000   2002527   2005847   2008227   2009562   2009962  
  9880.000000   2009481   2008081   2005606   2002016   1997507  
  9870.000000   1992630   1988208   1985098   1983943   1984904  
  9860.000000   1987581   1991062   1994125   1995539   1994384  
  9850.000000   1990269   1983527   1975127   1966572   1959500  
  9840.000000   1955325   1954791   1957760   1963221   1969605  
  9830.000000   1975299   1979158   1980872   1980965   1980533  
  9820.000000   1980705   1982180   1984957   1988388   1991527  
  9810.000000   1993540   1994059   1993269   1991700   1989959  
  9800.000000   1988344   1986834   1985075   1982711   1979536  
  9790.000000   1975665   1971425   1967194   1963167   1959301  
  9780.000000   1955366   1951155   1946678   1942202   1938187  
  9770.000000   1935010   1932795   1931313   1930089   1928674  
  9760.000000   1926852   1924833   1923152   1922499   1923398  
  9750.000000   1925981   1929892   1934341   1938356   1940975  
  9740.000000   1941548   1939747   1935695   1929781   1922676  
  9730.000000   1915146   1908001   1901960   1897530   1894942  
  9720.000000   1894083   1894630   1896105   1898122   1900391  
  9710.000000   1902828   1905386   1907991   1910423   1912309  
  9700.000000   1913299   1913127   1911852   1909728   1907200  
  9690.000000   1904615   1902124   1899602   1896755   1893331  
  9680.000000   1889304   1885018   1881096   1878286   1877127  
  9670.000000   1877793   1879930   1882840   1885674   1887759  
  9660.000000   1888798   1888884   1888433   1887880   1887558  
  9650.000000   1887462   1887359   1886810   1885442   1883053  
  9640.000000   1879768   1876026   1872443   1869717   1868345  
  9630.000000   1868632   1870514   1873720   1877746   1882047  
  9620.000000   1886055   1889297   1891384   1892033   1891082  
  9610.000000   1888466   1884308   1878841   1872509   1865812  
  9600.000000   1859295   1853381   1848278   1843993   1840346  
  9590.000000   1837202   1834554   1832673   1831980   1832908  
  9580.000000   1835620   1839857   1844898   1849721   1853319  
  9570.000000   1854983   1854616   1852664   1850065   1847765  
  9560.000000   1846492   1846379   1847036   1847656   1847401  
  9550.000000   1845730   1842605   1838579   1834514   1831444  
  9540.000000   1830119   1830984   1833950   1838565   1844072  
  9530.000000   1849603   1854352   1857619   1858933   1857993  
  9520.000000   1854742   1849326   1842157   1833887   1825371  
  9510.000000   1817567   1811352   1807405   1806008   1807065  
  9500.000000   1810018   1814061   1818208   1821558   1823415  
  9490.000000   1823419   1821627   1818403   1814415   1810346  
  9480.000000   1806859   1804337   1802902   1802364   1802329  
  9470.000000   1802367   1802120   1801514   1800698   1800078  
  9460.000000   1800070   1800958   1802719   1804974   1807104  
  9450.000000   1808404   1808327   1806626   1803414   1799134  
  9440.000000   1794391   1789844   1786008   1783230   1781627  
  9430.000000   1781125   1781481   1782296   1783056   1783175  
  9420.000000   1782111   1779490   1775263   1769757   1763677  
  9410.000000   1757924   1753387   1750689   1750034   1751185  
  9400.000000   1753575   1756505   1759345   1761648   1763211  
  9390.000000   1763971   1763990   1763326   1762090   1760409  
  9380.000000   1758479   1756548   1754868   1753682   1753158  
  9370.000000   1753422   1754498   1756350   1758810   1761574  
  9360.000000   1764173   1765984   1766376   1764824   1761185  
  9350.000000   1755748   1749291   1742864   1737511   1734007  
  9340.000000   1732625   1733197   1735193   1738050   1741300  
  9330.000000   1744721   1748210   1751646   1754739   1757003  
  9320.000000   1757917   1757063   1754404   1750290   1745469  
  9310.000000   1740799   1736996   1734434   1733061   1732563  
  9300.000000   1732496   1732549   1732585   1732661   1732865  
  9290.000000   1733204   1733543   1733642   1733277   1732334  
  9280.000000   1730893   1729193   1727573   1726345   1725700  
  9270.000000   1725692   1726251   1727245   1728482   1729719  
  9260.000000   1730654   1730949   1730313   1728578   1725785  
  9250.000000   1722208   1718308   1714620   1711608   1709543  
  9240.000000   1708458   1708203   1708521   1709156   1709872  
  9230.000000   1710490   1710852   1710827   1710320   1709308  
  9220.000000   1707914   1706376   1705027   1704126   1703767  
  9210.000000   1703812   1703953   1703847   1703256   1702186  
  9200.000000   1700888   1699747   1699102   1699071   1699496  
  9190.000000   1699969   1700001   1699203   1697476   1695031  
  9180.000000   1692345   1689983   1688440   1688003   1688680  
  9170.000000   1690253   1692310   1694421   1696170   1697307  
  9160.000000   1697750   1697636   1697260   1696958   1696988  
  9150.000000   1697382   1697905   1698045   1697180   1694796  
  9140.000000   1690749   1685355   1679341   1673692   1669341  
  9130.000000   1666910   1666467   1667593   1669518   1671422  
  9120.000000   1672663   1672945   1672372   1671288   1670130  
  9110.000000   1669174   1668510   1667984   1667371   1666440  
  9100.000000   1665116   1663508   1661901   1660712   1660316  
  9090.000000   1660986   1662739   1665391   1668553   1671708  
  9080.000000   1674311   1675874   1676102   1674886   1672329  
  9070.000000   1668709   1664459   1660073   1656019   1652706  
  9060.000000   1650428   1649335   1649352   1650233   1651594  
  9050.000000   1652991   1654011   1654350   1653898   1652709  
  9040.000000   1650959   1648877   1646697   1644646   1642943  
  9030.000000   1641824   1641533   1642279   1644145   1646974  
  9020.000000   1650320   1653485   1655685   1656217   1654689  
  9010.000000   1651146   1646116   1640454   1635135   1631024  
  9000.000000   1628708   1628394   1629868   1632633   1636001  
  8990.000000   1639292   1641890   1643395   1643654   1642772  
  8980.000000   1641083   1639011   1637027   1635428   1634333  
  8970.000000   1633607   1632983   1632167   1630949   1629368  
  8960.000000   1627658   1626255   1625562   1625885   1627287  
  8950.000000   1629553   1632226   1634697   1636389   1636821  
  8940.000000   1635744   1633160   1629399   1625006   1620662  
  8930.000000   1617030   1614627   1613695   1614129   1615536  
  8920.000000   1617359   1619080   1620342   1621076   1621455  
  8910.000000   1621787   1622341   1623219   1624318   1625362  
  8900.000000   1626051   1626172   1625724   1624891   1623962  
  8890.000000   1623203   1622748   1622560   1622445   1622156  
  8880.000000   1621494   1620381   1618890   1617205   1615558  
  8870.000000   1614157   1613121   1612486   1612211   1612219  
  8860.000000   1612431   1612791   1613291   1613935   1614728  
  8850.000000   1615629   1616545   1617309   1617734   1617649  
  8840.000000   1617006   1615897   1614596   1613461   1612846  
  8830.000000   1612977   1613862   1615288   1616873   1618224  
  8820.000000   1619064   1619341   1619226   1619029   1619066  
  8810.000000   1619518   1620377   1621436   1622409   1623023  
  8800.000000   1623154   1622831   1622231   1621591   1621129  
  8790.000000   1620997   1621243   1621861   1622799   1624013  
  8780.000000   1625446   1627036   1628682   1630259   1631625  
  8770.000000   1632643   1633215   1633281   1632847   1631945  
  8760.000000   1630661   1629094   1627384   1625694   1624202  
  8750.000000   1623076   1622435   1622347   1622799   1623731  
  8740.000000   1625031   1626580   1628252   1629931   1631506  
  8730.000000   1632863   1633921   1634619   1634972   1635028  
  8720.000000   1634891   1634650   1634386   1634133   1633915  
  8710.000000   1633754   1633714   1633893   1634385   1635242  
  8700.000000   1636402   1637719   1638973   1639995   1640721  
  8690.000000   1641266   1641875   1642839   1644350   1646388  
  8680.000000   1648699   1650830   1652302   1652741   1652031  
  8670.000000   1650319   1647971   1645447   1643172   1641462  
  8660.000000   1640466   1640226   1640683   1641759   1643327  
  8650.000000   1645231   1647251   1649140   1650669   1651672  
  8640.000000   1652109   1652028   1651589   1650926   1650162  
  8630.000000   1649326   1648451   1647578   1646841   1646447  
  8620.000000   1646621   1647539   1649215   1651506   1654116  
  8610.000000   1656734   1659132   1661245   1663183   1665120  
  8600.000000   1667209   1669426   1671581   1673326   1674335  
  8590.000000   1674399   1673559   1672096   1670477   1669208  
  8580.000000   1668669   1669051   1670309   1672242   1674548  
  8570.000000   1676946   1679215   1681235   1682954   1684379  
  8560.000000   1685548   1686524   1687390   1688230   1689118  
  8550.000000   1690088   1691106   1692081   1692880   1693397  
  8540.000000   1693586   1693497   1693246   1692972   1692771  
  8530.000000   1692649   1692502   1692174   1691525   1690522  
  8520.000000   1689283   1688078   1687258   1687149   1687930  
  8510.000000   1689568   1691804   1694222   1696363   1697856  
  8500.000000   1698526   1698426   1697820   1697086   1696610  
  8490.000000   1696656   1697309   1698447   1699812   1701073  
  8480.000000   1701943   1702248   1701993   1701334   1700543  
  8470.000000   1699908   1699673   1699961   1700763   1701947  
  8460.000000   1703324   1704716   1706015   1707220   1708421  
  8450.000000   1709760   1711359   1713257   1715380   1717547  
  8440.000000   1719533   1721119   1722176   1722694   1722782  
  8430.000000   1722631   1722429   1722330   1722397   1722627  
  8420.000000   1722950   1723294   1723596   1723837   1723988  
  8410.000000   1724040   1723939   1723659   1723163   1722496  
  8400.000000   1721765   1721153   1720849   1720960   1721453  
  8390.000000   1722119   1722609   1722521   1721525   1719491  
  8380.000000   1716567   1713163   1709839   1707177   1705615  
  8370.000000   1705334   1706194   1707803   1709636   1711188  
  8360.000000   1712095   1712204   1711594   1710497   1709230  
  8350.000000   1708062   1707176   1706618   1706346   1706256  
  8340.000000   1706242   1706244   1706249   1706317   1706499  
  8330.000000   1706863   1707415   1708121   1708882   1709556  
  8320.000000   1709991   1710030   1709562   1708508   1706863  
  8310.000000   1704696   1702167   1699501   1696970   1694840  
  8300.000000   1693333   1692569   1692530   1693070   1693940  
  8290.000000   1694872   1695628   1696081   1696224   1696172  
  8280.000000   1696111   1696214   1696582   1697191   1697907  
  8270.000000   1698520   1698812   1698620   1697884   1696667  
  8260.000000   1695118   1693426   1691754   1690198   1688769  
  8250.000000   1687405   1686005   1684479   1682781   1680954  
  8240.000000   1679093   1677353   1675874   1674779   1674111  
  8230.000000   1673856   1673923   1674173   1674436   1674537  
  8220.000000   1674319   1673663   1672505   1670840   1668743  
  8210.000000   1666356   1663881   1661536   1659509   1657915  
  8200.000000   1656759   1655943   1655286   1654580   1653651  
  8190.000000   1652411   1650882   1649176   1647452   1645853  
  8180.000000   1644467   1643305   1642319   1641440   1640615  
  8170.000000   1639843   1639171   1638672   1638397   1638330  
  8160.000000   1638365   1638321   1637982   1637156   1635737  
  8150.000000   1633734   1631286   1628621   1626008   1623687  
  8140.000000   1621799   1620364   1619281   1618372   1617439  
  8130.000000   1616328   1614973   1613407   1611737   1610103  
  8120.000000   1608617   1607328   1606216   1605216   1604264  
  8110.000000   1603331   1602452   1601689   1601104   1600698  
  8100.000000   1600391   1600022   1599404   1598386   1596929  
  8090.000000   1595124   1593188   1591383   1589936   1588960  
  8080.000000   1588429   1588196   1588061   1587839   1587432  
  8070.000000   1586831   1586111   1585372   1584699   1584124  
  8060.000000   1583630   1583171   1582704   1582220   1581744  
  8050.000000   1581328   1581019   1580845   1580786   1580794  
  8040.000000   1580794   1580712   1580487   1580073   1579455  
  8030.000000   1578620   1577579   1576337   1574914   1573339  
  8020.000000   1571656   1569933   1568256   1566734   1565474  
  8010.000000   1564584   1564124   1564106   1564471   1565092  
  8000.000000   1565804   1566417   1566777   1566767   1566350  
  7990.000000   1565547   1564443   1563154   1561819   1560578  
  7980.000000   1559557   1558859   1558538   1558596   1558958  
  7970.000000   1559497   1560039   1560418   1560502   1560226  
  7960.000000   1559601   1558689   1557595   1556410   1555221  
  7950.000000   1554083   1553047   1552154   1551449   1550966  
  7940.000000   1550714   1550672   1550782   1550978   1551202  
  7930.000000   1551433   1551684   1551982   1552342   1552722  
  7920.000000   1553031   1553131   1552903   1552278   1551298  
  7910.000000   1550094   1548871   1547830   1547120   1546792  
  7900.000000   1546796   1547015   1547309   1547569   1547737  
  7890.000000   1547824   1547878   1547978   1548200   1548600  
  7880.000000   1549213   1550028   1550999   1552021   1552959  
  7870.000000   1553647   1553948   1553784   1553180   1552267  
  7860.000000   1551259   1550403   1549903   1549884   1550338  
  7850.000000   1551164   1552178   1553191   1554034   1554602  
  7840.000000   1554849   1554776   1554413   1553801   1552988  
  7830.000000   1552028   1550988   1549950   1549002   1548227  
  7820.000000   1547686   1547412   1547388   1547569   1547866  
  7810.000000   1548181   1548410   1548473   1548328   1547981  
  7800.000000   1547488   1546933   1546406   1545971   1545648  
  7790.000000   1545403   1545163   1544851   1544412   1543851  
  7780.000000   1543228   1542647   1542213   1541992   1541975  
  7770.000000   1542075   1542142   1542021   1541594   1540833  
  7760.000000   1539807   1538668   1537599   1536760   1536227  
  7750.000000   1535970   1535865   1535724   1535371   1534681  
  7740.000000   1533627   1532277   1530770   1529274   1527939  
  7730.000000   1526876   1526140   1525735   1525630   1525759  
  7720.000000   1526033   1526333   1526528   1526489   1526134  
  7710.000000   1525446   1524510   1523480   1522560   1521921  
  7700.000000   1521667   1521784   1522161   1522625   1523014  
  7690.000000   1523227   1523260   1523186   1523117   1523141  
  7680.000000   1523283   1523496   1523683   1523746   1523628  
  7670.000000   1523334   1522926   1522492   1522112   1521834  
  7660.000000   1521660   1521565   1521500   1521424   1521296  
  7650.000000   1521087   1520773   1520339   1519786   1519138  
  7640.000000   1518448   1517783   1517211   1516773   1516476  
  7630.000000   1516285   1516148   1516015   1515868   1515721  
  7620.000000   1515613   1515580   1515638   1515768   1515930  
  7610.000000   1516075   1516178   1516242   1516300   1516385  
  7600.000000   1516523   1516702   1516887   1517029   1517094  
  7590.000000   1517073   1516999   1516920   1516894   1516954  
  7580.000000   1517108   1517335   1517601   1517872   1518128  
  7570.000000   1518364   1518589   1518817   1519062   1519336  
  7560.000000   1519653   1520018   1520439   1520905   1521397  
  7550.000000   1521878   1522314   1522674   1522952   1523167  
  7540.000000   1523361   1523588   1523906   1524359   1524977  
  7530.000000   1525762   1526696   1527730   1528795   1529798  
  7520.000000   1530650   1531274   1531645   1531796   1531833  
  7510.000000   1531899   1532142   1532669   1533517   1534642  
  7500.000000   1535941   1537284   1538562   1539711   1540719  
  7490.000000   1541605   1542405   1543137   1543816   1544445  
  7480.000000   1545055   1545688   1546416   1547307   1548405  
  7470.000000   1549711   1551177   1552724   1554273   1555770  
  7460.000000   1557201   1558576   1559924   1561255   1562560  
  7450.000000   1563804   1564958   1566011   1566991   1567958  
  7440.000000   1568989   1570147   1571461   1572911   1574448  
  7430.000000   1576002   1577519   1578965   1580344   1581679  
  7420.000000   1583007   1584361   1585772   1587266   1588870  
  7410.000000   1590611   1592516   1594595   1596837   1599193  
  7400.000000   1601588   1603924   1606109   1608075   1609795  
  7390.000000   1611294   1612645   1613950   1615319   1616849  
  7380.000000   1618596   1620567   1622711   1624937   1627129  
  7370.000000   1629180   1631009   1632580   1633911   1635065  
  7360.000000   1636134   1637216   1638396   1639728   1641226  
  7350.000000   1642863   1644579   1646299   1647944   1649460  
  7340.000000   1650816   1652029   1653144   1654235   1655375  
  7330.000000   1656625   1658017   1659538   1661139   1662735  
  7320.000000   1664243   1665591   1666744   1667714   1668566  
  7310.000000   1669403   1670341   1671490   1672918   1674650  
  7300.000000   1676650   1678847   1681138   1683420   1685601  
  7290.000000   1687608   1689395   1690927   1692191   1693177  
  7280.000000   1693898   1694384   1694706   1694959   1695264  
  7270.000000   1695741   1696485   1697548   1698924   1700562  
  7260.000000   1702378   1704279   1706186   1708033   1709790  
  7250.000000   1711432   1712963   1714378   1715704   1716963  
  7240.000000   1718213   1719507   1720922   1722509   1724317  
  7230.000000   1726354   1728613   1731053   1733634   1736305  
  7220.000000   1739028   1741767   1744512   1747257   1750025  
  7210.000000   1752837   1755734   1758739   1761873   1765121  
  7200.000000   1768456   1771824   1775177   1778469   1781682  
  7190.000000   1784814   1787891   1790942   1794006   1797109  
  7180.000000   1800275   1803508   1806810   1810167   1813567  
  7170.000000   1816983   1820401   1823797   1827171   1830518  
  7160.000000   1833860   1837210   1840601   1844052   1847606  
  7150.000000   1851294   1855171   1859273   1863639   1868258  
  7140.000000   1873103   1878094   1883161   1888230   1893292  
  7130.000000   1898364   1903524   1908834   1914355   1920075  
  7120.000000   1925946   1931862   1937736   1943497   1949145  
  7110.000000   1954716   1960287   1965905   1971599   1977337  
  7100.000000   1983072   1988747   1994340   1999859   2005352  
  7090.000000   2010876   2016478   2022179   2027980   2033868  
  7080.000000   2039833   2045868   2051968   2058118   2064282  
  7070.000000   2070405   2076429   2082315   2088063   2093715  
  7060.000000   2099341   2105009   2110754   2116564   2122379  
  7050.000000   2128120   2133716   2139137   2144400   2149563  
  7040.000000   2154700   2159877   2165121   2170437   2175794  
  7030.000000   2181167   2186528   2191874   2197207   2202540  
  7020.000000   2207870   2213190   2218468   2223667   2228737  
  7010.000000   2233636   2238330   2242811   2247091   2251213  
  7000.000000   2255231   2259213   2263203   2267236   2271304  
  6990.000000   2275391   2279452   2283455   2287362   2291160  
  6980.000000   2294826   2298360   2301755   2305031   2308211  
  6970.000000   2311353   2314508   2317735   2321042   2324403  
  6960.000000   2327734   2330935   2333900   2336575   2338953  
  6950.000000   2341096   2343086   2345024   2346968   2348957  
  6940.000000   2350980   2353025   2355068   2357107   2359133  
  6930.000000   2361147   2363124   2365037   2366846   2368530  
  6920.000000   2370080   2371518   2372872   2374177   2375454  
  6910.000000   2376715   2377968   2379231   2380525   2381884  
  6900.000000   2383325   2384842   2386393   2387915   2389342  
  6890.000000   2390635   2391799   2392880   2393947   2395063  
  6880.000000   2396257   2397516   2398793   2400039   2401212  
  6870.000000   2402305   2403332   2404322   2405291   2406237  
  6860.000000   2407136   2407959   2408684   2409309   2409854  
  6850.000000   2410353   2410844   2411366   2411949   2412623  
  6840.000000   2413410   2414326   2415362   2416481   2417617  
  6830.000000   2418683   2419598   2420309   2420805   2421124  
  6820.000000   2421335   2421517   2421731   2422012   2422361  
  6810.000000   2422761   2423184   2423605   2423998   2424344  
  6800.000000   2424625   2424837   2424993   2425131   2425303  
  6790.000000   2425564   2425949   2426453   2427030   2427603  
  6780.000000   2428090   2428435   2428625   2428692   2428690  
  6770.000000   2428676   2428689   2428736   2428811   2428899  
  6760.000000   2428994   2429097   2429211   2429324   2429412  
  6750.000000   2429445   2429409   2429326   2429258   2429293  
  6740.000000   2429518   2429980   2430669   2431511   2432402  
  6730.000000   2433238   2433952   2434521   2434970   2435336  
  6720.000000   2435651   2435927   2436161   2436355   2436525  
  6710.000000   2436717   2436975   2437339   2437807   2438340  
  6700.000000   2438867   2439318   2439640   2439814   2439851  
  6690.000000   2439775   2439604   2439351   2439018   2438628  
  6680.000000   2438216   2437851   2437594   2437494   2437545  
  6670.000000   2437696   2437847   2437900   2437763   2437401  
  6660.000000   2436808   2436020   2435074   2434011   2432864  
  6650.000000   2431671   2430476   2429337   2428294   2427375  
  6640.000000   2426556   2425786   2424987   2424101   2423098  
  6630.000000   2421997   2420843   2419688   2418558   2417442  
  6620.000000   2416300   2415084   2413766   2412358   2410898  
  6610.000000   2409440   2408019   2406641   2405274   2403878  
  6600.000000   2402422   2400908   2399367   2397851   2396400  
  6590.000000   2395027   2393711   2392411   2391078   2389683  
  6580.000000   2388220   2386703   2385152   2383582   2381998  
  6570.000000   2380399   2378784   2377168   2375573   2374027  
  6560.000000   2372548   2371142   2369793   2368472   2367150  
  6550.000000   2365800   2364402   2362943   2361412   2359804  
  6540.000000   2358126   2356402   2354680   2353021   2351484  
  6530.000000   2350107   2348892   2347806   2346790   2345786  
  6520.000000   2344753   2343675   2342556   2341405   2340223  
  6510.000000   2338991   2337689   2336302   2334840   2333342  
  6500.000000   2331862   2330452   2329135   2327899   2326698  
  6490.000000   2325481   2324209   2322879   2321519   2320174  
  6480.000000   2318883   2317662   2316490   2315329   2314134  
  6470.000000   2312877   2311549   2310162   2308735   2307283  
  6460.000000   2305811   2304319   2302811   2301300   2299810  
  6450.000000   2298369   2296999   2295706   2294480   2293301  
  6440.000000   2292152   2291022   2289915   2288836   2287797  
  6430.000000   2286792   2285818   2284863   2283927   2283017  
  6420.000000   2282160   2281377   2280687   2280090   2279573  
  6410.000000   2279108   2278670   2278239   2277808   2277378  
  6400.000000   2276959   2276558   2276191   2275867   2275601  
  6390.000000   2275402   2275273   2275198   2275149   2275081  
  6380.000000   2274957   2274754   2274476   2274161   2273863  
  6370.000000   2273640   2273524   2273522   2273602   2273713  
  6360.000000   2273796   2273804   2273703   2273483   2273142  
  6350.000000   2272689   2272137   2271503   2270807   2270077  
  6340.000000   2269334   2268598   2267868   2267144   2266409  
  6330.000000   2265660   2264893   2264122   2263354   2262597  
  6320.000000   2261838   2261056   2260221   2259313   2258329  
  6310.000000   2257293   2256242   2255222   2254263   2253376  
  6300.000000   2252546   2251748   2250943   2250103   2249202  
  6290.000000   2248230   2247176   2246039   2244821   2243536  
  6280.000000   2242198   2240832   2239453   2238072   2236681  
  6270.000000   2235267   2233812   2232314   2230782   2229246  
  6260.000000   2227739   2226291   2224911   2223588   2222292  
  6250.000000   2220989   2219648   2218255   2216806   2215313  
  6240.000000   2213789   2212255   2210729   2209236   2207799  
  6230.000000   2206439   2205162   2203956   2202786   2201607  
  6220.000000   2200374   2199056   2197650   2196179   2194680  
  6210.000000   2193193   2191744   2190344   2188988   2187665  
  6200.000000   2186371   2185107   2183883   2182702   2181562  
  6190.000000   2180450   2179348   2178242   2177124   2175999  
  6180.000000   2174878   2173769   2172681   2171616   2170582  
  6170.000000   2169589   2168660   2167816   2167069   2166406  
  6160.000000   2165794   2165177   2164498   2163717   2162830  
  6150.000000   2161866   2160878   2159925   2159052   2158275  
  6140.000000   2157581   2156940   2156316   2155676   2155001  
  6130.000000   2154277   2153501   2152670   2151793   2150883  
  6120.000000   2149971   2149088   2148276   2147556   2146943  
  6110.000000   2146429   2146001   2145639   2145337   2145092  
  6100.000000   2144913   2144801   2144757   2144764   2144810  
  6090.000000   2144873   2144950   2145033   2145129   2145231  
  6080.000000   2145340   2145440   2145537   2145632   2145756  
  6070.000000   2145939   2146224   2146628   2147165   2147812  
  6060.000000   2148555   2149360   2150222   2151129   2152094  
  6050.000000   2153107   2154178   2155288   2156445   2157653  
  6040.000000   2158949   2160366   2161954   2163729   2165698  
  6030.000000   2167824   2170069   2172380   2174731   2177100  
  6020.000000   2179491   2181893   2184303   2186686   2189026  
  6010.000000   2191298   2193521   2195726   2197979   2200334  
  6000.000000   2202839   2205499   2208297   2211185   2214121  
  5990.000000   2217062   2219996   2222919   2225856   2228824  
  5980.000000   2231860   2234983   2238231   2241617   2245159  
  5970.000000   2248843   2252648   2256522   2260427   2264321  
  5960.000000   2268202   2272077   2275985   2279952   2284006  
  5950.000000   2288142   2292355   2296623   2300946   2305331  
  5940.000000   2309808   2314402   2319127   2323978   2328924  
  5930.000000   2333922   2338924   2343891   2348786   2353578  
  5920.000000   2358226   2362685   2366903   2370845   2374497  
  5910.000000   2377879   2381036   2384034   2386924   2389759  
  5900.000000   2392559   2395351   2398144   2400978   2403874  
  5890.000000   2406873   2409970   2413155   2416367   2419548  
  5880.000000   2422623   2425542   2428269   2430791   2433105  
  5870.000000   2435212   2437115   2438825   2440363   2441776  
  5860.000000   2443119   2444457   2445840   2447306   2448865  
  5850.000000   2450521   2452268   2454111   2456050   2458086  
  5840.000000   2460210   2462391   2464595   2466785   2468948  
  5830.000000   2471084   2473227   2475407   2477654   2479963  
  5820.000000   2482317   2484673   2487005   2489299   2491574  
  5810.000000   2493869   2496225   2498681   2501238   2503898  
  5800.000000   2506625   2509409   2512211   2515029   2517815  
  5790.000000   2520544   2523129   2525502   2527552   2529200  
  5780.000000   2530351   2530955   2530955   2530347   2529133  
  5770.000000   2527379   2525168   2522648   2519961   2517275  
  5760.000000   2514698   2512323   2510161   2508212   2506427  
  5750.000000   2504779   2503228   2501768   2500384   2499074  
  5740.000000   2497826   2496626   2495459   2494311   2493172  
  5730.000000   2492026   2490863   2489658   2488400   2487077  
  5720.000000   2485703   2484301   2482913   2481569   2480293  
  5710.000000   2479081   2477917   2476774   2475639   2474514  
  5700.000000   2473422   2472393   2471454   2470621   2469886  
  5690.000000   2469238   2468649   2468107   2467590   2467089  
  5680.000000   2466578   2466028   2465391   2464626   2463687  
  5670.000000   2462546   2461183   2459595   2457776   2455735  
  5660.000000   2453480   2451044   2448464   2445806   2443130  
  5650.000000   2440497   2437936   2435462   2433059   2430711  
  5640.000000   2428402   2426133   2423920   2421782   2419738  
  5630.000000   2417793   2415949   2414199   2412548   2410994  
  5620.000000   2409551   2408215   2406980   2405817   2404702  
  5610.000000   2403605   2402523   2401462   2400450   2399507  
  5600.000000   2398651   2397872   2397153   2396470   2395807  
  5590.000000   2395161   2394541   2393956   2393402   2392863  
  5580.000000   2392308   2391711   2391058   2390358   2389639  
  5570.000000   2388933   2388262   2387624   2386996   2386338  
  5560.000000   2385614   2384801   2383897   2382920   2381891  
  5550.000000   2380836   2379768   2378700   2377640   2376601  
  5540.000000   2375591   2374621   2373685   2372769   2371848  
  5530.000000   2370902   2369920   2368908   2367884   2366873  
  5520.000000   2365890   2364938   2364005   2363073   2362124  
  5510.000000   2361150   2360150   2359131   2358094   2357042  
  5500.000000   2355966   2354870   2353756   2352639   2351530  
  5490.000000   2350435   2349336   2348203   2346996   2345687  
  5480.000000   2344267   2342758   2341199   2339638   2338104  
  5470.000000   2336612   2335146   2333684   2332201   2330687  
  5460.000000   2329145   2327584   2326006   2324407   2322776  
  5450.000000   2321105   2319397   2317672   2315964   2314307  
  5440.000000   2312725   2311221   2309790   2308417   2307097  
  5430.000000   2305829   2304621   2303465   2302347   2301232  
  5420.000000   2300094   2298912   2297709   2296529   2295449  
  5410.000000   2294525   2293798   2293251   2292853   2292544  
  5400.000000   2292300   2292103   2291981   2291952   2292051  
  5390.000000   2292269   2292607   2293036   2293568   2294211  
  5380.000000   2295024   2296038   2297300   2298791   2300502  
  5370.000000   2302365   2304361   2306441   2308629   2310910  
  5360.000000   2313332   2315878   2318592   2321461   2324561  
  5350.000000   2327917   2331647   2335789   2340437   2345561  
  5340.000000   2351181   2357204   2363636   2370403   2377559  
  5330.000000   2385066   2393005   2401337   2410134   2419348  
  5320.000000   2429068   2439276   2450105   2461555   2473763  
  5310.000000   2486696   2500440   2514910   2530159   2546100  
  5300.000000   2562812   2580251   2598540   2617668   2637761  
  5290.000000   2658780   2680775   2703617   2727245   2751464  
  5280.000000   2776199   2801322   2826878   2852890   2879503  
  5270.000000   2906771   2934741   2963299   2992271   3021406  
  5260.000000   3050486   3079380   3108055   3136582   3165023  
  5250.000000   3193434   3221721   3249763   3277304   3304192  
  5240.000000   3330245   3355499   3379959   3403808   3427094  
  5230.000000   3449954   3472309   3494144   3515258   3535589  
  5220.000000   3554970   3573454   3591017   3607839   3623974  
  5210.000000   3639601   3654698   3669318   3683305   3696629  
  5200.000000   3709129   3720851   3731748   3741974   3751540  
  5190.000000   3760584   3769055   3777003   3784317   3791029  
  5180.000000   3797060   3802489   3807284   3811541   3815214  
  5170.000000   3818367   3820937   3822987   3824485   3825521  
  5160.000000   3826081   3826237   3825942   3825227   3824022  
  5150.000000   3822367   3820236   3817713   3814811   3811617  
  5140.000000   3808127   3804392   3800387   3796153   3791680  
  5130.000000   3787024   3782184   3777201   3772054   3766754  
  5120.000000   3761274   3755641   3749868   3744017   3738128  
  5110.000000   3732258   3726419   3720623   3714847   3709086  
  5100.000000   3703326   3697576   3691838   3686128   3680439  
  5090.000000   3674771   3669115   3663474   3657858   3652290  
  5080.000000   3646783   3641350   3635972   3630621   3625246  
  5070.000000   3619808   3614266   3608610   3602834   3596955  
  5060.000000   3590983   3584940   3578829   3572667   3566452  
  5050.000000   3560194   3553884   3547520   3541080   3534555  
  5040.000000   3527927   3521202   3514389   3507517   3500616  
  5030.000000   3493716   3486834   3479981   3473157   3466361  
  5020.000000   3459597   3452873   3446208   3439620   3433133  
  5010.000000   3426754   3420499   3414363   3408356   3402467  
  5000.000000   3396712   3391081   3385598   3380260   3375096  
  4990.000000   3370105   3365321   3360734   3356373   3352217  
  4980.000000   3348285   3344551   3341039   3337731   3334670  
  4970.000000   3331847   3329312   3327052   3325105   3323437  
  4960.000000   3322077   3320990   3320215   3319734   3319606  
  4950.000000   3319822   3320441   3321437   3322849   3324629  
  4940.000000   3326803   3329318   3332205   3335422   3339011  
  4930.000000   3342939   3347254   3351925   3357002   3362454  
  4920.000000   3368323   3374571   3381223   3388230   3395600  
  4910.000000   3403285   3411291   3419583   3428167   3437011  
  4900.000000   3446106   3455406   3464870   3474445   3484077  
  4890.000000   3493724   3503332   3512876   3522290   3531545  
  4880.000000   3540551   3549269   3557591   3565479   3572820  
  4870.000000   3579587   3585671   3591059   3595665   3599508  
  4860.000000   3602543   3604839   3606392   3607305   3607593  
  4850.000000   3607359   3606616   3605458   3603896   3602023  
  4840.000000   3599863   3597508   3594989   3592385   3589720  
  4830.000000   3587048   3584383   3581757   3579179   3576673  
  4820.000000   3574255   3571944   3569763   3567728   3565862  
  4810.000000   3564173   3562678   3561373   3560270   3559352  
  4800.000000   3558627   3558074   3557696   3557470   3557396  
  4790.000000   3557448   3557631   3557921   3558326   3558833  
  4780.000000   3559451   3560168   3560986   3561885   3562857  
  4770.000000   3563876   3564938   3566029   3567160   3568333  
  4760.000000   3569568   3570866   3572232   3573652   3575114  
  4750.000000   3576595   3578084   3579570   3581054   3582537  
  4740.000000   3584026   3585521   3587028   3588542   3590069  
  4730.000000   3591604   3593156   3594715   3596284   3597845  
  4720.000000   3599395   3600920   3602436   3603952   3605516  
  4710.000000   3607164   3608957   3610926   3613115   3615528  
  4700.000000   3618184   3621068   3624187   3627528   3631101  
  4690.000000   3634898   3638930   3643182   3647653   3652310  
  4680.000000   3657129   3662051   3667034   3672003   3676914  
  4670.000000   3681708   3686374   3690900   3695327   3699692  
  4660.000000   3704067   3708509   3713087   3717849   3722835  
  4650.000000   3728068   3733557   3739293   3745247   3751383  
  4640.000000   3757641   3763966   3770291   3776572   3782756  
  4630.000000   3788818   3794718   3800438   3805933   3811173  
  4620.000000   3816103   3820693   3824893   3828699   3832086  
  4610.000000   3835089   3837713   3840023   3842041   3843840  
  4600.000000   3845435   3846889   3848195   3849393   3850452  
  4590.000000   3851382   3852131   3852687   3852990   3853026  
  4580.000000   3852749   3852168   3851273   3850109   3848700  
  4570.000000   3847112   3845378   3843555   3841659   3839722  
  4560.000000   3837738   3835723   3833663   3831570   3829436  
  4550.000000   3827272   3825071   3822839   3820562   3818241  
  4540.000000   3815864   3813435   3810953   3808428   3805870  
  4530.000000   3803288   3800687   3798065   3795422   3792748  
  4520.000000   3790050   3787321   3784587   3781853   3779166  
  4510.000000   3776539   3774039   3771688   3769575   3767724  
  4500.000000   3766236   3765125   3764481   3764293   3764638  
  4490.000000   3765487   3766922   3768927   3771606   3774953  
  4480.000000   3779080   3783962   3789682   3796178   3803499  
  4470.000000   3811557   3820382   3829880   3840078   3850885  
  4460.000000   3862321   3874298   3886832   3899841   3913338  
  4450.000000   3927247   3941572   3956239   3971229   3986469  
  4440.000000   4001920   4017516   4033213   4048961   4064714  
  4430.000000   4080442   4096090   4111634   4126999   4142157  
  4420.000000   4157014   4171537   4185619   4199226   4212248  
  4410.000000   4224649   4236316   4247224   4257285   4266516  
  4400.000000   4274888   4282490   4289366   4295667   4301481  
  4390.000000   4306978   4312246   4317432   4322593   4327824  
  4380.000000   4333129   4338544   4344028   4349578   4355147  
  4370.000000   4360734   4366319   4371921   4377538   4383186  
  4360.000000   4388848   4394528   4400189   4405839   4411423  
  4350.000000   4416961   4422368   4427664   4432748   4437653  
  4340.000000   4442297   4446729   4450846   4454585   4457666  
  4330.000000   4459760   4460359   4458989   4455226   4448912  
  4320.000000   4440171   4429488   4417579   4405310   4393483  
  4310.000000   4382750   4373484   4365825   4359689   4354894  
  4300.000000   4351217   4348461   4346494   4345205   4344549  
  4290.000000   4344443   4344874   4345768   4347136   4348923  
  4280.000000   4351136   4353708   4356585   4359671   4362870  
  4270.000000   4366100   4369281   4372354   4375208   4377699  
  4260.000000   4379583   4380579   4380371   4378726   4375515  
  4250.000000   4370815   4364851   4358024   4350761   4343523  
  4240.000000   4336636   4330353   4324742   4319800   4315408  
  4230.000000   4311440   4307743   4304196   4300703   4297196  
  4220.000000   4293662   4290091   4286544   4283061   4279754  
  4210.000000   4276685   4273974   4271665   4269830   4268463  
  4200.000000   4267569   4267081   4266958   4267106   4267480  
  4190.000000   4268002   4268660   4269412   4270281   4271239  
  4180.000000   4272320   4273489   4274775   4276150   4277661  
  4170.000000   4279313   4281190   4283322   4285802   4288649  
  4160.000000   4291920   4295594   4299692   4304166   4309030  
  4150.000000   4314237   4319816   4325728   4332013   4338633  
  4140.000000   4345635   4352979   4360714   4368800   4377282  
  4130.000000   4386111   4395331   4404896   4414858   4425193  
  4120.000000   4435974   4447207   4458975   4471292   4484233  
  4110.000000   4497796   4512025   4526884   4542365   4558379  
  4100.000000   4574856   4591660   4608690   4625822   4642982  
  4090.000000   4660115   4677202   4694246   4711251   4728237  
  4080.000000   4745189   4762116   4778965   4795724   4812293  
  4070.000000   4828621   4844557   4860028   4874878   4889083  
  4060.000000   4902553   4915347   4927437   4938916   4949754  
  4050.000000   4960034   4969708   4978859   4987450   4995571  
  4040.000000   5003177   5010329   5016941   5023041   5028535  
  4030.000000   5033472   5037799   5041603   5044872   5047690  
  4020.000000   5050019   5051934   5053445   5054619   5055413  
  4010.000000   5055909   5056141   5056056   5055392   5054142  
  4000.000000   5052594  
##END= 
