##TITLE= Sample 006 By ssteindl date Montag, November 26 2018
##JCAMP-DX= 4.24
##DATA TYPE= INFRARED SPECTRUM
##ORIGIN= Exported PE Spectrum Data File
##OWNER= Sandra Steindl
##DATE= 18/11/26
##TIME= 12:09:13.00
##SPECTROMETER/DATA SYSTEM= PERKIN-ELMER Frontier FT-IR/NIR IR
##INSTRUMENT PARAMETERS=
  APODIZATION=stark
  DETECTOR=INGAAS
##RESOLUTION= 16.000000
##DELTAX= -2.000000
##XUNITS= 1/CM
##YUNITS= A
##XFACTOR= 1.00
##YFACTOR= 0.00000011920928955078
##FIRSTX= 10000.00
##LASTX= 4000.00
##NPOINTS= 3001
##FIRSTY= 0.286726
##MAXY= 0.639322
##MINY= 0.217649
##XYDATA= (X++(Y..Y))
 10000.000000   2405235   2406460   2405220   2398630   2387287  
  9990.000000   2374107   2361491   2350863   2343617   2340977  
  9980.000000   2342911   2348308   2355698   2363727   2371232  
  9970.000000   2377450   2382100   2385138   2386542   2386243  
  9960.000000   2384235   2380673   2376091   2371308   2367321  
  9950.000000   2364930   2364459   2365598   2367448   2368846  
  9940.000000   2368720   2366462   2362088   2356168   2349617  
  9930.000000   2343380   2338219   2334604   2332722   2332570  
  9920.000000   2334026   2336904   2340932   2345741   2350836  
  9910.000000   2355672   2359731   2362637   2364227   2364515  
  9900.000000   2363698   2362012   2359774   2357295   2354893  
  9890.000000   2352849   2351292   2350206   2349356   2348459  
  9880.000000   2347240   2345637   2343761   2341917   2340359  
  9870.000000   2339216   2338322   2337330   2335846   2333660  
  9860.000000   2330917   2328059   2325698   2324254   2323763  
  9850.000000   2323735   2323341   2321744   2318456   2313627  
  9840.000000   2307977   2302635   2298698   2296957   2297665  
  9830.000000   2300542   2304899   2309778   2314166   2317054  
  9820.000000   2317655   2315434   2310353   2302878   2294063  
  9810.000000   2285329   2278191   2273848   2272834   2274928  
  9800.000000   2279203   2284475   2289596   2293882   2297092  
  9790.000000   2299359   2300906   2301804   2301961   2301092  
  9780.000000   2299031   2295711   2291380   2286388   2281186  
  9770.000000   2276137   2271527   2267626   2264711   2263165  
  9760.000000   2263275   2265193   2268661   2273115   2277727  
  9750.000000   2281768   2284810   2286892   2288418   2289869  
  9740.000000   2291520   2293181   2294291   2294084   2292003  
  9730.000000   2287921   2282263   2275836   2269533   2264061  
  9720.000000   2259736   2256554   2254285   2252717   2251703  
  9710.000000   2251219   2251243   2251677   2252341   2252995  
  9700.000000   2253505   2253860   2254219   2254750   2255513  
  9690.000000   2256354   2256946   2257002   2256446   2255613  
  9680.000000   2255111   2255637   2257572   2260765   2264478  
  9670.000000   2267585   2268980   2267882   2264125   2258081  
  9660.000000   2250540   2242403   2234472   2227352   2221446  
  9650.000000   2217079   2214502   2213911   2215302   2218409  
  9640.000000   2222656   2227267   2231427   2234497   2236133  
  9630.000000   2236327   2235327   2233522   2231370   2229324  
  9620.000000   2227853   2227359   2228098   2230028   2232707  
  9610.000000   2235302   2236762   2236115   2232798   2226882  
  9600.000000   2219119   2210735   2203099   2197319   2193969  
  9590.000000   2193047   2194051   2196314   2199123   2202008  
  9580.000000   2204670   2207033   2209123   2211002   2212738  
  9570.000000   2214283   2215500   2216024   2215387   2213033  
  9560.000000   2208617   2202168   2194308   2186196   2179264  
  9550.000000   2174820   2173519   2175181   2178729   2182658  
  9540.000000   2185495   2186378   2185274   2182932   2180509  
  9530.000000   2179053   2179090   2180391   2182151   2183276  
  9520.000000   2182940   2180795   2177147   2172701   2168280  
  9510.000000   2164536   2161750   2159897   2158731   2158000  
  9500.000000   2157570   2157467   2157836   2158817   2160421  
  9490.000000   2162471   2164593   2166329   2167283   2167237  
  9480.000000   2166263   2164640   2162822   2161240   2160206  
  9470.000000   2159797   2159850   2160026   2159938   2159324  
  9460.000000   2158123   2156535   2154893   2153581   2152846  
  9450.000000   2152761   2153212   2153976   2154807   2155492  
  9440.000000   2155862   2155770   2155070   2153643   2151456  
  9430.000000   2148637   2145508   2142531   2140169   2138729  
  9420.000000   2138193   2138230   2138269   2137774   2136455  
  9410.000000   2134413   2132094   2130065   2128770   2128297  
  9400.000000   2128331   2128265   2127447   2125484   2122422  
  9390.000000   2118787   2115373   2112976   2112065   2112661  
  9380.000000   2114342   2116395   2118050   2118638   2117782  
  9370.000000   2115372   2111612   2106884   2101720   2096684  
  9360.000000   2092332   2089114   2087317   2087005   2088015  
  9350.000000   2090006   2092529   2095156   2097540   2099485  
  9340.000000   2100932   2101919   2102550   2102905   2103069  
  9330.000000   2103056   2102899   2102577   2102110   2101479  
  9320.000000   2100680   2099680   2098448   2096993   2095370  
  9310.000000   2093753   2092373   2091559   2091585   2092685  
  9300.000000   2094882   2098031   2101739   2105482   2108683  
  9290.000000   2110835   2111637   2110987   2109008   2105909  
  9280.000000   2101943   2097326   2092276   2087069   2082071  
  9270.000000   2077774   2074653   2073120   2073280   2074926  
  9260.000000   2077469   2080156   2082268   2083334   2083243  
  9250.000000   2082162   2080444   2078379   2076139   2073718  
  9240.000000   2071088   2068291   2065546   2063231   2061742  
  9230.000000   2061345   2061995   2063369   2064932   2066163  
  9220.000000   2066710   2066480   2065619   2064355   2062903  
  9210.000000   2061333   2059640   2057786   2055839   2053982  
  9200.000000   2052486   2051577   2051331   2051626   2052182  
  9190.000000   2052679   2052881   2052755   2052445   2052195  
  9180.000000   2052175   2052416   2052792   2053135   2053329  
  9170.000000   2053383   2053397   2053485   2053667   2053804  
  9160.000000   2053608   2052748   2050996   2048335   2044995  
  9150.000000   2041343   2037773   2034552   2031808   2029527  
  9140.000000   2027664   2026204   2025204   2024751   2024886  
  9130.000000   2025564   2026632   2027904   2029227   2030583  
  9120.000000   2032091   2033927   2036208   2038858   2041607  
  9110.000000   2044016   2045623   2046073   2045244   2043270  
  9100.000000   2040494   2037355   2034266   2031539   2029331  
  9090.000000   2027678   2026492   2025643   2024946   2024231  
  9080.000000   2023344   2022222   2020906   2019538   2018320  
  9070.000000   2017418   2016929   2016797   2016849   2016835  
  9060.000000   2016540   2015886   2014960   2014003   2013299  
  9050.000000   2013105   2013541   2014558   2015915   2017264  
  9040.000000   2018232   2018500   2017872   2016304   2013941  
  9030.000000   2011055   2007998   2005090   2002582   2000568  
  9020.000000   1999006   1997730   1996556   1995363   1994149  
  9010.000000   1993050   1992270   1992024   1992439   1993513  
  9000.000000   1995104   1996978   1998895   2000638   2002071  
  8990.000000   2003111   2003732   2003927   2003693   2003054  
  8980.000000   2002058   2000808   1999431   1998076   1996884  
  8970.000000   1995951   1995302   1994883   1994568   1994164  
  8960.000000   1993442   1992201   1990344   1987934   1985222  
  8950.000000   1982626   1980625   1979637   1979833   1981122  
  8940.000000   1983141   1985410   1987456   1988982   1989923  
  8930.000000   1990385   1990523   1990389   1989898   1988810  
  8920.000000   1986908   1984087   1980539   1976678   1973066  
  8910.000000   1970198   1968346   1967504   1967400   1967699  
  8900.000000   1968127   1968625   1969317   1970429   1972147  
  8890.000000   1974475   1977205   1979952   1982296   1983888  
  8880.000000   1984554   1984313   1983368   1982027   1980649  
  8870.000000   1979561   1979009   1979088   1979709   1980581  
  8860.000000   1981267   1981297   1980304   1978211   1975268  
  8850.000000   1972062   1969309   1967688   1967600   1969081  
  8840.000000   1971794   1975143   1978462   1981166   1982868  
  8830.000000   1983373   1982670   1980869   1978225   1975086  
  8820.000000   1971921   1969224   1967455   1966880   1967487  
  8810.000000   1968970   1970809   1972475   1973584   1974059  
  8800.000000   1974100   1974087   1974388   1975189   1976438  
  8790.000000   1977857   1979111   1979914   1980168   1979941  
  8780.000000   1979427   1978833   1978291   1977855   1977501  
  8770.000000   1977226   1977062   1977104   1977443   1978112  
  8760.000000   1979030   1980023   1980850   1981306   1981268  
  8750.000000   1980743   1979860   1978815   1977839   1977110  
  8740.000000   1976736   1976709   1976922   1977177   1977243  
  8730.000000   1976912   1976094   1974862   1973478   1972330  
  8720.000000   1971809   1972174   1973438   1975355   1977514  
  8710.000000   1979471   1980941   1981854   1982381   1982793  
  8700.000000   1983333   1984075   1984909   1985608   1985975  
  8690.000000   1985977   1985783   1985726   1986128   1987190  
  8680.000000   1988854   1990853   1992798   1994338   1995288  
  8670.000000   1995633   1995505   1995034   1994300   1993266  
  8660.000000   1991863   1990079   1988059   1986133   1984734  
  8650.000000   1984277   1984997   1986888   1989683   1992961  
  8640.000000   1996256   1999200   2001582   2003339   2004526  
  8630.000000   2005230   2005589   2005721   2005776   2005881  
  8620.000000   2006163   2006673   2007374   2008145   2008806  
  8610.000000   2009231   2009384   2009406   2009546   2010110  
  8600.000000   2011306   2013174   2015522   2017990   2020140  
  8590.000000   2021609   2022200   2021964   2021148   2020137  
  8580.000000   2019315   2018972   2019214   2019945   2020906  
  8570.000000   2021736   2022085   2021689   2020447   2018439  
  8560.000000   2015906   2013200   2010706   2008766   2007636  
  8550.000000   2007432   2008136   2009597   2011574   2013780  
  8540.000000   2015924   2017774   2019185   2020139   2020761  
  8530.000000   2021258   2021885   2022814   2024095   2025593  
  8520.000000   2027051   2028150   2028644   2028455   2027714  
  8510.000000   2026727   2025853   2025393   2025474   2026038  
  8500.000000   2026872   2027726   2028421   2028919   2029314  
  8490.000000   2029773   2030434   2031340   2032404   2033449  
  8480.000000   2034290   2034802   2034994   2034967   2034893  
  8470.000000   2034915   2035111   2035472   2035931   2036405  
  8460.000000   2036848   2037272   2037735   2038321   2039088  
  8450.000000   2040067   2041247   2042601   2044085   2045650  
  8440.000000   2047231   2048741   2050064   2051076   2051681  
  8430.000000   2051846   2051624   2051148   2050594   2050134  
  8420.000000   2049874   2049846   2049983   2050192   2050359  
  8410.000000   2050432   2050401   2050319   2050244   2050226  
  8400.000000   2050263   2050293   2050202   2049851   2049124  
  8390.000000   2047955   2046360   2044452   2042439   2040596  
  8380.000000   2039193   2038450   2038448   2039129   2040277  
  8370.000000   2041584   2042730   2043462   2043676   2043397  
  8360.000000   2042766   2041934   2041033   2040103   2039133  
  8350.000000   2038088   2036987   2035936   2035119   2034747  
  8340.000000   2034954   2035748   2036964   2038318   2039491  
  8330.000000   2040231   2040435   2040152   2039559   2038850  
  8320.000000   2038176   2037581   2037028   2036443   2035789  
  8310.000000   2035110   2034526   2034201   2034246   2034696  
  8300.000000   2035451   2036343   2037168   2037775   2038096  
  8290.000000   2038144   2037988   2037685   2037260   2036670  
  8280.000000   2035843   2034707   2033250   2031541   2029720  
  8270.000000   2027982   2026509   2025463   2024919   2024898  
  8260.000000   2025318   2026069   2026981   2027892   2028648  
  8250.000000   2029133   2029284   2029075   2028508   2027567  
  8240.000000   2026229   2024441   2022171   2019430   2016325  
  8230.000000   2013067   2009947   2007290   2005331   2004190  
  8220.000000   2003791   2003929   2004302   2004633   2004723  
  8210.000000   2004496   2003980   2003244   2002352   2001311  
  8200.000000   2000097   1998669   1997041   1995288   1993554  
  8190.000000   1991995   1990710   1989706   1988861   1987996  
  8180.000000   1986915   1985511   1983787   1981866   1979945  
  8170.000000   1978208   1976777   1975638   1974674   1973680  
  8160.000000   1972464   1970896   1968969   1966804   1964621  
  8150.000000   1962697   1961288   1960578   1960616   1961300  
  8140.000000   1962382   1963522   1964357   1964589   1964055  
  8130.000000   1962770   1960910   1958765   1956651   1954825  
  8120.000000   1953429   1952454   1951777   1951198   1950513  
  8110.000000   1949569   1948290   1946694   1944862   1942925  
  8100.000000   1941025   1939305   1937887   1936852   1936238  
  8090.000000   1936014   1936091   1936315   1936507   1936494  
  8080.000000   1936152   1935442   1934421   1933226   1932037  
  8070.000000   1931028   1930316   1929935   1929827   1929865  
  8060.000000   1929881   1929723   1929283   1928528   1927495  
  8050.000000   1926278   1924986   1923705   1922473   1921273  
  8040.000000   1920051   1918752   1917366   1915940   1914590  
  8030.000000   1913454   1912650   1912216   1912084   1912095  
  8020.000000   1912039   1911739   1911109   1910195   1909165  
  8010.000000   1908251   1907666   1907531   1907830   1908409  
  8000.000000   1909030   1909429   1909402   1908838   1907741  
  7990.000000   1906221   1904451   1902637   1900981   1899653  
  7980.000000   1898767   1898361   1898389   1898712   1899130  
  7970.000000   1899414   1899372   1898891   1897977   1896748  
  7960.000000   1895401   1894147   1893165   1892549   1892307  
  7950.000000   1892375   1892654   1893037   1893432   1893762  
  7940.000000   1893957   1893952   1893694   1893162   1892388  
  7930.000000   1891453   1890490   1889625   1888953   1888488  
  7920.000000   1888170   1887889   1887530   1887037   1886429  
  7910.000000   1885813   1885326   1885101   1885200   1885600  
  7900.000000   1886203   1886859   1887428   1887794   1887901  
  7890.000000   1887727   1887285   1886601   1885710   1884671  
  7880.000000   1883572   1882536   1881704   1881207   1881126  
  7870.000000   1881468   1882141   1882986   1883802   1884406  
  7860.000000   1884672   1884564   1884138   1883514   1882842  
  7850.000000   1882260   1881863   1881684   1881699   1881847  
  7840.000000   1882043   1882212   1882287   1882233   1882027  
  7830.000000   1881671   1881175   1880567   1879889   1879187  
  7820.000000   1878512   1877898   1877353   1876854   1876348  
  7810.000000   1875781   1875110   1874340   1873515   1872727  
  7800.000000   1872065   1871601   1871342   1871241   1871200  
  7790.000000   1871118   1870916   1870570   1870100   1869550  
  7780.000000   1868957   1868319   1867603   1866751   1865727  
  7770.000000   1864541   1863258   1861993   1860869   1859986  
  7760.000000   1859385   1859054   1858928   1858934   1858995  
  7750.000000   1859064   1859103   1859084   1858978   1858750  
  7740.000000   1858374   1857841   1857173   1856409   1855596  
  7730.000000   1854768   1853931   1853072   1852169   1851225  
  7720.000000   1850278   1849400   1848671   1848145   1847820  
  7710.000000   1847618   1847419   1847083   1846517   1845695  
  7700.000000   1844686   1843627   1842693   1842044   1841784  
  7690.000000   1841936   1842439   1843169   1843964   1844665  
  7680.000000   1845138   1845302   1845132   1844654   1843939  
  7670.000000   1843076   1842161   1841269   1840457   1839743  
  7660.000000   1839121   1838566   1838041   1837519   1836979  
  7650.000000   1836427   1835882   1835389   1834993   1834741  
  7640.000000   1834652   1834720   1834902   1835130   1835330  
  7630.000000   1835442   1835444   1835342   1835173   1834966  
  7620.000000   1834732   1834447   1834070   1833561   1832921  
  7610.000000   1832204   1831516   1830977   1830677   1830636  
  7600.000000   1830783   1830990   1831104   1831020   1830713  
  7590.000000   1830254   1829785   1829450   1829353   1829486  
  7580.000000   1829754   1829982   1829999   1829679   1829005  
  7570.000000   1828071   1827065   1826226   1825771   1825847  
  7560.000000   1826489   1827618   1829065   1830604   1832013  
  7550.000000   1833108   1833799   1834081   1834039   1833796  
  7540.000000   1833487   1833212   1833038   1832981   1833045  
  7530.000000   1833223   1833520   1833951   1834524   1835234  
  7520.000000   1836042   1836890   1837714   1838460   1839113  
  7510.000000   1839680   1840197   1840688   1841172   1841631  
  7500.000000   1842048   1842400   1842703   1842998   1843357  
  7490.000000   1843860   1844573   1845532   1846738   1848154  
  7480.000000   1849727   1851392   1853088   1854752   1856337  
  7470.000000   1857792   1859096   1860238   1861246   1862159  
  7460.000000   1863039   1863938   1864905   1865961   1867117  
  7450.000000   1868368   1869705   1871122   1872612   1874171  
  7440.000000   1875793   1877474   1879214   1881017   1882891  
  7430.000000   1884830   1886813   1888785   1890676   1892403  
  7420.000000   1893907   1895161   1896197   1897087   1897931  
  7410.000000   1898822   1899830   1900985   1902286   1903711  
  7400.000000   1905236   1906837   1908493   1910184   1911881  
  7390.000000   1913563   1915214   1916844   1918485   1920189  
  7380.000000   1922002   1923940   1925982   1928062   1930101  
  7370.000000   1932016   1933759   1935309   1936677   1937886  
  7360.000000   1938955   1939902   1940752   1941554   1942388  
  7350.000000   1943361   1944576   1946103   1947926   1949959  
  7340.000000   1952054   1954065   1955883   1957481   1958908  
  7330.000000   1960258   1961629   1963071   1964580   1966091  
  7320.000000   1967525   1968811   1969922   1970881   1971746  
  7310.000000   1972596   1973494   1974493   1975610   1976854  
  7300.000000   1978210   1979654   1981140   1982605   1983967  
  7290.000000   1985150   1986098   1986804   1987313   1987715  
  7280.000000   1988116   1988613   1989266   1990086   1991037  
  7270.000000   1992058   1993083   1994065   1994983   1995842  
  7260.000000   1996667   1997479   1998303   1999138   1999985  
  7250.000000   2000825   2001648   2002436   2003196   2003939  
  7240.000000   2004710   2005560   2006560   2007767   2009230  
  7230.000000   2010951   2012904   2015019   2017228   2019458  
  7220.000000   2021681   2023891   2026134   2028452   2030897  
  7210.000000   2033471   2036151   2038859   2041518   2044046  
  7200.000000   2046424   2048677   2050896   2053198   2055710  
  7190.000000   2058520   2061672   2065132   2068822   2072619  
  7180.000000   2076404   2080071   2083568   2086873   2090025  
  7170.000000   2093068   2096086   2099145   2102326   2105669  
  7160.000000   2109202   2112909   2116763   2120721   2124762  
  7150.000000   2128885   2133129   2137542   2142180   2147047  
  7140.000000   2152110   2157254   2162361   2167294   2171999  
  7130.000000   2176468   2180799   2185104   2189533   2194176  
  7120.000000   2199091   2204257   2209641   2215188   2220882  
  7110.000000   2226720   2232732   2238927   2245306   2251827  
  7100.000000   2258440   2265078   2271710   2278310   2284894  
  7090.000000   2291468   2298051   2304630   2311195   2317715  
  7080.000000   2324175   2330555   2336849   2343042   2349134  
  7070.000000   2355132   2361066   2366991   2372985   2379128  
  7060.000000   2385478   2392046   2398795   2405644   2412499  
  7050.000000   2419278   2425938   2432473   2438906   2445262  
  7040.000000   2451555   2457789   2463963   2470094   2476219  
  7030.000000   2482399   2488680   2495080   2501558   2508030  
  7020.000000   2514379   2520508   2526354   2531924   2537260  
  7010.000000   2542441   2547526   2552566   2557578   2562578  
  7000.000000   2567566   2572558   2577550   2582531   2587447  
  6990.000000   2592240   2596839   2601223   2605400   2609447  
  6980.000000   2613448   2617489   2621600   2625771   2629937  
  6970.000000   2634039   2638024   2641890   2645648   2649334  
  6960.000000   2652944   2656467   2659854   2663077   2666123  
  6950.000000   2669034   2671860   2674666   2677463   2680228  
  6940.000000   2682878   2685336   2687538   2689492   2691250  
  6930.000000   2692921   2694607   2696399   2698331   2700405  
  6920.000000   2702577   2704802   2707019   2709183   2711246  
  6910.000000   2713177   2714953   2716582   2718088   2719519  
  6900.000000   2720912   2722289   2723630   2724895   2726034  
  6890.000000   2727024   2727885   2728691   2729535   2730507  
  6880.000000   2731640   2732913   2734244   2735532   2736685  
  6870.000000   2737658   2738455   2739125   2739730   2740329  
  6860.000000   2740959   2741646   2742402   2743240   2744157  
  6850.000000   2745144   2746164   2747171   2748108   2748943  
  6840.000000   2749670   2750326   2750962   2751617   2752301  
  6830.000000   2752977   2753581   2754050   2754351   2754504  
  6820.000000   2754572   2754651   2754826   2755158   2755655  
  6810.000000   2756297   2757030   2757800   2758543   2759200  
  6800.000000   2759710   2760019   2760096   2759948   2759625  
  6790.000000   2759219   2758835   2758563   2758445   2758477  
  6780.000000   2758612   2758795   2758985   2759173   2759364  
  6770.000000   2759570   2759772   2759926   2759971   2759863  
  6760.000000   2759602   2759244   2758885   2758625   2758527  
  6750.000000   2758587   2758732   2758863   2758881   2758745  
  6740.000000   2758467   2758119   2757782   2757529   2757384  
  6730.000000   2757331   2757323   2757304   2757224   2757053  
  6720.000000   2756772   2756373   2755858   2755248   2754581  
  6710.000000   2753922   2753341   2752903   2752630   2752507  
  6700.000000   2752465   2752420   2752285   2752013   2751588  
  6690.000000   2751035   2750388   2749681   2748927   2748128  
  6680.000000   2747277   2746375   2745432   2744471   2743507  
  6670.000000   2742552   2741600   2740646   2739680   2738709  
  6660.000000   2737741   2736793   2735862   2734937   2733986  
  6650.000000   2732978   2731888   2730712   2729459   2728152  
  6640.000000   2726805   2725427   2724018   2722585   2721144  
  6630.000000   2719737   2718404   2717184   2716078   2715052  
  6620.000000   2714032   2712934   2711681   2710240   2708617  
  6610.000000   2706864   2705047   2703234   2701467   2699768  
  6600.000000   2698128   2696534   2694962   2693395   2691814  
  6590.000000   2690207   2688560   2686870   2685136   2683370  
  6580.000000   2681586   2679799   2678022   2676263   2674531  
  6570.000000   2672841   2671212   2669666   2668218   2666863  
  6560.000000   2665576   2664308   2663010   2661642   2660192  
  6550.000000   2658676   2657135   2655609   2654131   2652709  
  6540.000000   2651338   2649998   2648677   2647368   2646071  
  6530.000000   2644785   2643503   2642212   2640903   2639579  
  6520.000000   2638268   2637013   2635862   2634842   2633947  
  6510.000000   2633135   2632336   2631482   2630527   2629462  
  6500.000000   2628312   2627120   2625931   2624766   2623627  
  6490.000000   2622501   2621370   2620229   2619079   2617929  
  6480.000000   2616782   2615633   2614470   2613284   2612081  
  6470.000000   2610883   2609722   2608627   2607610   2606655  
  6460.000000   2605728   2604782   2603790   2602742   2601658  
  6450.000000   2600572   2599522   2598529   2597607   2596752  
  6440.000000   2595959   2595224   2594546   2593914   2593311  
  6430.000000   2592702   2592052   2591332   2590543   2589709  
  6420.000000   2588888   2588132   2587484   2586949   2586501  
  6410.000000   2586092   2585676   2585230   2584762   2584307  
  6400.000000   2583909   2583599   2583386   2583252   2583157  
  6390.000000   2583060   2582929   2582749   2582520   2582255  
  6380.000000   2581969   2581676   2581381   2581089   2580795  
  6370.000000   2580497   2580184   2579851   2579486   2579086  
  6360.000000   2578648   2578172   2577661   2577118   2576541  
  6350.000000   2575932   2575293   2574634   2573973   2573330  
  6340.000000   2572721   2572156   2571628   2571122   2570619  
  6330.000000   2570108   2569584   2569058   2568538   2568033  
  6320.000000   2567534   2567027   2566483   2565885   2565218  
  6310.000000   2564484   2563686   2562832   2561918   2560940  
  6300.000000   2559885   2558757   2557562   2556327   2555071  
  6290.000000   2553815   2552556   2551287   2549988   2548651  
  6280.000000   2547272   2545869   2544456   2543049   2541643  
  6270.000000   2540225   2538768   2537257   2535685   2534064  
  6260.000000   2532413   2530752   2529084   2527403   2525694  
  6250.000000   2523948   2522166   2520373   2518594   2516861  
  6240.000000   2515184   2513557   2511961   2510376   2508790  
  6230.000000   2507209   2505648   2504122   2502632   2501162  
  6220.000000   2499677   2498137   2496512   2494790   2492985  
  6210.000000   2491128   2489262   2487428   2485661   2483981  
  6200.000000   2482394   2480889   2479445   2478028   2476606  
  6190.000000   2475148   2473649   2472119   2470593   2469114  
  6180.000000   2467717   2466413   2465188   2464000   2462805  
  6170.000000   2461566   2460277   2458954   2457635   2456358  
  6160.000000   2455144   2453993   2452884   2451786   2450672  
  6150.000000   2449528   2448356   2447164   2445963   2444762  
  6140.000000   2443567   2442381   2441214   2440071   2438960  
  6130.000000   2437877   2436809   2435735   2434643   2433530  
  6120.000000   2432419   2431350   2430372   2429518   2428801  
  6110.000000   2428202   2427683   2427190   2426689   2426157  
  6100.000000   2425604   2425047   2424517   2424033   2423612  
  6090.000000   2423251   2422951   2422697   2422484   2422292  
  6080.000000   2422116   2421937   2421757   2421585   2421454  
  6070.000000   2421399   2421472   2421700   2422104   2422669  
  6060.000000   2423371   2424161   2425004   2425857   2426704  
  6050.000000   2427524   2428324   2429104   2429895   2430722  
  6040.000000   2431634   2432667   2433862   2435224   2436748  
  6030.000000   2438394   2440122   2441885   2443654   2445408  
  6020.000000   2447148   2448870   2450581   2452274   2453955  
  6010.000000   2455624   2457302   2459003   2460755   2462563  
  6000.000000   2464434   2466349   2468300   2470277   2472290  
  5990.000000   2474355   2476497   2478723   2481033   2483395  
  5980.000000   2485782   2488163   2490535   2492907   2495315  
  5970.000000   2497786   2500345   2502983   2505688   2508426  
  5960.000000   2511185   2513952   2516744   2519573   2522461  
  5950.000000   2525414   2528437   2531525   2534683   2537916  
  5940.000000   2541242   2544667   2548193   2551805   2555473  
  5930.000000   2559162   2562837   2566473   2570047   2573543  
  5920.000000   2576937   2580205   2583318   2586262   2589032  
  5910.000000   2591647   2594131   2596518   2598828   2601079  
  5900.000000   2603275   2605435   2607579   2609752   2611993  
  5890.000000   2614342   2616806   2619376   2622004   2624644  
  5880.000000   2627246   2629778   2632224   2634578   2636836  
  5870.000000   2638984   2641011   2642906   2644680   2646361  
  5860.000000   2647997   2649642   2651341   2653117   2654977  
  5850.000000   2656912   2658919   2661003   2663181   2665476  
  5840.000000   2667902   2670455   2673113   2675836   2678587  
  5830.000000   2681331   2684051   2686735   2689383   2691990  
  5820.000000   2694555   2697078   2699570   2702050   2704539  
  5810.000000   2707054   2709587   2712121   2714605   2717005  
  5800.000000   2719279   2721443   2723505   2725526   2727522  
  5790.000000   2729522   2731484   2733364   2735055   2736473  
  5780.000000   2737502   2738070   2738098   2737559   2736440  
  5770.000000   2734794   2732696   2730284   2727695   2725087  
  5760.000000   2722573   2720244   2718128   2716236   2714537  
  5750.000000   2713016   2711642   2710400   2709268   2708223  
  5740.000000   2707241   2706293   2705366   2704443   2703535  
  5730.000000   2702639   2701769   2700918   2700093   2699290  
  5720.000000   2698523   2697807   2697163   2696601   2696123  
  5710.000000   2695707   2695331   2694966   2694607   2694259  
  5700.000000   2693945   2693690   2693505   2693386   2693310  
  5690.000000   2693252   2693188   2693119   2693047   2692997  
  5680.000000   2692970   2692965   2692945   2692870   2692679  
  5670.000000   2692328   2691766   2690963   2689888   2688532  
  5660.000000   2686892   2684999   2682902   2680687   2678438  
  5650.000000   2676247   2674169   2672240   2670454   2668793  
  5640.000000   2667228   2665743   2664323   2662964   2661655  
  5630.000000   2660382   2659129   2657875   2656623   2655377  
  5620.000000   2654166   2653007   2651920   2650902   2649944  
  5610.000000   2649029   2648147   2647297   2646490   2645736  
  5600.000000   2645042   2644399   2643790   2643192   2642589  
  5590.000000   2641975   2641350   2640715   2640065   2639384  
  5580.000000   2638651   2637851   2636980   2636058   2635114  
  5570.000000   2634184   2633285   2632424   2631581   2630733  
  5560.000000   2629852   2628927   2627956   2626947   2625909  
  5550.000000   2624848   2623765   2622662   2621547   2620433  
  5540.000000   2619336   2618266   2617219   2616178   2615117  
  5530.000000   2614021   2612886   2611733   2610594   2609506  
  5520.000000   2608490   2607548   2606660   2605798   2604932  
  5510.000000   2604046   2603132   2602188   2601212   2600195  
  5500.000000   2599125   2598001   2596828   2595632   2594440  
  5490.000000   2593280   2592152   2591037   2589894   2588686  
  5480.000000   2587381   2585980   2584498   2582971   2581422  
  5470.000000   2579872   2578318   2576758   2575182   2573597  
  5460.000000   2572006   2570414   2568810   2567172   2565465  
  5450.000000   2563663   2561756   2559764   2557728   2555701  
  5440.000000   2553728   2551835   2550033   2548317   2546687  
  5430.000000   2545142   2543686   2542308   2540990   2539692  
  5420.000000   2538389   2537056   2535718   2534413   2533217  
  5410.000000   2532181   2531343   2530680   2530158   2529716  
  5400.000000   2529331   2528988   2528724   2528563   2528545  
  5390.000000   2528665   2528918   2529266   2529709   2530241  
  5380.000000   2530906   2531723   2532732   2533911   2535244  
  5370.000000   2536665   2538155   2539671   2541248   2542893  
  5360.000000   2544677   2546613   2548769   2551147   2553817  
  5350.000000   2556791   2560154   2563911   2568127   2572761  
  5340.000000   2577836   2583277   2589115   2595299   2601892  
  5330.000000   2608859   2616265   2624053   2632266   2640843  
  5320.000000   2649857   2659292   2669283   2679844   2691120  
  5310.000000   2703092   2715850   2729315   2743536   2758426  
  5300.000000   2774060   2790399   2807569   2825574   2844555  
  5290.000000   2864490   2885447   2907303   2930009   2953365  
  5280.000000   2977301   3001684   3026566   3051962   3078022  
  5270.000000   3104789   3132305   3160440   3189016   3217778  
  5260.000000   3246526   3275146   3303634   3332072   3360528  
  5250.000000   3389033   3417462   3445649   3473302   3500250  
  5240.000000   3526310   3551530   3575925   3599690   3622866  
  5230.000000   3645581   3667741   3689327   3710138   3730126  
  5220.000000   3749140   3767248   3784423   3800845   3816546  
  5210.000000   3831700   3846271   3860320   3873691   3886368  
  5200.000000   3898188   3909201   3919350   3928786   3937512  
  5190.000000   3945670   3953213   3960200   3966524   3972222  
  5180.000000   3977209   3981567   3985259   3988383   3990895  
  5170.000000   3992867   3994242   3995093   3995395   3995248  
  5160.000000   3994647   3993675   3992294   3990539   3988347  
  5150.000000   3985755   3982736   3979370   3975669   3971714  
  5140.000000   3967498   3963060   3958365   3953442   3948279  
  5130.000000   3942933   3937424   3931814   3926108   3920337  
  5120.000000   3914477   3908537   3902499   3896385   3890199  
  5110.000000   3883971   3877709   3871432   3865139   3858841  
  5100.000000   3852542   3846259   3840002   3833789   3827626  
  5090.000000   3821528   3815499   3809555   3803699   3797936  
  5080.000000   3792248   3786610   3780971   3775289   3769517  
  5070.000000   3763640   3757653   3751583   3745448   3739272  
  5060.000000   3733055   3726792   3720460   3714050   3707552  
  5050.000000   3700978   3694338   3687651   3680919   3674149  
  5040.000000   3667329   3660459   3653540   3646586   3639615  
  5030.000000   3632648   3625704   3618797   3611937   3605132  
  5020.000000   3598394   3591733   3585163   3578686   3572313  
  5010.000000   3566032   3559851   3553761   3547783   3541918  
  5000.000000   3536203   3530642   3525269   3520078   3515096  
  4990.000000   3510311   3505754   3501416   3497335   3493501  
  4980.000000   3489949   3486658   3483663   3480943   3478541  
  4970.000000   3476447   3474711   3473317   3472304   3471633  
  4960.000000   3471326   3471333   3471682   3472337   3473344  
  4950.000000   3474682   3476401   3478467   3480916   3483700  
  4940.000000   3486847   3490312   3494134   3498279   3502789  
  4930.000000   3507627   3512829   3518352   3524228   3530423  
  4920.000000   3536974   3543855   3551095   3558660   3566560  
  4910.000000   3574750   3583228   3591947   3600901   3610050  
  4900.000000   3619378   3628842   3638416   3648062   3657755  
  4890.000000   3667474   3677196   3686906   3696565   3706140  
  4880.000000   3715563   3724791   3733746   3742398   3750680  
  4870.000000   3758579   3766036   3773050   3779574   3785628  
  4860.000000   3791191   3796320   3801021   3805364   3809352  
  4850.000000   3813037   3816405   3819495   3822290   3824840  
  4840.000000   3827152   3829287   3831264   3833137   3834920  
  4830.000000   3836649   3838330   3839989   3841627   3843259  
  4820.000000   3844881   3846497   3848100   3849698   3851300  
  4810.000000   3852927   3854597   3856329   3858128   3859985  
  4800.000000   3861888   3863815   3865759   3867715   3869696  
  4790.000000   3871714   3873780   3875897   3878055   3880239  
  4780.000000   3882436   3884633   3886825   3889011   3891184  
  4770.000000   3893338   3895454   3897520   3899523   3901465  
  4760.000000   3903351   3905198   3907013   3908801   3910541  
  4750.000000   3912216   3913789   3915241   3916550   3917719  
  4740.000000   3918750   3919664   3920471   3921196   3921846  
  4730.000000   3922442   3922986   3923492   3923954   3924369  
  4720.000000   3924724   3925007   3925210   3925337   3925403  
  4710.000000   3925435   3925471   3925547   3925699   3925955  
  4700.000000   3926340   3926868   3927554   3928404   3929419  
  4690.000000   3930593   3931913   3933350   3934875   3936444  
  4680.000000   3938019   3939548   3940998   3942327   3943523  
  4670.000000   3944571   3945499   3946332   3947132   3947954  
  4660.000000   3948865   3949915   3951152   3952600   3954280  
  4650.000000   3956195   3958343   3960707   3963268   3965989  
  4640.000000   3968831   3971748   3974697   3977638   3980539  
  4630.000000   3983375   3986120   3988755   3991255   3993602  
  4620.000000   3995771   3997753   3999531   4001105   4002465  
  4610.000000   4003621   4004572   4005345   4005956   4006457  
  4600.000000   4006880   4007281   4007676   4008093   4008511  
  4590.000000   4008920   4009273   4009549   4009705   4009733  
  4580.000000   4009603   4009315   4008847   4008199   4007359  
  4570.000000   4006341   4005150   4003821   4002371   4000835  
  4560.000000   3999224   3997555   3995824   3994039   3992194  
  4550.000000   3990304   3988370   3986410   3984426   3982427  
  4540.000000   3980408   3978372   3976317   3974245   3972160  
  4530.000000   3970057   3967943   3965807   3963661   3961503  
  4520.000000   3959372   3957285   3955308   3953462   3951815  
  4510.000000   3950374   3949204   3948302   3947745   3947542  
  4500.000000   3947790   3948499   3949763   3951566   3953983  
  4490.000000   3956976   3960619   3964879   3969845   3975495  
  4480.000000   3981915   3989065   3996998   4005640   4015013  
  4470.000000   4025022   4035674   4046869   4058604   4070780  
  4460.000000   4083385   4096329   4109603   4123134   4136921  
  4450.000000   4150909   4165089   4179405   4193830   4208309  
  4440.000000   4222802   4237271   4251681   4266019   4280252  
  4430.000000   4294381   4308362   4322195   4335813   4349207  
  4420.000000   4362293   4375057   4387404   4399322   4410710  
  4410.000000   4421554   4431750   4441286   4450066   4458096  
  4400.000000   4465315   4471776   4477477   4482525   4486974  
  4390.000000   4490963   4494568   4497923   4501087   4504159  
  4380.000000   4507164   4510164   4513171   4516234   4519383  
  4370.000000   4522678   4526169   4529913   4533946   4538288  
  4360.000000   4542931   4547852   4553001   4558341   4563800  
  4350.000000   4569352   4574921   4580509   4586056   4591606  
  4340.000000   4597130   4602676   4608173   4613532   4618483  
  4330.000000   4622683   4625648   4626920   4626105   4623049  
  4320.000000   4617852   4610938   4602927   4594583   4586595  
  4310.000000   4579534   4573700   4569198   4565903   4563620  
  4300.000000   4562092   4561115   4560528   4560228   4560161  
  4290.000000   4560272   4560554   4560972   4561551   4562286  
  4280.000000   4563222   4564369   4565737   4567320   4569081  
  4270.000000   4570997   4573009   4575071   4577065   4578849  
  4260.000000   4580187   4580821   4580462   4578899   4576016  
  4250.000000   4571871   4566662   4560737   4554475   4548280  
  4240.000000   4542444   4537186   4532558   4528545   4525026  
  4230.000000   4521872   4518929   4516072   4513197   4510233  
  4220.000000   4507153   4503945   4500664   4497353   4494120  
  4210.000000   4491030   4488190   4485638   4483437   4481586  
  4200.000000   4480103   4478957   4478147   4477622   4477367  
  4190.000000   4477318   4477457   4477721   4478117   4478606  
  4180.000000   4479230   4479973   4480895   4481989   4483317  
  4170.000000   4484878   4486749   4488944   4491554   4494593  
  4160.000000   4498134   4502152   4506671   4511622   4517003  
  4150.000000   4522737   4528843   4535270   4542070   4549219  
  4140.000000   4556787   4564755   4573191   4582067   4591440  
  4130.000000   4601265   4611580   4622328   4633536   4645152  
  4120.000000   4657213   4669691   4682645   4696070   4710030  
  4110.000000   4724514   4739558   4755116   4771173   4787639  
  4100.000000   4804456   4821518   4838766   4856127   4873584  
  4090.000000   4891122   4908754   4926492   4944338   4962287  
  4080.000000   4980303   4998364   5016411   5034426   5052335  
  4070.000000   5070115   5087666   5104946   5121839   5138315  
  4060.000000   5154277   5169740   5184638   5199021   5212831  
  4050.000000   5226134   5238877   5251140   5262871   5274149  
  4040.000000   5284891   5295137   5304760   5313776   5322059  
  4030.000000   5329655   5336476   5342586   5347909   5352482  
  4020.000000   5356193   5359087   5361143   5362459   5363017  
  4010.000000   5362986   5362460   5361468   5359778   5357440  
  4000.000000   5354768  
##END= 
