##TITLE= Sample 011 By ssteindl date Montag, November 26 2018
##JCAMP-DX= 4.24
##DATA TYPE= INFRARED SPECTRUM
##ORIGIN= Exported PE Spectrum Data File
##OWNER= Sandra Steindl
##DATE= 18/11/26
##TIME= 12:13:44.00
##SPECTROMETER/DATA SYSTEM= PERKIN-ELMER Frontier FT-IR/NIR IR
##INSTRUMENT PARAMETERS=
  APODIZATION=stark
  DETECTOR=INGAAS
##RESOLUTION= 16.000000
##DELTAX= -2.000000
##XUNITS= 1/CM
##YUNITS= A
##XFACTOR= 1.00
##YFACTOR= 0.00000011920928955078
##FIRSTX= 10000.00
##LASTX= 4000.00
##NPOINTS= 3001
##FIRSTY= 0.300837
##MAXY= 0.648980
##MINY= 0.235822
##XYDATA= (X++(Y..Y))
 10000.000000   2523605   2518993   2514050   2508643   2503413  
  9990.000000   2499269   2496649   2495507   2495723   2497164  
  9980.000000   2499529   2502277   2504829   2506549   2506881  
  9970.000000   2505435   2502203   2497505   2491946   2486192  
  9960.000000   2480906   2476558   2473518   2471960   2471889  
  9950.000000   2473045   2474846   2476474   2477059   2476014  
  9940.000000   2473351   2469789   2466630   2465290   2466742  
  9930.000000   2471062   2477296   2483791   2488795   2491148  
  9920.000000   2490722   2488438   2485836   2484370   2484751  
  9910.000000   2486622   2488730   2489495   2487729   2483158  
  9900.000000   2476508   2469223   2462816   2458429   2456424  
  9890.000000   2456519   2457965   2459946   2461812   2463146  
  9880.000000   2463723   2463349   2461851   2459108   2455220  
  9870.000000   2450603   2445981   2442205   2439970   2439571  
  9860.000000   2440784   2442989   2445407   2447400   2448679  
  9850.000000   2449256   2449356   2449084   2448372   2446844  
  9840.000000   2444125   2439979   2434675   2428964   2423990  
  9830.000000   2420962   2420710   2423530   2428946   2436038  
  9820.000000   2443617   2450701   2456702   2461504   2465304  
  9810.000000   2468322   2470555   2471656   2471038   2468153  
  9800.000000   2462834   2455508   2447210   2439320   2433108  
  9790.000000   2429350   2427991   2428242   2428799   2428363  
  9780.000000   2426045   2421676   2415794   2409446   2403797  
  9770.000000   2399806   2398001   2398430   2400796   2404541  
  9760.000000   2409052   2413644   2417669   2420481   2421604  
  9750.000000   2420770   2418119   2414148   2409693   2405661  
  9740.000000   2402811   2401531   2401765   2403136   2405104  
  9730.000000   2407257   2409368   2411457   2413574   2415685  
  9720.000000   2417520   2418638   2418585   2417089   2414253  
  9710.000000   2410541   2406687   2403429   2401264   2400295  
  9700.000000   2400209   2400456   2400446   2399792   2398397  
  9690.000000   2396443   2394280   2392253   2390613   2389431  
  9680.000000   2388664   2388185   2387884   2387698   2387618  
  9670.000000   2387702   2387995   2388572   2389462   2390701  
  9660.000000   2392275   2394119   2396075   2397853   2399054  
  9650.000000   2399214   2397929   2394983   2390468   2384822  
  9640.000000   2378776   2373194   2368831   2366136   2365093  
  9630.000000   2365268   2365936   2366371   2366051   2364834  
  9620.000000   2362924   2360755   2358790   2357332   2356500  
  9610.000000   2356179   2356232   2356470   2356822   2357196  
  9600.000000   2357479   2357472   2356890   2355559   2353487  
  9590.000000   2351090   2349084   2348367   2349666   2353229  
  9580.000000   2358637   2364803   2370275   2373590   2373732  
  9570.000000   2370345   2363867   2355330   2346153   2337760  
  9560.000000   2331329   2327565   2326623   2328161   2331419  
  9550.000000   2335456   2339308   2342285   2344057   2344781  
  9540.000000   2344917   2345069   2345685   2346892   2348469  
  9530.000000   2349945   2350860   2350935   2350208   2348937  
  9520.000000   2347415   2345749   2343756   2341034   2337195  
  9510.000000   2332113   2326089   2319809   2314138   2309845  
  9500.000000   2307334   2306603   2307279   2308883   2310969  
  9490.000000   2313300   2315752   2318248   2320609   2322544  
  9480.000000   2323746   2324004   2323356   2322012   2320316  
  9470.000000   2318472   2316491   2314109   2310988   2306910  
  9460.000000   2301974   2296652   2291629   2287581   2284890  
  9450.000000   2283567   2283277   2283573   2284090   2284699  
  9440.000000   2285469   2286531   2287923   2289459   2290826  
  9430.000000   2291661   2291805   2291307   2290453   2289539  
  9420.000000   2288743   2287999   2287074   2285764   2284074  
  9410.000000   2282341   2281082   2280808   2281708   2283557  
  9400.000000   2285723   2287419   2287999   2287192   2285211  
  9390.000000   2282564   2279863   2277475   2275489   2273693  
  9380.000000   2271832   2269744   2267515   2265440   2263928  
  9370.000000   2263346   2263895   2265603   2268336   2271921  
  9360.000000   2276129   2280728   2285383   2289689   2293199  
  9350.000000   2295579   2296732   2296840   2296317   2295589  
  9340.000000   2294938   2294303   2293305   2291364   2287961  
  9330.000000   2282952   2276660   2269894   2263607   2258709  
  9320.000000   2255731   2254811   2255649   2257671   2260170  
  9310.000000   2262464   2264014   2264443   2263574   2261401  
  9300.000000   2258175   2254353   2250605   2247595   2245849  
  9290.000000   2245554   2246535   2248312   2250238   2251738  
  9280.000000   2252449   2252365   2251768   2251076   2250643  
  9270.000000   2250608   2250877   2251147   2251057   2250302  
  9260.000000   2248792   2246683   2244335   2242221   2240735  
  9250.000000   2240129   2240385   2241275   2242402   2243352  
  9240.000000   2243812   2243649   2242907   2241754   2240388  
  9230.000000   2238935   2237422   2235779   2233961   2231985  
  9220.000000   2230005   2228240   2226904   2226081   2225703  
  9210.000000   2225572   2225482   2225308   2225079   2224966  
  9200.000000   2225198   2225945   2227210   2228838   2230594  
  9190.000000   2232288   2233859   2235381   2236955   2238603  
  9180.000000   2240145   2241237   2241469   2240557   2238500  
  9170.000000   2235606   2232416   2229471   2227111   2225330  
  9160.000000   2223796   2222059   2219745   2216807   2213532  
  9150.000000   2210491   2208291   2207387   2207892   2209566  
  9140.000000   2211894   2214258   2216119   2217080   2216980  
  9130.000000   2215820   2213821   2211284   2208612   2206180  
  9120.000000   2204317   2203186   2202748   2202780   2202968  
  9110.000000   2203070   2203000   2202927   2203159   2204045  
  9100.000000   2205730   2208086   2210671   2212886   2214177  
  9090.000000   2214230   2213097   2211131   2208865   2206765  
  9080.000000   2205089   2203793   2202595   2201114   2199028  
  9070.000000   2196245   2192921   2189450   2186298   2183942  
  9060.000000   2182722   2182805   2184111   2186341   2189031  
  9050.000000   2191601   2193499   2194287   2193802   2192151  
  9040.000000   2189708   2186987   2184526   2182729   2181771  
  9030.000000   2181598   2181993   2182705   2183509   2184281  
  9020.000000   2184944   2185459   2185745   2185663   2185037  
  9010.000000   2183715   2181674   2179020   2176021   2173022  
  9000.000000   2170408   2168481   2167381   2167060   2167309  
  8990.000000   2167825   2168293   2168468   2168258   2167714  
  8980.000000   2167023   2166410   2166092   2166184   2166686  
  8970.000000   2167488   2168430   2169373   2170245   2171076  
  8960.000000   2171952   2172967   2174155   2175450   2176704  
  8950.000000   2177693   2178196   2178020   2177061   2175319  
  8940.000000   2172900   2170042   2167079   2164440   2162546  
  8930.000000   2161751   2162211   2163855   2166333   2169105  
  8920.000000   2171535   2173087   2173443   2172599   2170829  
  8910.000000   2168588   2166371   2164569   2163401   2162865  
  8900.000000   2162812   2162982   2163112   2162948   2162301  
  8890.000000   2161063   2159230   2156924   2154385   2151958  
  8880.000000   2150045   2149014   2149099   2150346   2152575  
  8870.000000   2155446   2158505   2161322   2163551   2165019  
  8860.000000   2165729   2165801   2165437   2164784   2163946  
  8850.000000   2162883   2161494   2159628   2157206   2154275  
  8840.000000   2151044   2147897   2145280   2143637   2143235  
  8830.000000   2144146   2146185   2148984   2152054   2154912  
  8820.000000   2157183   2158644   2159251   2159085   2158345  
  8810.000000   2157269   2156126   2155133   2154454   2154124  
  8800.000000   2154068   2154101   2153995   2153561   2152701  
  8790.000000   2151473   2150023   2148591   2147365   2146501  
  8780.000000   2146047   2146022   2146434   2147308   2148661  
  8770.000000   2150408   2152325   2153994   2154917   2154615  
  8760.000000   2152855   2149727   2145714   2141540   2137984  
  8750.000000   2135633   2134736   2135185   2136619   2138605  
  8740.000000   2140784   2142962   2145066   2147080   2148934  
  8730.000000   2150498   2151630   2152277   2152572   2152801  
  8720.000000   2153337   2154441   2156137   2158139   2159935  
  8710.000000   2160973   2160863   2159542   2157279   2154593  
  8700.000000   2152047   2150073   2148848   2148315   2148265  
  8690.000000   2148469   2148761   2149062   2149357   2149639  
  8680.000000   2149879   2150025   2150047   2149962   2149867  
  8670.000000   2149886   2150141   2150670   2151435   2152340  
  8660.000000   2153299   2154285   2155345   2156549   2157934  
  8650.000000   2159423   2160830   2161888   2162371   2162172  
  8640.000000   2161391   2160283   2159207   2158484   2158323  
  8630.000000   2158756   2159666   2160866   2162178   2163505  
  8620.000000   2164814   2166147   2167547   2169056   2170679  
  8610.000000   2172400   2174194   2176013   2177777   2179349  
  8600.000000   2180546   2181170   2181065   2180193   2178688  
  8590.000000   2176838   2175034   2173649   2172944   2172975  
  8580.000000   2173573   2174417   2175134   2175460   2175309  
  8570.000000   2174834   2174363   2174310   2175022   2176672  
  8560.000000   2179183   2182232   2185338   2187977   2189737  
  8550.000000   2190403   2190033   2188895   2187394   2185927  
  8540.000000   2184782   2184060   2183689   2183476   2183203  
  8530.000000   2182733   2182062   2181347   2180845   2180826  
  8520.000000   2181467   2182787   2184624   2186663   2188541  
  8510.000000   2189929   2190669   2190792   2190535   2190249  
  8500.000000   2190297   2190937   2192237   2194058   2196107  
  8490.000000   2198032   2199541   2200478   2200853   2200812  
  8480.000000   2200555   2200264   2200036   2199886   2199779  
  8470.000000   2199682   2199603   2199591   2199711   2200006  
  8460.000000   2200443   2200943   2201381   2201674   2201809  
  8450.000000   2201870   2202011   2202370   2203027   2203936  
  8440.000000   2204959   2205886   2206531   2206780   2206652  
  8430.000000   2206274   2205846   2205578   2205631   2206103  
  8420.000000   2206987   2208218   2209668   2211207   2212705  
  8410.000000   2214063   2215203   2216084   2216681   2216979  
  8400.000000   2216955   2216581   2215838   2214743   2213368  
  8390.000000   2211857   2210399   2209208   2208428   2208119  
  8380.000000   2208195   2208489   2208773   2208864   2208658  
  8370.000000   2208169   2207495   2206764   2206070   2205424  
  8360.000000   2204768   2204000   2203049   2201890   2200587  
  8350.000000   2199250   2198003   2196939   2196084   2195426  
  8340.000000   2194915   2194519   2194229   2194067   2194070  
  8330.000000   2194251   2194583   2194972   2195283   2195354  
  8320.000000   2195054   2194301   2193108   2191588   2189953  
  8310.000000   2188475   2187411   2186941   2187108   2187801  
  8300.000000   2188771   2189701   2190295   2190363   2189877  
  8290.000000   2188951   2187789   2186594   2185508   2184570  
  8280.000000   2183742   2182962   2182200   2181500   2180957  
  8270.000000   2180686   2180745   2181113   2181658   2182197  
  8260.000000   2182534   2182532   2182139   2181376   2180323  
  8250.000000   2179072   2177710   2176315   2174962   2173733  
  8240.000000   2172700   2171919   2171384   2171038   2170761  
  8230.000000   2170432   2169955   2169306   2168526   2167694  
  8220.000000   2166874   2166077   2165246   2164275   2163064  
  8210.000000   2161573   2159859   2158072   2156400   2155011  
  8200.000000   2153979   2153270   2152742   2152203   2151461  
  8190.000000   2150391   2148965   2147254   2145410   2143612  
  8180.000000   2142024   2140750   2139803   2139112   2138529  
  8170.000000   2137881   2137019   2135880   2134514   2133075  
  8160.000000   2131767   2130757   2130107   2129729   2129407  
  8150.000000   2128863   2127863   2126306   2124282   2122043  
  8140.000000   2119920   2118204   2117043   2116405   2116100  
  8130.000000   2115866   2115464   2114765   2113777   2112617  
  8120.000000   2111453   2110423   2109592   2108927   2108330  
  8110.000000   2107678   2106883   2105918   2104819   2103678  
  8100.000000   2102598   2101676   2100969   2100479   2100153  
  8090.000000   2099886   2099545   2098995   2098134   2096919  
  8080.000000   2095384   2093635   2091826   2090121   2088653  
  8070.000000   2087495   2086653   2086079   2085691   2085408  
  8060.000000   2085157   2084891   2084569   2084160   2083631  
  8050.000000   2082958   2082140   2081206   2080221   2079263  
  8040.000000   2078406   2077680   2077070   2076504   2075893  
  8030.000000   2075152   2074243   2073186   2072049   2070934  
  8020.000000   2069927   2069097   2068459   2068017   2067756  
  8010.000000   2067670   2067759   2068005   2068358   2068695  
  8000.000000   2068844   2068595   2067770   2066269   2064138  
  7990.000000   2061569   2058879   2056442   2054593   2053549  
  7980.000000   2053348   2053856   2054790   2055814   2056616  
  7970.000000   2056983   2056840   2056235   2055312   2054235  
  7960.000000   2053153   2052156   2051282   2050523   2049874  
  7950.000000   2049340   2048952   2048755   2048765   2048952  
  7940.000000   2049217   2049415   2049390   2049017   2048270  
  7930.000000   2047207   2045980   2044771   2043741   2042982  
  7920.000000   2042500   2042239   2042120   2042101   2042200  
  7910.000000   2042490   2043049   2043908   2044994   2046124  
  7900.000000   2047040   2047483   2047292   2046452   2045123  
  7890.000000   2043582   2042149   2041085   2040517   2040425  
  7880.000000   2040655   2041003   2041269   2041342   2041191  
  7870.000000   2040878   2040493   2040130   2039844   2039644  
  7860.000000   2039507   2039388   2039248   2039049   2038765  
  7850.000000   2038368   2037835   2037146   2036301   2035330  
  7840.000000   2034298   2033298   2032431   2031784   2031400  
  7830.000000   2031278   2031357   2031553   2031765   2031917  
  7820.000000   2031960   2031882   2031696   2031416   2031046  
  7810.000000   2030569   2029952   2029165   2028202   2027105  
  7800.000000   2025969   2024926   2024114   2023635   2023508  
  7790.000000   2023659   2023924   2024090   2023958   2023404  
  7780.000000   2022421   2021132   2019756   2018552   2017735  
  7770.000000   2017427   2017610   2018145   2018804   2019346  
  7760.000000   2019576   2019393   2018805   2017910   2016852  
  7750.000000   2015770   2014760   2013855   2013028   2012224  
  7740.000000   2011388   2010503   2009586   2008703   2007926  
  7730.000000   2007324   2006928   2006719   2006634   2006571  
  7720.000000   2006422   2006086   2005502   2004654   2003584  
  7710.000000   2002377   2001157   2000054   1999184   1998624  
  7700.000000   1998394   1998450   1998693   1999000   1999240  
  7690.000000   1999317   1999182   1998845   1998354   1997775  
  7680.000000   1997168   1996555   1995928   1995251   1994490  
  7670.000000   1993625   1992677   1991698   1990759   1989935  
  7660.000000   1989264   1988757   1988378   1988075   1987797  
  7650.000000   1987512   1987221   1986943   1986705   1986509  
  7640.000000   1986323   1986080   1985699   1985116   1984326  
  7630.000000   1983393   1982456   1981685   1981229   1981163  
  7620.000000   1981452   1981952   1982452   1982729   1982622  
  7610.000000   1982080   1981184   1980123   1979139   1978455  
  7600.000000   1978215   1978449   1979081   1979949   1980860  
  7590.000000   1981629   1982121   1982269   1982081   1981624  
  7580.000000   1981005   1980343   1979751   1979314   1979087  
  7570.000000   1979078   1979260   1979574   1979942   1980288  
  7560.000000   1980548   1980684   1980689   1980578   1980397  
  7550.000000   1980197   1980039   1979963   1980001   1980152  
  7540.000000   1980400   1980715   1981072   1981454   1981864  
  7530.000000   1982319   1982843   1983451   1984140   1984884  
  7520.000000   1985645   1986376   1987042   1987623   1988118  
  7510.000000   1988538   1988903   1989235   1989559   1989902  
  7500.000000   1990299   1990776   1991347   1991992   1992661  
  7490.000000   1993275   1993759   1994067   1994213   1994284  
  7480.000000   1994417   1994761   1995427   1996445   1997760  
  7470.000000   1999237   2000713   2002038   2003129   2003972  
  7460.000000   2004619   2005150   2005653   2006192   2006808  
  7450.000000   2007513   2008317   2009220   2010223   2011312  
  7440.000000   2012464   2013637   2014793   2015900   2016952  
  7430.000000   2017955   2018935   2019910   2020892   2021873  
  7420.000000   2022851   2023833   2024855   2025974   2027258  
  7410.000000   2028754   2030471   2032366   2034351   2036313  
  7400.000000   2038149   2039782   2041187   2042377   2043406  
  7390.000000   2044343   2045267   2046247   2047337   2048568  
  7380.000000   2049939   2051412   2052919   2054379   2055717  
  7370.000000   2056891   2057908   2058819   2059708   2060658  
  7360.000000   2061735   2062960   2064318   2065763   2067247  
  7350.000000   2068733   2070205   2071671   2073148   2074654  
  7340.000000   2076203   2077792   2079411   2081031   2082612  
  7330.000000   2084097   2085424   2086540   2087420   2088089  
  7320.000000   2088618   2089123   2089724   2090529   2091583  
  7310.000000   2092875   2094330   2095844   2097311   2098659  
  7300.000000   2099849   2100884   2101776   2102543   2103201  
  7290.000000   2103764   2104260   2104726   2105211   2105753  
  7280.000000   2106363   2107024   2107685   2108293   2108817  
  7270.000000   2109273   2109725   2110269   2110999   2111966  
  7260.000000   2113160   2114496   2115857   2117112   2118179  
  7250.000000   2119026   2119703   2120294   2120914   2121649  
  7240.000000   2122559   2123646   2124886   2126233   2127661  
  7230.000000   2129150   2130722   2132398   2134208   2136157  
  7220.000000   2138233   2140388   2142575   2144736   2146847  
  7210.000000   2148901   2150944   2153031   2155240   2157621  
  7200.000000   2160200   2162951   2165832   2168769   2171715  
  7190.000000   2174627   2177509   2180370   2183248   2186150  
  7180.000000   2189083   2192016   2194923   2197769   2200562  
  7170.000000   2203331   2206157   2209130   2212355   2215890  
  7160.000000   2219748   2223863   2228135   2232424   2236622  
  7150.000000   2240648   2244511   2248263   2252028   2255914  
  7140.000000   2260020   2264359   2268901   2273552   2278243  
  7130.000000   2282918   2287597   2292328   2297204   2302276  
  7120.000000   2307573   2313045   2318622   2324204   2329737  
  7110.000000   2335190   2340603   2346020   2351511   2357107  
  7100.000000   2362834   2368680   2374642   2380703   2386867  
  7090.000000   2393128   2399482   2405907   2412383   2418880  
  7080.000000   2425382   2431870   2438337   2444760   2451115  
  7070.000000   2457365   2463494   2469504   2475439   2481363  
  7060.000000   2487350   2493442   2499641   2505901   2512156  
  7050.000000   2518350   2524473   2530570   2536723   2543019  
  7040.000000   2549499   2556141   2562857   2569528   2576046  
  7030.000000   2582356   2588463   2594430   2600326   2606204  
  7020.000000   2612062   2617860   2623528   2629017   2634304  
  7010.000000   2639421   2644416   2649360   2654291   2659238  
  7000.000000   2664183   2669111   2673987   2678797   2683513  
  6990.000000   2688128   2692616   2696970   2701171   2705226  
  6980.000000   2709141   2712945   2716653   2720286   2723840  
  6970.000000   2727313   2730689   2733970   2737150   2740249  
  6960.000000   2743276   2746255   2749190   2752099   2754976  
  6950.000000   2757831   2760647   2763420   2766126   2768753  
  6940.000000   2771284   2773720   2776056   2778297   2780428  
  6930.000000   2782424   2784239   2785843   2787218   2788409  
  6920.000000   2789492   2790590   2791812   2793241   2794879  
  6910.000000   2796673   2798511   2800284   2801896   2803306  
  6900.000000   2804512   2805545   2806435   2807206   2807872  
  6890.000000   2808447   2808963   2809471   2810031   2810691  
  6880.000000   2811464   2812333   2813243   2814146   2815010  
  6870.000000   2815850   2816710   2817642   2818673   2819785  
  6860.000000   2820913   2821967   2822864   2823563   2824071  
  6850.000000   2824446   2824765   2825101   2825498   2825970  
  6840.000000   2826500   2827064   2827634   2828190   2828711  
  6830.000000   2829184   2829591   2829925   2830187   2830399  
  6820.000000   2830586   2830776   2830975   2831168   2831316  
  6810.000000   2831376   2831314   2831131   2830854   2830547  
  6800.000000   2830272   2830083   2829999   2830010   2830071  
  6790.000000   2830129   2830125   2830017   2829780   2829412  
  6780.000000   2828930   2828366   2827759   2827151   2826573  
  6770.000000   2826043   2825561   2825119   2824704   2824309  
  6760.000000   2823934   2823591   2823288   2823029   2822808  
  6750.000000   2822610   2822422   2822235   2822051   2821874  
  6740.000000   2821701   2821514   2821279   2820959   2820530  
  6730.000000   2819997   2819399   2818802   2818272   2817853  
  6720.000000   2817547   2817317   2817100   2816838   2816494  
  6710.000000   2816072   2815595   2815096   2814597   2814099  
  6700.000000   2813584   2813032   2812428   2811774   2811077  
  6690.000000   2810348   2809580   2808768   2807898   2806983  
  6680.000000   2806048   2805146   2804320   2803598   2802957  
  6670.000000   2802340   2801658   2800834   2799818   2798610  
  6660.000000   2797246   2795787   2794281   2792766   2791252  
  6650.000000   2789750   2788268   2786837   2785481   2784220  
  6640.000000   2783042   2781906   2780748   2779509   2778149  
  6630.000000   2776668   2775094   2773470   2771832   2770200  
  6620.000000   2768573   2766949   2765333   2763746   2762212  
  6610.000000   2760748   2759339   2757944   2756498   2754952  
  6600.000000   2753282   2751516   2749712   2747937   2746232  
  6590.000000   2744593   2742972   2741304   2739533   2737647  
  6580.000000   2735680   2733702   2731786   2729985   2728313  
  6570.000000   2726747   2725245   2723766   2722284   2720791  
  6560.000000   2719290   2717784   2716271   2714751   2713232  
  6550.000000   2711740   2710312   2708986   2707786   2706695  
  6540.000000   2705669   2704633   2703515   2702263   2700865  
  6530.000000   2699346   2697763   2696176   2694643   2693205  
  6520.000000   2691887   2690698   2689639   2688697   2687847  
  6510.000000   2687050   2686256   2685413   2684482   2683443  
  6500.000000   2682305   2681094   2679850   2678608   2677393  
  6490.000000   2676217   2675082   2673983   2672911   2671853  
  6480.000000   2670791   2669699   2668546   2667312   2665988  
  6470.000000   2664591   2663159   2661744   2660398   2659161  
  6460.000000   2658051   2657061   2656165   2655320   2654487  
  6450.000000   2653625   2652708   2651723   2650676   2649585  
  6440.000000   2648486   2647415   2646410   2645490   2644660  
  6430.000000   2643905   2643204   2642533   2641878   2641232  
  6420.000000   2640598   2639974   2639357   2638735   2638102  
  6410.000000   2637456   2636814   2636201   2635652   2635184  
  6400.000000   2634801   2634481   2634189   2633890   2633561  
  6390.000000   2633200   2632823   2632450   2632099   2631773  
  6380.000000   2631462   2631150   2630826   2630490   2630152  
  6370.000000   2629826   2629519   2629226   2628924   2628586  
  6360.000000   2628183   2627707   2627160   2626564   2625943  
  6350.000000   2625320   2624709   2624119   2623547   2622997  
  6340.000000   2622465   2621953   2621453   2620958   2620452  
  6330.000000   2619922   2619349   2618721   2618023   2617248  
  6320.000000   2616385   2615437   2614408   2613322   2612205  
  6310.000000   2611096   2610016   2608978   2607967   2606957  
  6300.000000   2605905   2604784   2603577   2602293   2600949  
  6290.000000   2599578   2598202   2596839   2595496   2594180  
  6280.000000   2592892   2591639   2590413   2589205   2587987  
  6270.000000   2586729   2585397   2583980   2582480   2580931  
  6260.000000   2579366   2577826   2576325   2574863   2573413  
  6250.000000   2571943   2570421   2568829   2567154   2565399  
  6240.000000   2563565   2561660   2559694   2557694   2555694  
  6230.000000   2553740   2551876   2550129   2548503   2546973  
  6220.000000   2545496   2544023   2542517   2540959   2539352  
  6210.000000   2537712   2536064   2534427   2532816   2531240  
  6200.000000   2529707   2528221   2526786   2525394   2524032  
  6190.000000   2522677   2521306   2519905   2518479   2517046  
  6180.000000   2515634   2514271   2512973   2511738   2510551  
  6170.000000   2509391   2508241   2507092   2505943   2504796  
  6160.000000   2503650   2502492   2501307   2500075   2498792  
  6150.000000   2497461   2496104   2494750   2493430   2492168  
  6140.000000   2490979   2489868   2488833   2487866   2486955  
  6130.000000   2486083   2485231   2484376   2483503   2482602  
  6120.000000   2481681   2480756   2479857   2479006   2478224  
  6110.000000   2477512   2476865   2476256   2475663   2475059  
  6100.000000   2474430   2473765   2473076   2472376   2471701  
  6090.000000   2471082   2470559   2470153   2469879   2469719  
  6080.000000   2469651   2469635   2469644   2469657   2469684  
  6070.000000   2469737   2469852   2470048   2470351   2470755  
  6060.000000   2471261   2471847   2472503   2473207   2473949  
  6050.000000   2474710   2475489   2476278   2477095   2477954  
  6040.000000   2478893   2479933   2481098   2482380   2483771  
  6030.000000   2485236   2486758   2488318   2489925   2491586  
  6020.000000   2493317   2495113   2496962   2498829   2500691  
  6010.000000   2502522   2504329   2506127   2507954   2509834  
  6000.000000   2511790   2513815   2515902   2518027   2520185  
  5990.000000   2522366   2524581   2526832   2529130   2531470  
  5980.000000   2533856   2536284   2538768   2541314   2543941  
  5970.000000   2546649   2549440   2552295   2555205   2558151  
  5960.000000   2561140   2564172   2567264   2570411   2573608  
  5950.000000   2576826   2580048   2583255   2586457   2589682  
  5940.000000   2592977   2596383   2599932   2603630   2607455  
  5930.000000   2611372   2615331   2619291   2623211   2627057  
  5920.000000   2630797   2634399   2637837   2641092   2644160  
  5910.000000   2647052   2649791   2652408   2654930   2657386  
  5900.000000   2659803   2662217   2664661   2667185   2669817  
  5890.000000   2672579   2675454   2678406   2681371   2684292  
  5880.000000   2687113   2689809   2692369   2694804   2697125  
  5870.000000   2699341   2701458   2703482   2705422   2707296  
  5860.000000   2709128   2710943   2712757   2714581   2716419  
  5850.000000   2718283   2720189   2722164   2724235   2726418  
  5840.000000   2728712   2731092   2733521   2735957   2738375  
  5830.000000   2740762   2743132   2745495   2747867   2750245  
  5820.000000   2752619   2754975   2757309   2759626   2761945  
  5810.000000   2764290   2766667   2769079   2771499   2773911  
  5800.000000   2776283   2778623   2780922   2783215   2785491  
  5790.000000   2787760   2789969   2792081   2793999   2795651  
  5780.000000   2796924   2797736   2797987   2797627   2796620  
  5770.000000   2795012   2792885   2790392   2787691   2784957  
  5760.000000   2782307   2779826   2777526   2775403   2773420  
  5750.000000   2771564   2769820   2768202   2766715   2765370  
  5740.000000   2764162   2763078   2762104   2761213   2760392  
  5730.000000   2759608   2758839   2758047   2757215   2756328  
  5720.000000   2755410   2754487   2753610   2752807   2752100  
  5710.000000   2751471   2750897   2750344   2749801   2749274  
  5700.000000   2748795   2748397   2748105   2747923   2747825  
  5690.000000   2747781   2747750   2747716   2747664   2747601  
  5680.000000   2747518   2747406   2747225   2746933   2746474  
  5670.000000   2745807   2744894   2743721   2742276   2740570  
  5660.000000   2738619   2736473   2734187   2731848   2729529  
  5650.000000   2727304   2725206   2723246   2721399   2719635  
  5640.000000   2717919   2716239   2714590   2712980   2711415  
  5630.000000   2709892   2708405   2706942   2705501   2704084  
  5620.000000   2702706   2701373   2700089   2698841   2697617  
  5610.000000   2696400   2695191   2694004   2692864   2691795  
  5600.000000   2690813   2689911   2689076   2688284   2687519  
  5590.000000   2686774   2686049   2685341   2684641   2683927  
  5580.000000   2683173   2682358   2681477   2680546   2679591  
  5570.000000   2678638   2677697   2676759   2675794   2674771  
  5560.000000   2673671   2672497   2671275   2670044   2668836  
  5550.000000   2667675   2666558   2665475   2664409   2663352  
  5540.000000   2662302   2661266   2660245   2659235   2658222  
  5530.000000   2657187   2656119   2655014   2653879   2652728  
  5520.000000   2651572   2650416   2649261   2648109   2646959  
  5510.000000   2645818   2644690   2643573   2642455   2641318  
  5500.000000   2640142   2638922   2637668   2636410   2635178  
  5490.000000   2633995   2632854   2631726   2630561   2629320  
  5480.000000   2627976   2626540   2625042   2623527   2622021  
  5470.000000   2620536   2619052   2617543   2615979   2614353  
  5460.000000   2612668   2610941   2609178   2607382   2605540  
  5450.000000   2603640   2601677   2599668   2597643   2595643  
  5440.000000   2593700   2591832   2590042   2588323   2586669  
  5430.000000   2585073   2583538   2582055   2580617   2579199  
  5420.000000   2577794   2576393   2575027   2573733   2572573  
  5410.000000   2571579   2570770   2570114   2569581   2569120  
  5400.000000   2568721   2568381   2568137   2568006   2568018  
  5390.000000   2568152   2568399   2568721   2569128   2569625  
  5380.000000   2570269   2571092   2572139   2573392   2574843  
  5370.000000   2576432   2578144   2579936   2581837   2583832  
  5360.000000   2585972   2588241   2590690   2593312   2596184  
  5350.000000   2599331   2602861   2606797   2611215   2616078  
  5340.000000   2621409   2627131   2633272   2639776   2646704  
  5330.000000   2654014   2661762   2669883   2678421   2687316  
  5320.000000   2696654   2706431   2716794   2727759   2739468  
  5310.000000   2751892   2765113   2779042   2793736   2809114  
  5300.000000   2825262   2842144   2859885   2878473   2898035  
  5290.000000   2918535   2940038   2962431   2985681   3009606  
  5280.000000   3034148   3059177   3084736   3110828   3137589  
  5270.000000   3165054   3193263   3222090   3251360   3280822  
  5260.000000   3310273   3339599   3368791   3397936   3427101  
  5250.000000   3456324   3485477   3514384   3542735   3570340  
  5240.000000   3596993   3622737   3647588   3671757   3695308  
  5230.000000   3718392   3740930   3762912   3784127   3804516  
  5220.000000   3823910   3842368   3859858   3876566   3892530  
  5210.000000   3907935   3922743   3937012   3950579   3963419  
  5200.000000   3975363   3986462   3996666   4006134   4014877  
  5190.000000   4023041   4030576   4037537   4043812   4049435  
  5180.000000   4054328   4058586   4062188   4065250   4067743  
  5170.000000   4069741   4071183   4072122   4072507   4072409  
  5160.000000   4071797   4070741   4069194   4067204   4064727  
  5150.000000   4061828   4058507   4054868   4050934   4046787  
  5140.000000   4042408   4037816   4032951   4027814   4022365  
  5130.000000   4016644   4010653   4004455   3998067   3991542  
  5120.000000   3984896   3978185   3971438   3964713   3958034  
  5110.000000   3951428   3944880   3938372   3931868   3925352  
  5100.000000   3918818   3912287   3905788   3899355   3893004  
  5090.000000   3886743   3880561   3874450   3868399   3862408  
  5080.000000   3856475   3850595   3844746   3838903   3833024  
  5070.000000   3827081   3821048   3814924   3808714   3802436  
  5060.000000   3796100   3789720   3783291   3776817   3770291  
  5050.000000   3763717   3757094   3750428   3743715   3736958  
  5040.000000   3730147   3723288   3716382   3709442   3702482  
  5030.000000   3695520   3688573   3681652   3674773   3667947  
  5020.000000   3661192   3654517   3647944   3641470   3635106  
  5010.000000   3628838   3622674   3616602   3610647   3604814  
  5000.000000   3599145   3593652   3588378   3583323   3578522  
  4990.000000   3573964   3569679   3565650   3561903   3558408  
  4980.000000   3555180   3552173   3549398   3546817   3544468  
  4970.000000   3542341   3540508   3538978   3537824   3537036  
  4960.000000   3536657   3536646   3537027   3537750   3538846  
  4950.000000   3540276   3542085   3544237   3546776   3549663  
  4940.000000   3552935   3556552   3560551   3564891   3569604  
  4930.000000   3574641   3580030   3585723   3591754   3598092  
  4920.000000   3604781   3611800   3619185   3626899   3634951  
  4910.000000   3643288   3651904   3660752   3669832   3679116  
  4900.000000   3688602   3698259   3708063   3717971   3727940  
  4890.000000   3737929   3747891   3757796   3767593   3777254  
  4880.000000   3786716   3795951   3804892   3813519   3821771  
  4870.000000   3829640   3837065   3844041   3850505   3856465  
  4860.000000   3861875   3866775   3871157   3875094   3878601  
  4850.000000   3881759   3884581   3887133   3889416   3891481  
  4840.000000   3893323   3894989   3896478   3897837   3899074  
  4830.000000   3900241   3901352   3902449   3903539   3904640  
  4820.000000   3905737   3906819   3907863   3908858   3909805  
  4810.000000   3910722   3911641   3912598   3913632   3914765  
  4800.000000   3916010   3917361   3918812   3920350   3921974  
  4790.000000   3923679   3925468   3927339   3929287   3931293  
  4780.000000   3933342   3935410   3937479   3939534   3941569  
  4770.000000   3943581   3945568   3947531   3949467   3951372  
  4760.000000   3953236   3955048   3956788   3958444   3959989  
  4750.000000   3961415   3962705   3963861   3964884   3965793  
  4740.000000   3966602   3967340   3968024   3968678   3969309  
  4730.000000   3969924   3970509   3971049   3971514   3971879  
  4720.000000   3972123   3972239   3972241   3972162   3972050  
  4710.000000   3971957   3971936   3972023   3972245   3972603  
  4700.000000   3973099   3973719   3974459   3975318   3976308  
  4690.000000   3977442   3978743   3980217   3981874   3983690  
  4680.000000   3985640   3987668   3989723   3991733   3993656  
  4670.000000   3995441   3997081   3998572   3999955   4001269  
  4660.000000   4002585   4003964   4005482   4007194   4009152  
  4650.000000   4011381   4013887   4016655   4019646   4022814  
  4640.000000   4026103   4029463   4032845   4036216   4039541  
  4630.000000   4042793   4045941   4048960   4051821   4054512  
  4620.000000   4057013   4059326   4061437   4063349   4065034  
  4610.000000   4066489   4067685   4068635   4069339   4069851  
  4600.000000   4070200   4070459   4070650   4070813   4070923  
  4590.000000   4070975   4070910   4070707   4070315   4069728  
  4580.000000   4068922   4067915   4066701   4065307   4063737  
  4570.000000   4062020   4060165   4058203   4056140   4054001  
  4560.000000   4051788   4049521   4047200   4044845   4042459  
  4550.000000   4040056   4037633   4035189   4032709   4030180  
  4540.000000   4027591   4024943   4022252   4019543   4016850  
  4530.000000   4014196   4011607   4009077   4006617   4004207  
  4520.000000   4001865   3999582   3997403   3995330   3993422  
  4510.000000   3991676   3990156   3988860   3987872   3987206  
  4500.000000   3986973   3987195   3987984   3989338   3991343  
  4490.000000   3993965   3997275   4001234   4005920   4011299  
  4480.000000   4017448   4024320   4031968   4040319   4049403  
  4470.000000   4059136   4069545   4080547   4092165   4104313  
  4460.000000   4116992   4130103   4143625   4157457   4171577  
  4450.000000   4185906   4200436   4215120   4229963   4244936  
  4440.000000   4260036   4275236   4290509   4305825   4321134  
  4430.000000   4336412   4351593   4366660   4381538   4396209  
  4420.000000   4410581   4424630   4438249   4451411   4464005  
  4410.000000   4476006   4487306   4497886   4507651   4516603  
  4400.000000   4524683   4531947   4538399   4544158   4549288  
  4390.000000   4553951   4558239   4562311   4566246   4570160  
  4380.000000   4574092   4578100   4582181   4586357   4590613  
  4370.000000   4594972   4599445   4604070   4608886   4613934  
  4360.000000   4619242   4624831   4630687   4636803   4643112  
  4350.000000   4649588   4656126   4662705   4669225   4675705  
  4340.000000   4682076   4688366   4694463   4700258   4705435  
  4330.000000   4709621   4712291   4712970   4711255   4707021  
  4320.000000   4700415   4691938   4682289   4672306   4662728  
  4310.000000   4654150   4646868   4640968   4636307   4632687  
  4300.000000   4629873   4627705   4626086   4624970   4624355  
  4290.000000   4624198   4624486   4625136   4626123   4627376  
  4280.000000   4628891   4630636   4632606   4634782   4637134  
  4270.000000   4639641   4642249   4644904   4647481   4649815  
  4260.000000   4651641   4652670   4652582   4651142   4648221  
  4250.000000   4643886   4638355   4632011   4625271   4618573  
  4240.000000   4612235   4606484   4601370   4596867   4592845  
  4230.000000   4589172   4585707   4582347   4579029   4575714  
  4220.000000   4572416   4569143   4565969   4562934   4560145  
  4210.000000   4557657   4555568   4553904   4552712   4551963  
  4200.000000   4551644   4551681   4552031   4552606   4553370  
  4190.000000   4554249   4555233   4556272   4557382   4558528  
  4180.000000   4559738   4560980   4562289   4563648   4565118  
  4170.000000   4566718   4568551   4570669   4573189   4576148  
  4160.000000   4579619   4583579   4588045   4592948   4598290  
  4150.000000   4604007   4610133   4616632   4623566   4630913  
  4140.000000   4638736   4647005   4655776   4665002   4674729  
  4130.000000   4684898   4695539   4706582   4718052   4729892  
  4120.000000   4742143   4754784   4767883   4781450   4795562  
  4110.000000   4810221   4825474   4841281   4857627   4874419  
  4100.000000   4891588   4909013   4926610   4944280   4961976  
  4090.000000   4979658   4997328   5014998   5032689   5050435  
  4080.000000   5068244   5086139   5104092   5122096   5140069  
  4070.000000   5157962   5175642   5193049   5210052   5226635  
  4060.000000   5242712   5258316   5273376   5287921   5301854  
  4050.000000   5315194   5327853   5339894   5351275   5362105  
  4040.000000   5372339   5382054   5391140   5399623   5407371  
  4030.000000   5414425   5420696   5426262   5431063   5435157  
  4020.000000   5438443   5440973   5442711   5443743   5444038  
  4010.000000   5443751   5442969   5441725   5439805   5437264  
  4000.000000   5434404  
##END= 
