##TITLE= Sample 003 By ssteindl date Dienstag, November 20 2018
##JCAMP-DX= 4.24
##DATA TYPE= INFRARED SPECTRUM
##ORIGIN= Exported PE Spectrum Data File
##OWNER= Sandra Steindl
##DATE= 18/11/20
##TIME= 16:08:33.00
##SPECTROMETER/DATA SYSTEM= PERKIN-ELMER Frontier FT-IR/NIR IR
##INSTRUMENT PARAMETERS=
  APODIZATION=stark
  DETECTOR=INGAAS
##RESOLUTION= 16.000000
##DELTAX= -2.000000
##XUNITS= 1/CM
##YUNITS= A
##XFACTOR= 1.00
##YFACTOR= 0.00000011920928955078
##FIRSTX= 10000.00
##LASTX= 4000.00
##NPOINTS= 3001
##FIRSTY= 0.317724
##MAXY= 0.636695
##MINY= 0.229283
##XYDATA= (X++(Y..Y))
 10000.000000   2665264   2662723   2662283   2666433   2674767  
  9990.000000   2684789   2694256   2701759   2706107   2706599  
  9980.000000   2703779   2699169   2694390   2690649   2688571  
  9970.000000   2688134   2688697   2689409   2689529   2688645  
  9960.000000   2686732   2684086   2681103   2678127   2675261  
  9950.000000   2672394   2669261   2665655   2661600   2657438  
  9940.000000   2653801   2651422   2650896   2652439   2655768  
  9930.000000   2660141   2664541   2667960   2669630   2669258  
  9920.000000   2667019   2663555   2659724   2656450   2654458  
  9910.000000   2654168   2655569   2658197   2661191   2663376  
  9900.000000   2663566   2660766   2654593   2645356   2634151  
  9890.000000   2622512   2612017   2603847   2598506   2595901  
  9880.000000   2595541   2596979   2599979   2604623   2611026  
  9870.000000   2619047   2628022   2636695   2643570   2647262  
  9860.000000   2647115   2643350   2637102   2629953   2623433  
  9850.000000   2618615   2615909   2615244   2616230   2618454  
  9840.000000   2621456   2624700   2627388   2628491   2626964  
  9830.000000   2622152   2614192   2604168   2593877   2585303  
  9820.000000   2579942   2578363   2580134   2584118   2589042  
  9810.000000   2593887   2598176   2601748   2604530   2606133  
  9800.000000   2605896   2603094   2597523   2589884   2581906  
  9790.000000   2575921   2574069   2577541   2586017   2597845  
  9780.000000   2610490   2621484   2629038   2632485   2632130  
  9770.000000   2628835   2623581   2617096   2609939   2602560  
  9760.000000   2595573   2589664   2585422   2583060   2582176  
  9750.000000   2581940   2581315   2579681   2577063   2574276  
  9740.000000   2572507   2572756   2575313   2579512   2584004  
  9730.000000   2587255   2588245   2586852   2583899   2580754  
  9720.000000   2578688   2578376   2579643   2581666   2583417  
  9710.000000   2584104   2583505   2581852   2579619   2577112  
  9700.000000   2574313   2570911   2566599   2561395   2555851  
  9690.000000   2550971   2547859   2547341   2549556   2554006  
  9680.000000   2559631   2565341   2570274   2574087   2576882  
  9670.000000   2578946   2580509   2581453   2581416   2579829  
  9660.000000   2576335   2570855   2563821   2555991   2548293  
  9650.000000   2541606   2536498   2533304   2532002   2532516  
  9640.000000   2534640   2538218   2542983   2548552   2554353  
  9630.000000   2559648   2563704   2565866   2565805   2563488  
  9620.000000   2559261   2553688   2547457   2541257   2535685  
  9610.000000   2531270   2528375   2527240   2527785   2529671  
  9600.000000   2532164   2534355   2535261   2534155   2530783  
  9590.000000   2525468   2519082   2512727   2507432   2503758  
  9580.000000   2501682   2500644   2499850   2498616   2496641  
  9570.000000   2494104   2491511   2489449   2488278   2487978  
  9560.000000   2488175   2488300   2487878   2486689   2484866  
  9550.000000   2482770   2480809   2479268   2478192   2477479  
  9540.000000   2476942   2476463   2476010   2475600   2475215  
  9530.000000   2474710   2473822   2472215   2469631   2465988  
  9520.000000   2461474   2456466   2451501   2447034   2443447  
  9510.000000   2440873   2439331   2438670   2438691   2439137  
  9500.000000   2439745   2440316   2440771   2441284   2442265  
  9490.000000   2444320   2448028   2453695   2461161   2469691  
  9480.000000   2478146   2485186   2489688   2490980   2489055  
  9470.000000   2484500   2478315   2471624   2465420   2460441  
  9460.000000   2457089   2455513   2455547   2456848   2458799  
  9450.000000   2460745   2461989   2462108   2460983   2458932  
  9440.000000   2456559   2454528   2453296   2452860   2452810  
  9430.000000   2452441   2451139   2448599   2445000   2440924  
  9420.000000   2437095   2434109   2432159   2431047   2430320  
  9410.000000   2429565   2428624   2427651   2427000   2426984  
  9400.000000   2427639   2428643   2429388   2429255   2427905  
  9390.000000   2425464   2422514   2419816   2418024   2417374  
  9380.000000   2417645   2418223   2418379   2417511   2415378  
  9370.000000   2412158   2408334   2404536   2401283   2398941  
  9360.000000   2397666   2397522   2398502   2400535   2403410  
  9350.000000   2406698   2409755   2411839   2412296   2410779  
  9340.000000   2407381   2402655   2397482   2392823   2389437  
  9330.000000   2387645   2387264   2387725   2388296   2388339  
  9320.000000   2387431   2385456   2382532   2378971   2375160  
  9310.000000   2371496   2368326   2365918   2364459   2364008  
  9300.000000   2364467   2365536   2366754   2367610   2367697  
  9290.000000   2366832   2365141   2362956   2360755   2358914  
  9280.000000   2357642   2356833   2356184   2355326   2354024  
  9270.000000   2352297   2350392   2348747   2347816   2347958  
  9260.000000   2349277   2351598   2354506   2357432   2359814  
  9250.000000   2361141   2361100   2359590   2356819   2353228  
  9240.000000   2349444   2346132   2343851   2342940   2343403  
  9230.000000   2344960   2347091   2349299   2351182   2352608  
  9220.000000   2353592   2354293   2354850   2355301   2355560  
  9210.000000   2355412   2354676   2353203   2350972   2347998  
  9200.000000   2344349   2340113   2335459   2330678   2326186  
  9190.000000   2322531   2320226   2319649   2320815   2323395  
  9180.000000   2326738   2330116   2332907   2334788   2335764  
  9170.000000   2336083   2336056   2335872   2335528   2334855  
  9160.000000   2333686   2331975   2329847   2327559   2325324  
  9150.000000   2323239   2321172   2318890   2316138   2312842  
  9140.000000   2309149   2305393   2301950   2299028   2296607  
  9130.000000   2294407   2292090   2289392   2286309   2283091  
  9120.000000   2280161   2277952   2276743   2276594   2277359  
  9110.000000   2278823   2280800   2283154   2285766   2288423  
  9100.000000   2290824   2292533   2293150   2292401   2290326  
  9090.000000   2287233   2283643   2280087   2276992   2274573  
  9080.000000   2272866   2271807   2271341   2271473   2272208  
  9070.000000   2273482   2275049   2276557   2277609   2277979  
  9060.000000   2277707   2277169   2276963   2277660   2279559  
  9050.000000   2282521   2285997   2289169   2291214   2291561  
  9040.000000   2290060   2286970   2282824   2278266   2273892  
  9030.000000   2270147   2267258   2265293   2264173   2263738  
  9020.000000   2263726   2263872   2263930   2263774   2263384  
  9010.000000   2262864   2262379   2262040   2261858   2261672  
  9000.000000   2261286   2260501   2259281   2257758   2256212  
  8990.000000   2254960   2254192   2253935   2254026   2254260  
  8980.000000   2254484   2254709   2255083   2255797   2256928  
  8970.000000   2258314   2259555   2260105   2259509   2257566  
  8960.000000   2254476   2250763   2247139   2244249   2242466  
  8950.000000   2241820   2242013   2242623   2243244   2243668  
  8940.000000   2243894   2244084   2244429   2245026   2245793  
  8930.000000   2246487   2246791   2246426   2245287   2243472  
  8920.000000   2241294   2239166   2237484   2236500   2236234  
  8910.000000   2236478   2236855   2236946   2236435   2235209  
  8900.000000   2233390   2231288   2229276   2227679   2226669  
  8890.000000   2226241   2226241   2226471   2226765   2227051  
  8880.000000   2227330   2227634   2227975   2228288   2228457  
  8870.000000   2228327   2227795   2226815   2225438   2223759  
  8860.000000   2221915   2220045   2218296   2216838   2215856  
  8850.000000   2215544   2216012   2217254   2219056   2221072  
  8840.000000   2222865   2224078   2224509   2224213   2223442  
  8830.000000   2222539   2221775   2221231   2220793   2220185  
  8820.000000   2219129   2217430   2215087   2212253   2209169  
  8810.000000   2206062   2203083   2200305   2197774   2195573  
  8800.000000   2193882   2192937   2192966   2194056   2196094  
  8790.000000   2198753   2201569   2204083   2205968   2207144  
  8780.000000   2207786   2208243   2208913   2210070   2211797  
  8770.000000   2213908   2216024   2217653   2218345   2217806  
  8760.000000   2215986   2213106   2209600   2206035   2202945  
  8750.000000   2200754   2199650   2199613   2200415   2201737  
  8740.000000   2203232   2204629   2205739   2206487   2206855  
  8730.000000   2206865   2206570   2206029   2205357   2204658  
  8720.000000   2204062   2203609   2203280   2202929   2202369  
  8710.000000   2201416   2200002   2198231   2196389   2194884  
  8700.000000   2194123   2194393   2195751   2198028   2200863  
  8690.000000   2203840   2206581   2208853   2210570   2211794  
  8680.000000   2212663   2213311   2213825   2214207   2214415  
  8670.000000   2214355   2213926   2213036   2211630   2209726  
  8660.000000   2207418   2204922   2202524   2200569   2199343  
  8650.000000   2199008   2199524   2200652   2201999   2203135  
  8640.000000   2203723   2203619   2202935   2201972   2201137  
  8630.000000   2200767   2201045   2201922   2203181   2204499  
  8620.000000   2205595   2206302   2206627   2206715   2206763  
  8610.000000   2206944   2207325   2207879   2208508   2209116  
  8600.000000   2209656   2210156   2210690   2211328   2212070  
  8590.000000   2212836   2213475   2213831   2213793   2213346  
  8580.000000   2212585   2211670   2210778   2210038   2209506  
  8570.000000   2209155   2208913   2208708   2208495   2208281  
  8560.000000   2208103   2208025   2208108   2208406   2208953  
  8550.000000   2209753   2210774   2211933   2213099   2214108  
  8540.000000   2214806   2215093   2214971   2214551   2214027  
  8530.000000   2213611   2213452   2213583   2213911   2214263  
  8520.000000   2214461   2214393   2214057   2213545   2212988  
  8510.000000   2212486   2212059   2211650   2211172   2210573  
  8500.000000   2209887   2209237   2208794   2208704   2209022  
  8490.000000   2209679   2210506   2211290   2211877   2212189  
  8480.000000   2212264   2212184   2212054   2211919   2211772  
  8470.000000   2211580   2211327   2211075   2210946   2211125  
  8460.000000   2211780   2213003   2214741   2216800   2218891  
  8450.000000   2220682   2221888   2222312   2221912   2220779  
  8440.000000   2219127   2217241   2215415   2213928   2212961  
  8430.000000   2212620   2212881   2213675   2214870   2216336  
  8420.000000   2217909   2219420   2220679   2221463   2221543  
  8410.000000   2220714   2218911   2216229   2212974   2209590  
  8400.000000   2206571   2204361   2203210   2203163   2204011  
  8390.000000   2205435   2207061   2208599   2209855   2210734  
  8380.000000   2211206   2211232   2210773   2209736   2208089  
  8370.000000   2205852   2203191   2200364   2197699   2195518  
  8360.000000   2194070   2193516   2193869   2195056   2196888  
  8350.000000   2199135   2201505   2203695   2205404   2206383  
  8340.000000   2206501   2205753   2204295   2202366   2200266  
  8330.000000   2198245   2196473   2195004   2193796   2192773  
  8320.000000   2191855   2191026   2190297   2189731   2189367  
  8310.000000   2189227   2189269   2189409   2189532   2189523  
  8300.000000   2189283   2188758   2187939   2186877   2185674  
  8290.000000   2184464   2183379   2182521   2181907   2181462  
  8280.000000   2181010   2180340   2179257   2177674   2175632  
  8270.000000   2173306   2170952   2168822   2167082   2165749  
  8260.000000   2164701   2163731   2162628   2161268   2159648  
  8250.000000   2157899   2156227   2154856   2153938   2153503  
  8240.000000   2153461   2153614   2153736   2153600   2153063  
  8230.000000   2152055   2150618   2148868   2146980   2145146  
  8220.000000   2143543   2142304   2141497   2141130   2141143  
  8210.000000   2141432   2141849   2142246   2142461   2142375  
  8200.000000   2141897   2141003   2139734   2138199   2136552  
  8190.000000   2134952   2133516   2132283   2131184   2130085  
  8180.000000   2128810   2127234   2125307   2123105   2120789  
  8170.000000   2118574   2116633   2115052   2113789   2112701  
  8160.000000   2111598   2110312   2108759   2106948   2104971  
  8150.000000   2102956   2101017   2099217   2097569   2096043  
  8140.000000   2094618   2093278   2092040   2090912   2089888  
  8130.000000   2088924   2087949   2086888   2085700   2084406  
  8120.000000   2083096   2081904   2080967   2080372   2080119  
  8110.000000   2080113   2080181   2080130   2079789   2079064  
  8100.000000   2077953   2076539   2074965   2073386   2071927  
  8090.000000   2070650   2069543   2068528   2067495   2066339  
  8080.000000   2064998   2063479   2061855   2060259   2058830  
  8070.000000   2057696   2056919   2056497   2056364   2056413  
  8060.000000   2056526   2056592   2056527   2056261   2055749  
  8050.000000   2054951   2053854   2052471   2050866   2049143  
  8040.000000   2047445   2045913   2044655   2043721   2043076  
  8030.000000   2042631   2042259   2041850   2041336   2040718  
  8020.000000   2040044   2039387   2038805   2038312   2037874  
  8010.000000   2037410   2036835   2036081   2035140   2034060  
  8000.000000   2032943   2031909   2031055   2030425   2029990  
  7990.000000   2029657   2029300   2028801   2028098   2027203  
  7980.000000   2026200   2025218   2024379   2023754   2023337  
  7970.000000   2023054   2022794   2022460   2022006   2021456  
  7960.000000   2020885   2020378   2019986   2019697   2019434  
  7950.000000   2019089   2018566   2017827   2016908   2015909  
  7940.000000   2014958   2014158   2013561   2013138   2012809  
  7930.000000   2012461   2011991   2011335   2010483   2009480  
  7920.000000   2008414   2007404   2006571   2006016   2005792  
  7910.000000   2005884   2006200   2006583   2006849   2006840  
  7900.000000   2006478   2005782   2004881   2003944   2003136  
  7890.000000   2002547   2002166   2001900   2001616   2001223  
  7880.000000   2000708   2000174   1999785   1999720   2000075  
  7870.000000   2000825   2001797   2002712   2003264   2003194  
  7860.000000   2002380   2000853   1998810   1996545   1994387  
  7850.000000   1992622   1991431   1990866   1990841   1991187  
  7840.000000   1991685   1992145   1992430   1992495   1992362  
  7830.000000   1992097   1991774   1991432   1991080   1990690  
  7820.000000   1990236   1989704   1989123   1988546   1988032  
  7810.000000   1987622   1987307   1987039   1986736   1986325  
  7800.000000   1985758   1985041   1984223   1983374   1982568  
  7790.000000   1981852   1981235   1980693   1980179   1979649  
  7780.000000   1979073   1978454   1977824   1977245   1976786  
  7770.000000   1976506   1976426   1976520   1976702   1976850  
  7760.000000   1976833   1976547   1975957   1975099   1974074  
  7750.000000   1973005   1971993   1971079   1970230   1969369  
  7740.000000   1968409   1967308   1966091   1964857   1963730  
  7730.000000   1962832   1962217   1961868   1961699   1961590  
  7720.000000   1961427   1961127   1960655   1960004   1959188  
  7710.000000   1958221   1957121   1955916   1954658   1953420  
  7700.000000   1952292   1951349   1950633   1950138   1949806  
  7690.000000   1949552   1949288   1948949   1948510   1947980  
  7680.000000   1947398   1946807   1946250   1945750   1945322  
  7670.000000   1944960   1944651   1944369   1944084   1943771  
  7660.000000   1943418   1943038   1942663   1942338   1942098  
  7650.000000   1941950   1941863   1941769   1941588   1941250  
  7640.000000   1940725   1940022   1939196   1938317   1937455  
  7630.000000   1936661   1935964   1935381   1934928   1934629  
  7620.000000   1934508   1934582   1934839   1935234   1935689  
  7610.000000   1936109   1936411   1936537   1936472   1936236  
  7600.000000   1935875   1935441   1934987   1934550   1934158  
  7590.000000   1933825   1933549   1933318   1933104   1932873  
  7580.000000   1932591   1932240   1931818   1931342   1930841  
  7570.000000   1930338   1929843   1929349   1928841   1928315  
  7560.000000   1927792   1927321   1926971   1926808   1926865  
  7550.000000   1927120   1927494   1927858   1928080   1928045  
  7540.000000   1927710   1927088   1926270   1925376   1924543  
  7530.000000   1923886   1923482   1923365   1923530   1923954  
  7520.000000   1924607   1925457   1926474   1927609   1928798  
  7510.000000   1929942   1930937   1931676   1932094   1932175  
  7500.000000   1931987   1931654   1931343   1931208   1931360  
  7490.000000   1931839   1932615   1933608   1934708   1935816  
  7480.000000   1936854   1937779   1938571   1939232   1939779  
  7470.000000   1940237   1940655   1941083   1941574   1942156  
  7460.000000   1942826   1943536   1944220   1944811   1945285  
  7450.000000   1945669   1946043   1946507   1947149   1948006  
  7440.000000   1949049   1950200   1951373   1952507   1953599  
  7430.000000   1954687   1955838   1957098   1958467   1959884  
  7420.000000   1961257   1962488   1963519   1964343   1965016  
  7410.000000   1965622   1966250   1966962   1967792   1968739  
  7400.000000   1969783   1970895   1972040   1973180   1974276  
  7390.000000   1975299   1976237   1977117   1977996   1978957  
  7380.000000   1980079   1981412   1982946   1984612   1986309  
  7370.000000   1987926   1989377   1990622   1991665   1992543  
  7360.000000   1993303   1993986   1994631   1995271   1995944  
  7350.000000   1996690   1997541   1998509   1999565   2000652  
  7340.000000   2001692   2002627   2003435   2004145   2004824  
  7330.000000   2005554   2006401   2007388   2008495   2009666  
  7320.000000   2010837   2011950   2012973   2013892   2014713  
  7310.000000   2015442   2016092   2016677   2017223   2017767  
  7300.000000   2018354   2019024   2019807   2020712   2021727  
  7290.000000   2022825   2023973   2025137   2026280   2027365  
  7280.000000   2028357   2029219   2029936   2030516   2031006  
  7270.000000   2031477   2032019   2032697   2033551   2034567  
  7260.000000   2035700   2036880   2038052   2039176   2040258  
  7250.000000   2041319   2042405   2043547   2044776   2046100  
  7240.000000   2047530   2049065   2050716   2052481   2054370  
  7230.000000   2056365   2058459   2060617   2062820   2065027  
  7220.000000   2067219   2069359   2071445   2073474   2075494  
  7210.000000   2077567   2079799   2082281   2085095   2088256  
  7200.000000   2091725   2095397   2099151   2102860   2106444  
  7190.000000   2109862   2113136   2116301   2119416   2122510  
  7180.000000   2125612   2128718   2131827   2134930   2138036  
  7170.000000   2141145   2144283   2147463   2150720   2154078  
  7160.000000   2157568   2161193   2164948   2168790   2172685  
  7150.000000   2176586   2180501   2184458   2188550   2192856  
  7140.000000   2197453   2202333   2207445   2212667   2217898  
  7130.000000   2223061   2228174   2233303   2238567   2244049  
  7120.000000   2249789   2255727   2261756   2267735   2273569  
  7110.000000   2279208   2284691   2290079   2295458   2300876  
  7100.000000   2306363   2311914   2317529   2323213   2328991  
  7090.000000   2334888   2340918   2347074   2353328   2359648  
  7080.000000   2366007   2372388   2378781   2385155   2391463  
  7070.000000   2397622   2403558   2409218   2414614   2419824  
  7060.000000   2424977   2430217   2435654   2441342   2447261  
  7050.000000   2453345   2459498   2465638   2471696   2477633  
  7040.000000   2483414   2489013   2494405   2499587   2504580  
  7030.000000   2509440   2514237   2519045   2523905   2528825  
  7020.000000   2533772   2538709   2543594   2548424   2553198  
  7010.000000   2557935   2562624   2567246   2571757   2576127  
  7000.000000   2580344   2584435   2588442   2592409   2596340  
  6990.000000   2600212   2603963   2607544   2610927   2614149  
  6980.000000   2617276   2620407   2623607   2626917   2630315  
  6970.000000   2633771   2637234   2640685   2644101   2647469  
  6960.000000   2650743   2653857   2656717   2659255   2661442  
  6950.000000   2663328   2665011   2666630   2668286   2670046  
  6940.000000   2671898   2673802   2675695   2677552   2679369  
  6930.000000   2681177   2682991   2684809   2686578   2688236  
  6920.000000   2689721   2691013   2692142   2693179   2694209  
  6910.000000   2695296   2696465   2697705   2698979   2700254  
  6900.000000   2701507   2702738   2703945   2705131   2706276  
  6890.000000   2707366   2708384   2709345   2710280   2711241  
  6880.000000   2712270   2713387   2714574   2715787   2716962  
  6870.000000   2718039   2718973   2719742   2720339   2720772  
  6860.000000   2721061   2721241   2721362   2721492   2721695  
  6850.000000   2722023   2722492   2723084   2723746   2724424  
  6840.000000   2725073   2725687   2726285   2726904   2727565  
  6830.000000   2728267   2728970   2729622   2730171   2730589  
  6820.000000   2730879   2731063   2731165   2731202   2731172  
  6810.000000   2731073   2730909   2730712   2730528   2730417  
  6800.000000   2730411   2730514   2730683   2730854   2730956  
  6790.000000   2730946   2730807   2730557   2730220   2729813  
  6780.000000   2729333   2728762   2728087   2727310   2726468  
  6770.000000   2725618   2724825   2724142   2723587   2723149  
  6760.000000   2722793   2722482   2722186   2721893   2721608  
  6750.000000   2721337   2721090   2720867   2720666   2720487  
  6740.000000   2720334   2720215   2720140   2720110   2720123  
  6730.000000   2720168   2720232   2720307   2720388   2720470  
  6720.000000   2720548   2720616   2720659   2720670   2720641  
  6710.000000   2720575   2720475   2720347   2720188   2719992  
  6700.000000   2719743   2719437   2719072   2718659   2718207  
  6690.000000   2717726   2717206   2716634   2715988   2715265  
  6680.000000   2714474   2713652   2712839   2712075   2711367  
  6670.000000   2710699   2710020   2709273   2708402   2707378  
  6660.000000   2706192   2704862   2703414   2701888   2700319  
  6650.000000   2698754   2697238   2695820   2694526   2693361  
  6640.000000   2692286   2691239   2690135   2688906   2687512  
  6630.000000   2685962   2684300   2682593   2680899   2679257  
  6620.000000   2677678   2676153   2674666   2673208   2671773  
  6610.000000   2670365   2668970   2667571   2666132   2664625  
  6600.000000   2663030   2661357   2659628   2657881   2656141  
  6590.000000   2654420   2652706   2650980   2649224   2647438  
  6580.000000   2645632   2643831   2642050   2640295   2638550  
  6570.000000   2636790   2634989   2633132   2631224   2629279  
  6560.000000   2627317   2625351   2623387   2621423   2619458  
  6550.000000   2617500   2615568   2613694   2611909   2610242  
  6540.000000   2608701   2607283   2605964   2604706   2603463  
  6530.000000   2602185   2600829   2599360   2597765   2596051  
  6520.000000   2594246   2592395   2590544   2588736   2586999  
  6510.000000   2585347   2583782   2582300   2580887   2579527  
  6500.000000   2578190   2576837   2575421   2573903   2572259  
  6490.000000   2570496   2568651   2566778   2564936   2563165  
  6480.000000   2561481   2559874   2558325   2556822   2555366  
  6470.000000   2553971   2552654   2551413   2550225   2549042  
  6460.000000   2547815   2546506   2545114   2543667   2542218  
  6450.000000   2540813   2539480   2538213   2536984   2535757  
  6440.000000   2534512   2533253   2532005   2530797   2529650  
  6430.000000   2528560   2527504   2526447   2525369   2524267  
  6420.000000   2523167   2522103   2521113   2520209   2519388  
  6410.000000   2518620   2517877   2517132   2516378   2515620  
  6400.000000   2514879   2514177   2513536   2512973   2512499  
  6390.000000   2512116   2511817   2511583   2511387   2511195  
  6380.000000   2510977   2510711   2510391   2510022   2509614  
  6370.000000   2509173   2508691   2508152   2507537   2506839  
  6360.000000   2506063   2505238   2504394   2503565   2502763  
  6350.000000   2501993   2501240   2500498   2499765   2499053  
  6340.000000   2498372   2497730   2497107   2496474   2495782  
  6330.000000   2494996   2494094   2493080   2491979   2490825  
  6320.000000   2489642   2488443   2487225   2485982   2484709  
  6310.000000   2483417   2482125   2480856   2479624   2478434  
  6300.000000   2477272   2476124   2474973   2473811   2472632  
  6290.000000   2471432   2470200   2468925   2467593   2466201  
  6280.000000   2464762   2463303   2461855   2460447   2459081  
  6270.000000   2457744   2456398   2455007   2453537   2451976  
  6260.000000   2450330   2448621   2446870   2445103   2443336  
  6250.000000   2441589   2439877   2438222   2436635   2435123  
  6240.000000   2433668   2432242   2430807   2429329   2427789  
  6230.000000   2426186   2424539   2422870   2421201   2419542  
  6220.000000   2417897   2416268   2414659   2413081   2411550  
  6210.000000   2410079   2408673   2407325   2406016   2404727  
  6200.000000   2403444   2402159   2400880   2399614   2398374  
  6190.000000   2397165   2395993   2394855   2393751   2392676  
  6180.000000   2391623   2390578   2389527   2388454   2387356  
  6170.000000   2386242   2385137   2384072   2383072   2382145  
  6160.000000   2381278   2380441   2379598   2378723   2377808  
  6150.000000   2376864   2375912   2374969   2374043   2373123  
  6140.000000   2372192   2371230   2370233   2369204   2368157  
  6130.000000   2367103   2366045   2364981   2363906   2362828  
  6120.000000   2361771   2360776   2359888   2359137   2358532  
  6110.000000   2358046   2357636   2357242   2356826   2356358  
  6100.000000   2355844   2355299   2354752   2354221   2353725  
  6090.000000   2353273   2352879   2352553   2352314   2352169  
  6080.000000   2352127   2352177   2352310   2352504   2352753  
  6070.000000   2353041   2353367   2353715   2354081   2354443  
  6060.000000   2354802   2355156   2355542   2355994   2356570  
  6050.000000   2357307   2358235   2359344   2360619   2362020  
  6040.000000   2363524   2365105   2366762   2368485   2370280  
  6030.000000   2372128   2374018   2375925   2377842   2379757  
  6020.000000   2381686   2383633   2385615   2387632   2389693  
  6010.000000   2391790   2393933   2396122   2398374   2400687  
  6000.000000   2403067   2405496   2407965   2410453   2412965  
  5990.000000   2415503   2418094   2420756   2423515   2426377  
  5980.000000   2429352   2432431   2435617   2438901   2442285  
  5970.000000   2445747   2449272   2452817   2456354   2459849  
  5960.000000   2463304   2466728   2470168   2473659   2477249  
  5950.000000   2480952   2484779   2488713   2492744   2496858  
  5940.000000   2501052   2505325   2509673   2514086   2518538  
  5930.000000   2523002   2527440   2531826   2536132   2540342  
  5920.000000   2544431   2548378   2552154   2555738   2559110  
  5910.000000   2562272   2565232   2568016   2570650   2573171  
  5900.000000   2575610   2578012   2580414   2582873   2585426  
  5890.000000   2588113   2590933   2593873   2596876   2599880  
  5880.000000   2602806   2605590   2608179   2610548   2612693  
  5870.000000   2614627   2616387   2618017   2619574   2621115  
  5860.000000   2622691   2624337   2626070   2627890   2629790  
  5850.000000   2631759   2633795   2635901   2638083   2640341  
  5840.000000   2642666   2645035   2647426   2649817   2652206  
  5830.000000   2654601   2657028   2659504   2662042   2664635  
  5820.000000   2667268   2669915   2672566   2675210   2677852  
  5810.000000   2680494   2683133   2685760   2688356   2690922  
  5800.000000   2693456   2696002   2698587   2701270   2704050  
  5790.000000   2706929   2709826   2712656   2715269   2717533  
  5780.000000   2719283   2720406   2720794   2720416   2719280  
  5770.000000   2717490   2715183   2712565   2709816   2707118  
  5760.000000   2704564   2702215   2700045   2698035   2696133  
  5750.000000   2694336   2692636   2691060   2689611   2688289  
  5740.000000   2687070   2685918   2684806   2683705   2682612  
  5730.000000   2681518   2680426   2679321   2678193   2677028  
  5720.000000   2675832   2674622   2673432   2672294   2671229  
  5710.000000   2670239   2669310   2668420   2667552   2666704  
  5700.000000   2665885   2665112   2664392   2663718   2663067  
  5690.000000   2662417   2661742   2661044   2660330   2659629  
  5680.000000   2658951   2658308   2657674   2657020   2656287  
  5670.000000   2655423   2654363   2653062   2651472   2649573  
  5660.000000   2647364   2644884   2642200   2639412   2636617  
  5650.000000   2633909   2631340   2628933   2626671   2624532  
  5640.000000   2622490   2620537   2618677   2616920   2615270  
  5630.000000   2613710   2612217   2610751   2609287   2607802  
  5620.000000   2606302   2604786   2603273   2601765   2600274  
  5610.000000   2598804   2597381   2596028   2594782   2593667  
  5600.000000   2592693   2591842   2591081   2590365   2589655  
  5590.000000   2588926   2588171   2587397   2586614   2585831  
  5580.000000   2585053   2584277   2583505   2582741   2581987  
  5570.000000   2581245   2580511   2579771   2579010   2578216  
  5560.000000   2577382   2576512   2575616   2574700   2573763  
  5550.000000   2572800   2571800   2570763   2569698   2568628  
  5540.000000   2567575   2566559   2565583   2564635   2563696  
  5530.000000   2562752   2561803   2560863   2559951   2559082  
  5520.000000   2558250   2557432   2556591   2555696   2554730  
  5510.000000   2553698   2552619   2551518   2550405   2549280  
  5500.000000   2548129   2546943   2545722   2544491   2543277  
  5490.000000   2542106   2540978   2539870   2538731   2537513  
  5480.000000   2536176   2534719   2533160   2531542   2529902  
  5470.000000   2528267   2526640   2525013   2523371   2521706  
  5460.000000   2520015   2518301   2516562   2514791   2512981  
  5450.000000   2511128   2509247   2507368   2505533   2503777  
  5440.000000   2502124   2500570   2499101   2497689   2496324  
  5430.000000   2494996   2493716   2492480   2491288   2490114  
  5420.000000   2488950   2487781   2486639   2485563   2484626  
  5410.000000   2483869   2483324   2482966   2482764   2482660  
  5400.000000   2482638   2482682   2482827   2483088   2483499  
  5390.000000   2484045   2484726   2485504   2486392   2487392  
  5380.000000   2488563   2489931   2491547   2493393   2495470  
  5370.000000   2497716   2500123   2502647   2505318   2508121  
  5360.000000   2511110   2514267   2517649   2521245   2525140  
  5350.000000   2529352   2533997   2539092   2544724   2550850  
  5340.000000   2557499   2564586   2572143   2580106   2588544  
  5330.000000   2597412   2606786   2616606   2626937   2637722  
  5320.000000   2649062   2660948   2673536   2686837   2701005  
  5310.000000   2716005   2731929   2748681   2766314   2784731  
  5300.000000   2804007   2824087   2845088   2866985   2889897  
  5290.000000   2913772   2938661   2964426   2991015   3018234  
  5280.000000   3046019   3074250   3102982   3132239   3162162  
  5270.000000   3192789   3224140   3256075   3288386   3320815  
  5260.000000   3353137   3385239   3417101   3448814   3480430  
  5250.000000   3511995   3543379   3574433   3604864   3634517  
  5240.000000   3663201   3690971   3717832   3743985   3769466  
  5230.000000   3794418   3818748   3842454   3865328   3887331  
  5220.000000   3908298   3928302   3947309   3965512   3982945  
  5210.000000   3999794   4016013   4031658   4046550   4060663  
  5200.000000   4073820   4086079   4097395   4107941   4117736  
  5190.000000   4126938   4135497   4143477   4150764   4157403  
  5180.000000   4163314   4168594   4173208   4177254   4180668  
  5170.000000   4183499   4185661   4187214   4188125   4188508  
  5160.000000   4188373   4187830   4186847   4185466   4183609  
  5150.000000   4181302   4178498   4175271   4171624   4167647  
  5140.000000   4163337   4158752   4153870   4148735   4143342  
  5130.000000   4137755   4131984   4126082   4120037   4113866  
  5120.000000   4107543   4101087   4094504   4087848   4081150  
  5110.000000   4074462   4067790   4061143   4054496   4047842  
  5100.000000   4041167   4034488   4027815   4021173   4014566  
  5090.000000   4008001   4001470   3994978   3988525   3982127  
  5080.000000   3975787   3969509   3963265   3957024   3950736  
  5070.000000   3944368   3937889   3931300   3924604   3917823  
  5060.000000   3910965   3904046   3897059   3890012   3882899  
  5050.000000   3875729   3868498   3861209   3853846   3846402  
  5040.000000   3838858   3831220   3823494   3815714   3807911  
  5030.000000   3800124   3792379   3784693   3777073   3769522  
  5020.000000   3762047   3754655   3747362   3740175   3733102  
  5010.000000   3726133   3719264   3712477   3705776   3699154  
  5000.000000   3692640   3686240   3679991   3673897   3667988  
  4990.000000   3662255   3656722   3651375   3646239   3641295  
  4980.000000   3636570   3632043   3627745   3623663   3619844  
  4970.000000   3616288   3613054   3610135   3607579   3605355  
  4960.000000   3603486   3601925   3600696   3599760   3599160  
  4950.000000   3598872   3598946   3599350   3600120   3601212  
  4940.000000   3602654   3604405   3606509   3608939   3611748  
  4930.000000   3614909   3618463   3622371   3626659   3631284  
  4920.000000   3636275   3641598   3647285   3653308   3659693  
  4910.000000   3666404   3673453   3680797   3688430   3696304  
  4900.000000   3704389   3712631   3720985   3729403   3737840  
  4890.000000   3746271   3754657   3762982   3771193   3779254  
  4880.000000   3787075   3794599   3801716   3808381   3814502  
  4870.000000   3820073   3825039   3829429   3833209   3836425  
  4860.000000   3839049   3841129   3842639   3843633   3844096  
  4850.000000   3844095   3843637   3842808   3841637   3840219  
  4840.000000   3838588   3836830   3834966   3833054   3831104  
  4830.000000   3829154   3827210   3825298   3823427   3821610  
  4820.000000   3819854   3818162   3816541   3814993   3813539  
  4810.000000   3812191   3810980   3809919   3809034   3808324  
  4800.000000   3807800   3807446   3807267   3807247   3807391  
  4790.000000   3807683   3808126   3808695   3809380   3810151  
  4780.000000   3811000   3811906   3812875   3813899   3814990  
  4770.000000   3816136   3817337   3818570   3819826   3821082  
  4760.000000   3822335   3823577   3824810   3826034   3827249  
  4750.000000   3828447   3829624   3830773   3831895   3832994  
  4740.000000   3834082   3835172   3836279   3837409   3838566  
  4730.000000   3839744   3840937   3842131   3843320   3844488  
  4720.000000   3845634   3846750   3847849   3848935   3850037  
  4710.000000   3851176   3852398   3853730   3855222   3856898  
  4700.000000   3858797   3860929   3863311   3865937   3868807  
  4690.000000   3871900   3875208   3878700   3882367   3886169  
  4680.000000   3890086   3894065   3898073   3902049   3905964  
  4670.000000   3909774   3913482   3917085   3920628   3924147  
  4660.000000   3927702   3931334   3935095   3939009   3943102  
  4650.000000   3947385   3951864   3956535   3961389   3966408  
  4640.000000   3971564   3976830   3982165   3987539   3992909  
  4630.000000   3998240   4003478   4008583   4013492   4018163  
  4620.000000   4022533   4026578   4030252   4033554   4036462  
  4610.000000   4038999   4041161   4042997   4044519   4045795  
  4600.000000   4046843   4047729   4048456   4049070   4049544  
  4590.000000   4049899   4050089   4050118   4049939   4049553  
  4580.000000   4048919   4048043   4046900   4045509   4043868  
  4570.000000   4042016   4039967   4037769   4035433   4032994  
  4560.000000   4030451   4027824   4025109   4022328   4019486  
  4550.000000   4016611   4013710   4010801   4007878   4004942  
  4540.000000   4001978   3998983   3995950   3992885   3989798  
  4530.000000   3986699   3983602   3980511   3977442   3974395  
  4520.000000   3971394   3968441   3965567   3962770   3960084  
  4510.000000   3957500   3955070   3952795   3950759   3948986  
  4500.000000   3947581   3946562   3946024   3945953   3946422  
  4490.000000   3947400   3948970   3951118   3953951   3957466  
  4480.000000   3961768   3966824   3972703   3979333   3986757  
  4470.000000   3994888   4003763   4013297   4023518   4034331  
  4460.000000   4045748   4057667   4070093   4082941   4096229  
  4450.000000   4109893   4123948   4138336   4153046   4168012  
  4440.000000   4183198   4198544   4214006   4229539   4245092  
  4430.000000   4260626   4276069   4291377   4306459   4321277  
  4420.000000   4335739   4349825   4363455   4376623   4389249  
  4410.000000   4401323   4412753   4423523   4433543   4442817  
  4400.000000   4451291   4459023   4466022   4472404   4478235  
  4390.000000   4483667   4488792   4493762   4498655   4503585  
  4380.000000   4508582   4513701   4518925   4524270   4529708  
  4370.000000   4535251   4540894   4546659   4552554   4558594  
  4360.000000   4564768   4571073   4577464   4583929   4590387  
  4350.000000   4596830   4603151   4609359   4615361   4621216  
  4340.000000   4626873   4632404   4637714   4642714   4647069  
  4330.000000   4650375   4652041   4651528   4648370   4642410  
  4320.000000   4633803   4623098   4611085   4598710   4586830  
  4310.000000   4576139   4567018   4559600   4553770   4549311  
  4300.000000   4545966   4543517   4541823   4540775   4540340  
  4290.000000   4540442   4541075   4542156   4543689   4545612  
  4280.000000   4547936   4550612   4553619   4556895   4560377  
  4270.000000   4564005   4567702   4571394   4574943   4578168  
  4260.000000   4580788   4582487   4582923   4581847   4579124  
  4250.000000   4574839   4569238   4562748   4555827   4548958  
  4240.000000   4542484   4536660   4531544   4527121   4523256  
  4230.000000   4519813   4516631   4513582   4510565   4507506  
  4220.000000   4504389   4501206   4498038   4494948   4492085  
  4210.000000   4489541   4487452   4485860   4484817   4484279  
  4200.000000   4484219   4484542   4485200   4486104   4487229  
  4190.000000   4488515   4489972   4491561   4493309   4495185  
  4180.000000   4497216   4499362   4501646   4504026   4506534  
  4170.000000   4509152   4511944   4514927   4518191   4521766  
  4160.000000   4525733   4530096   4534903   4540124   4545784  
  4150.000000   4551834   4558291   4565103   4572292   4579811  
  4140.000000   4587702   4595936   4604578   4613615   4623112  
  4130.000000   4633041   4643437   4654240   4665466   4677057  
  4120.000000   4689050   4701431   4714278   4727608   4741497  
  4110.000000   4755938   4770952   4786469   4802445   4818767  
  4100.000000   4835364   4852129   4869008   4885944   4902925  
  4090.000000   4919948   4937023   4954169   4971384   4988677  
  4080.000000   5006016   5023398   5040762   5058088   5075275  
  4070.000000   5092275   5108943   5125214   5140942   5156102  
  4060.000000   5170604   5184486   5197702   5210317   5222280  
  4050.000000   5233652   5244379   5254542   5264102   5273158  
  4040.000000   5281661   5289677   5297111   5303995   5310225  
  4030.000000   5315854   5320825   5325226   5329032   5332318  
  4020.000000   5335024   5337210   5338858   5340035   5340708  
  4010.000000   5340985   5340923   5340528   5339611   5338199  
  4000.000000   5336535  
##END= 
