##TITLE= Sample 011 By ssteindl date Donnerstag, November 22 2018
##JCAMP-DX= 4.24
##DATA TYPE= INFRARED SPECTRUM
##ORIGIN= Exported PE Spectrum Data File
##OWNER= Sandra Steindl
##DATE= 18/11/22
##TIME= 13:20:24.00
##SPECTROMETER/DATA SYSTEM= PERKIN-ELMER Frontier FT-IR/NIR IR
##INSTRUMENT PARAMETERS=
  APODIZATION=stark
  DETECTOR=INGAAS
##RESOLUTION= 16.000000
##DELTAX= -2.000000
##XUNITS= 1/CM
##YUNITS= A
##XFACTOR= 1.00
##YFACTOR= 0.00000011920928955078
##FIRSTX= 10000.00
##LASTX= 4000.00
##NPOINTS= 3001
##FIRSTY= 0.238344
##MAXY= 0.646271
##MINY= 0.201262
##XYDATA= (X++(Y..Y))
 10000.000000   1999370   2006663   2013007   2016674   2016506  
  9990.000000   2012243   2004306   1993680   1981838   1970540  
  9980.000000   1961284   1955217   1952843   1954234   1958838  
  9970.000000   1965868   1974213   1982768   1990424   1996319  
  9960.000000   1999927   2001099   2000127   1997467   1993740  
  9950.000000   1989342   1984568   1979440   1974000   1968371  
  9940.000000   1962907   1958194   1954787   1953149   1953288  
  9930.000000   1954947   1957546   1960621   1963864   1967305  
  9920.000000   1971111   1975344   1979805   1983833   1986623  
  9910.000000   1987295   1985387   1980842   1974126   1965969  
  9900.000000   1957197   1948594   1940852   1934718   1930944  
  9890.000000   1930330   1933313   1939812   1948817   1958643  
  9880.000000   1967184   1972661   1974169   1971990   1967496  
  9870.000000   1962501   1958621   1956537   1955886   1955420  
  9860.000000   1953683   1949637   1943144   1935005   1926610  
  9850.000000   1919403   1914348   1911708   1911073   1911655  
  9840.000000   1912628   1913365   1913584   1913300   1912776  
  9830.000000   1912432   1912758   1914246   1917226   1921737  
  9820.000000   1927416   1933503   1939019   1943029   1944904  
  9810.000000   1944518   1942222   1938694   1934677   1930698  
  9800.000000   1926975   1923390   1919695   1915671   1911233  
  9790.000000   1906471   1901513   1896555   1891809   1887650  
  9780.000000   1884616   1883352   1884360   1887716   1892883  
  9770.000000   1898708   1903750   1906706   1906944   1904721  
  9760.000000   1901142   1897718   1895779   1895972   1898062  
  9750.000000   1901120   1903969   1905686   1905909   1904826  
  9740.000000   1902932   1900637   1898079   1895058   1891308  
  9730.000000   1886707   1881508   1876290   1871761   1868530  
  9720.000000   1866874   1866844   1868289   1871165   1875459  
  9710.000000   1881199   1888135   1895585   1902430   1907297  
  9700.000000   1909097   1907309   1902382   1895444   1888029  
  9690.000000   1881387   1876138   1872148   1868800   1865519  
  9680.000000   1862154   1859228   1857661   1858416   1861892  
  9670.000000   1867746   1874817   1881576   1886598   1889051  
  9660.000000   1888992   1887182   1884852   1883103   1882626  
  9650.000000   1883415   1884887   1886104   1886157   1884495  
  9640.000000   1881077   1876453   1871493   1867289   1864693  
  9630.000000   1864254   1865925   1869186   1873138   1876775  
  9620.000000   1879244   1879990   1878841   1875910   1871515  
  9610.000000   1866030   1859879   1853476   1847301   1841857  
  9600.000000   1837633   1834999   1834044   1834560   1836028  
  9590.000000   1837838   1839464   1840652   1841458   1842101  
  9580.000000   1842800   1843550   1844133   1844174   1843396  
  9570.000000   1841774   1839640   1837588   1836266   1836118  
  9560.000000   1837195   1839120   1841234   1842800   1843279  
  9550.000000   1842411   1840272   1837148   1833428   1829533  
  9540.000000   1825859   1822833   1820874   1820375   1821588  
  9530.000000   1824512   1828825   1833886   1838831   1842766  
  9520.000000   1844933   1844912   1842703   1838767   1833952  
  9510.000000   1829303   1825843   1824307   1824950   1827442  
  9500.000000   1830912   1834159   1835980   1835537   1832624  
  9490.000000   1827750   1821967   1816522   1812454   1810301  
  9480.000000   1810032   1811163   1813048   1815137   1817126  
  9470.000000   1818981   1820760   1822495   1824033   1825114  
  9460.000000   1825504   1825146   1824289   1823340   1822749  
  9450.000000   1822706   1823073   1823385   1823036   1821571  
  9440.000000   1818843   1815189   1811269   1807922   1805824  
  9430.000000   1805333   1806369   1808513   1811120   1813492  
  9420.000000   1814991   1815136   1813671   1810624   1806328  
  9410.000000   1801381   1796539   1792527   1789855   1788664  
  9400.000000   1788695   1789362   1789941   1789814   1788642  
  9390.000000   1786462   1783620   1780595   1777846   1775643  
  9380.000000   1774101   1773152   1772675   1772509   1772502  
  9370.000000   1772544   1772541   1772490   1772430   1772507  
  9360.000000   1772911   1773838   1775406   1777493   1779760  
  9350.000000   1781585   1782331   1781441   1778726   1774378  
  9340.000000   1768979   1763356   1758364   1754766   1753007  
  9330.000000   1753293   1755476   1759238   1764068   1769395  
  9320.000000   1774623   1779182   1782571   1784355   1784236  
  9310.000000   1782056   1777918   1772148   1765372   1758388  
  9300.000000   1752140   1747486   1745013   1744848   1746563  
  9290.000000   1749334   1752106   1753972   1754344   1753219  
  9280.000000   1751125   1749013   1747903   1748515   1751054  
  9270.000000   1755125   1759937   1764452   1767687   1768892  
  9260.000000   1767760   1764443   1759490   1753691   1747909  
  9250.000000   1742940   1739350   1737406   1736989   1737717  
  9240.000000   1739016   1740372   1741401   1741999   1742266  
  9230.000000   1742422   1742640   1742889   1742950   1742433  
  9220.000000   1741034   1738617   1735382   1731799   1728491  
  9210.000000   1726032   1724740   1724643   1725483   1726865  
  9200.000000   1728377   1729711   1730708   1731317   1731530  
  9190.000000   1731322   1730670   1729577   1728161   1726619  
  9180.000000   1725252   1724328   1724043   1724383   1725140  
  9170.000000   1725959   1726487   1726507   1726002   1725183  
  9160.000000   1724380   1723986   1724279   1725387   1727226  
  9150.000000   1729582   1732182   1734743   1737005   1738737  
  9140.000000   1739725   1739768   1738672   1736333   1732836  
  9130.000000   1728518   1723982   1719946   1717077   1715776  
  9120.000000   1716003   1717273   1718719   1719457   1718857  
  9110.000000   1716831   1713868   1710889   1708947   1708793  
  9100.000000   1710589   1713800   1717394   1720172   1721209  
  9090.000000   1720149   1717354   1713745   1710479   1708538  
  9080.000000   1708411   1709956   1712492   1715053   1716737  
  9070.000000   1716962   1715642   1713154   1710195   1707547  
  9060.000000   1705822   1705321   1705972   1707406   1709105  
  9050.000000   1710576   1711493   1711794   1711646   1711379  
  9040.000000   1711302   1711607   1712269   1713057   1713628  
  9030.000000   1713630   1712868   1711331   1709216   1706832  
  9020.000000   1704504   1702473   1700838   1699579   1698594  
  9010.000000   1697796   1697129   1696625   1696350   1696400  
  9000.000000   1696821   1697618   1698733   1700039   1701369  
  8990.000000   1702498   1703227   1703350   1702751   1701382  
  8980.000000   1699339   1696829   1694155   1691668   1689701  
  8970.000000   1688529   1688304   1689058   1690679   1692937  
  8960.000000   1695490   1697933   1699866   1700961   1701050  
  8950.000000   1700167   1698573   1696676   1694947   1693784  
  8940.000000   1693434   1693920   1695054   1696505   1697898  
  8930.000000   1698914   1699334   1699081   1698219   1696925  
  8920.000000   1695453   1694073   1693028   1692473   1692441  
  8910.000000   1692832   1693457   1694102   1694606   1694922  
  8900.000000   1695115   1695317   1695647   1696134   1696694  
  8890.000000   1697145   1697314   1697108   1696589   1695958  
  8880.000000   1695489   1695421   1695871   1696802   1698052  
  8870.000000   1699408   1700664   1701683   1702383   1702740  
  8860.000000   1702751   1702453   1701936   1701360   1700949  
  8850.000000   1700920   1701399   1702320   1703400   1704199  
  8840.000000   1704279   1703376   1701534   1699123   1696722  
  8830.000000   1694935   1694165   1694508   1695740   1697449  
  8820.000000   1699217   1700759   1702005   1703016   1703921  
  8810.000000   1704746   1705425   1705768   1705630   1704961  
  8800.000000   1703917   1702814   1702057   1702030   1702978  
  8790.000000   1705002   1708011   1711822   1716148   1720670  
  8780.000000   1725035   1728862   1731808   1733598   1734130  
  8770.000000   1733470   1731863   1729660   1727250   1724982  
  8760.000000   1723124   1721861   1721307   1721526   1722496  
  8750.000000   1724092   1726028   1727916   1729326   1729944  
  8740.000000   1729692   1728802   1727770   1727204   1727623  
  8730.000000   1729277   1732070   1735593   1739271   1742540  
  8720.000000   1745012   1746531   1747159   1747064   1746452  
  8710.000000   1745489   1744324   1743091   1741951   1741075  
  8700.000000   1740616   1740662   1741201   1742144   1743351  
  8690.000000   1744714   1746169   1747702   1749316   1750955  
  8680.000000   1752523   1753864   1754879   1755543   1755976  
  8670.000000   1756398   1757059   1758160   1759758   1761798  
  8660.000000   1764130   1766617   1769165   1771753   1774372  
  8650.000000   1776956   1779327   1781202   1782288   1782373  
  8640.000000   1781458   1779763   1777713   1775797   1774445  
  8630.000000   1773905   1774201   1775183   1776605   1778241  
  8620.000000   1779919   1781564   1783172   1784784   1786459  
  8610.000000   1788252   1790221   1792386   1794740   1797190  
  8600.000000   1799596   1801766   1803545   1804864   1805791  
  8590.000000   1806529   1807329   1808415   1809860   1811579  
  8580.000000   1813329   1814841   1815910   1816504   1816754  
  8570.000000   1816900   1817158   1817635   1818258   1818828  
  8560.000000   1819098   1818903   1818243   1817299   1816375  
  8550.000000   1815777   1815715   1816219   1817151   1818260  
  8540.000000   1819292   1820061   1820524   1820762   1820966  
  8530.000000   1821347   1822080   1823260   1824893   1826913  
  8520.000000   1829198   1831624   1834087   1836515   1838864  
  8510.000000   1841098   1843182   1845053   1846628   1847799  
  8500.000000   1848490   1848660   1848358   1847711   1846927  
  8490.000000   1846244   1845878   1845976   1846576   1847618  
  8480.000000   1848941   1850372   1851746   1852995   1854134  
  8470.000000   1855288   1856624   1858297   1860381   1862821  
  8460.000000   1865440   1867936   1869991   1871325   1871816  
  8450.000000   1871497   1870566   1869331   1868132   1867273  
  8440.000000   1866941   1867222   1868102   1869518   1871352  
  8430.000000   1873478   1875734   1877944   1879897   1881406  
  8420.000000   1882352   1882731   1882667   1882383   1882147  
  8410.000000   1882180   1882602   1883391   1884411   1885475  
  8400.000000   1886413   1887121   1887558   1887745   1887717  
  8390.000000   1887513   1887156   1886693   1886210   1885843  
  8380.000000   1885738   1886000   1886638   1887545   1888511  
  8370.000000   1889302   1889740   1889780   1889517   1889146  
  8360.000000   1888869   1888816   1888987   1889269   1889500  
  8350.000000   1889549   1889391   1889108   1888845   1888726  
  8340.000000   1888776   1888910   1888953   1888737   1888173  
  8330.000000   1887332   1886417   1885714   1885456   1885751  
  8320.000000   1886509   1887496   1888382   1888874   1888797  
  8310.000000   1888135   1887018   1885642   1884192   1882775  
  8300.000000   1881400   1880003   1878503   1876872   1875171  
  8290.000000   1873551   1872198   1871281   1870878   1870944  
  8280.000000   1871304   1871703   1871885   1871667   1870996  
  8270.000000   1869948   1868711   1867518   1866579   1866018  
  8260.000000   1865846   1865971   1866234   1866468   1866528  
  8250.000000   1866320   1865803   1864983   1863899   1862602  
  8240.000000   1861159   1859631   1858086   1856580   1855148  
  8230.000000   1853807   1852551   1851394   1850360   1849517  
  8220.000000   1848941   1848701   1848806   1849186   1849671  
  8210.000000   1850021   1849984   1849369   1848111   1846282  
  8200.000000   1844082   1841769   1839601   1837757   1836314  
  8190.000000   1835241   1834427   1833733   1833022   1832212  
  8180.000000   1831265   1830211   1829117   1828085   1827212  
  8170.000000   1826577   1826203   1826037   1825956   1825787  
  8160.000000   1825354   1824532   1823275   1821643   1819760  
  8150.000000   1817796   1815899   1814176   1812675   1811400  
  8140.000000   1810331   1809434   1808655   1807904   1807052  
  8130.000000   1805938   1804419   1802417   1799988   1797322  
  8120.000000   1794732   1792554   1791059   1790357   1790362  
  8110.000000   1790829   1791431   1791879   1791995   1791752  
  8100.000000   1791242   1790608   1789979   1789397   1788838  
  8090.000000   1788207   1787415   1786390   1785111   1783600  
  8080.000000   1781899   1780081   1778233   1776492   1775016  
  8070.000000   1773977   1773488   1773564   1774067   1774724  
  8060.000000   1775187   1775124   1774344   1772846   1770842  
  8050.000000   1768669   1766690   1765168   1764202   1763723  
  8040.000000   1763554   1763495   1763398   1763202   1762911  
  8030.000000   1762553   1762128   1761582   1760838   1759827  
  8020.000000   1758556   1757107   1755637   1754311   1753253  
  8010.000000   1752504   1752020   1751720   1751528   1751427  
  8000.000000   1751447   1751641   1752023   1752531   1753018  
  7990.000000   1753284   1753153   1752531   1751458   1750085  
  7980.000000   1748632   1747296   1746192   1745327   1744617  
  7970.000000   1743949   1743236   1742459   1741665   1740934  
  7960.000000   1740328   1739865   1739504   1739180   1738838  
  7950.000000   1738460   1738083   1737763   1737554   1737455  
  7940.000000   1737421   1737354   1737168   1736803   1736270  
  7930.000000   1735629   1734975   1734401   1733970   1733722  
  7920.000000   1733668   1733828   1734223   1734874   1735772  
  7910.000000   1736855   1737996   1739012   1739719   1739959  
  7900.000000   1739669   1738873   1737695   1736305   1734896  
  7890.000000   1733636   1732658   1732058   1731887   1732171  
  7880.000000   1732875   1733932   1735208   1736551   1737793  
  7870.000000   1738813   1739549   1740010   1740258   1740359  
  7860.000000   1740364   1740261   1740011   1739555   1738867  
  7850.000000   1737980   1736984   1736019   1735215   1734674  
  7840.000000   1734424   1734442   1734652   1734967   1735299  
  7830.000000   1735585   1735771   1735824   1735722   1735462  
  7820.000000   1735068   1734587   1734084   1733621   1733238  
  7810.000000   1732931   1732659   1732355   1731943   1731373  
  7800.000000   1730627   1729726   1728717   1727667   1726642  
  7790.000000   1725714   1724940   1724368   1724014   1723852  
  7780.000000   1723808   1723768   1723601   1723197   1722505  
  7770.000000   1721546   1720416   1719248   1718176   1717299  
  7760.000000   1716655   1716234   1715991   1715872   1715831  
  7750.000000   1715832   1715835   1715797   1715663   1715388  
  7740.000000   1714956   1714386   1713742   1713098   1712514  
  7730.000000   1712004   1711526   1710997   1710337   1709507  
  7720.000000   1708533   1707513   1706573   1705831   1705346  
  7710.000000   1705104   1705017   1704965   1704837   1704557  
  7700.000000   1704113   1703534   1702891   1702250   1701670  
  7690.000000   1701176   1700768   1700414   1700074   1699704  
  7680.000000   1699278   1698804   1698325   1697919   1697671  
  7670.000000   1697648   1697864   1698260   1698719   1699080  
  7660.000000   1699198   1698974   1698402   1697557   1696579  
  7650.000000   1695622   1694818   1694245   1693926   1693839  
  7640.000000   1693941   1694182   1694516   1694896   1695266  
  7630.000000   1695566   1695739   1695751   1695603   1695341  
  7620.000000   1695049   1694824   1694756   1694894   1695245  
  7610.000000   1695768   1696386   1697007   1697543   1697923  
  7600.000000   1698106   1698082   1697880   1697554   1697185  
  7590.000000   1696862   1696664   1696640   1696804   1697122  
  7580.000000   1697530   1697950   1698312   1698569   1698703  
  7570.000000   1698735   1698717   1698720   1698829   1699111  
  7560.000000   1699619   1700357   1701289   1702325   1703348  
  7550.000000   1704225   1704864   1705224   1705349   1705346  
  7540.000000   1705365   1705549   1706005   1706767   1707801  
  7530.000000   1709008   1710269   1711462   1712512   1713380  
  7520.000000   1714073   1714622   1715071   1715465   1715852  
  7510.000000   1716281   1716813   1717514   1718457   1719691  
  7500.000000   1721232   1723030   1724982   1726930   1728718  
  7490.000000   1730209   1731347   1732153   1732754   1733326  
  7480.000000   1734070   1735142   1736629   1738524   1740747  
  7470.000000   1743165   1745632   1748010   1750205   1752155  
  7460.000000   1753844   1755279   1756513   1757618   1758705  
  7450.000000   1759877   1761239   1762846   1764717   1766813  
  7440.000000   1769060   1771379   1773707   1776021   1778323  
  7430.000000   1780637   1782982   1785357   1787744   1790109  
  7420.000000   1792427   1794679   1796864   1798983   1801032  
  7410.000000   1802993   1804846   1806574   1808192   1809739  
  7400.000000   1811281   1812881   1814582   1816386   1818262  
  7390.000000   1820168   1822078   1824000   1825980   1828079  
  7380.000000   1830344   1832776   1835322   1837888   1840375  
  7370.000000   1842718   1844905   1846987   1849046   1851174  
  7360.000000   1853427   1855815   1858290   1860768   1863147  
  7350.000000   1865329   1867240   1868848   1870173   1871285  
  7340.000000   1872288   1873305   1874446   1875783   1877331  
  7330.000000   1879054   1880882   1882749   1884609   1886465  
  7320.000000   1888352   1890316   1892379   1894512   1896640  
  7310.000000   1898658   1900481   1902067   1903446   1904699  
  7300.000000   1905922   1907197   1908556   1909988   1911451  
  7290.000000   1912907   1914338   1915755   1917171   1918594  
  7280.000000   1919994   1921318   1922500   1923493   1924293  
  7270.000000   1924948   1925542   1926169   1926903   1927781  
  7260.000000   1928796   1929909   1931072   1932238   1933380  
  7250.000000   1934479   1935539   1936570   1937604   1938679  
  7240.000000   1939855   1941184   1942715   1944454   1946394  
  7230.000000   1948483   1950677   1952923   1955209   1957524  
  7220.000000   1959892   1962310   1964786   1967296   1969835  
  7210.000000   1972389   1974984   1977652   1980445   1983396  
  7200.000000   1986525   1989816   1993247   1996779   2000394  
  7190.000000   2004071   2007812   2011597   2015412   2019211  
  7180.000000   2022959   2026610   2030154   2033586   2036943  
  7170.000000   2040258   2043594   2047003   2050558   2054309  
  7160.000000   2058302   2062539   2066996   2071601   2076281  
  7150.000000   2080950   2085578   2090159   2094758   2099435  
  7140.000000   2104263   2109244   2114353   2119508   2124656  
  7130.000000   2129760   2134873   2140075   2145492   2151202  
  7120.000000   2157252   2163595   2170155   2176818   2183512  
  7110.000000   2190183   2196836   2203473   2210116   2216753  
  7100.000000   2223390   2230019   2236678   2243408   2250268  
  7090.000000   2257280   2264437   2271679   2278935   2286140  
  7080.000000   2293279   2300380   2307517   2314752   2322123  
  7070.000000   2329596   2337105   2344552   2351877   2359061  
  7060.000000   2366152   2373225   2380364   2387619   2394997  
  7050.000000   2402468   2409977   2417477   2424933   2432332  
  7040.000000   2439668   2446942   2454145   2461274   2468326  
  7030.000000   2475309   2482226   2489082   2495860   2502534  
  7020.000000   2509066   2515438   2521638   2527697   2533646  
  7010.000000   2539531   2545372   2551181   2556945   2562659  
  7000.000000   2568312   2573917   2579469   2584967   2590377  
  6990.000000   2595669   2600802   2605777   2610618   2615396  
  6980.000000   2620169   2624993   2629855   2634711   2639476  
  6970.000000   2644085   2648493   2652716   2656783   2660747  
  6960.000000   2664614   2668377   2671984   2675414   2678656  
  6950.000000   2681767   2684814   2687878   2690984   2694114  
  6940.000000   2697176   2700071   2702703   2705044   2707108  
  6930.000000   2708976   2710732   2712471   2714247   2716104  
  6920.000000   2718054   2720112   2722267   2724503   2726769  
  6910.000000   2729000   2731110   2733033   2734728   2736203  
  6900.000000   2737496   2738671   2739782   2740870   2741955  
  6890.000000   2743048   2744159   2745311   2746520   2747798  
  6880.000000   2749127   2750477   2751798   2753061   2754259  
  6870.000000   2755421   2756587   2757795   2759046   2760310  
  6860.000000   2761525   2762640   2763626   2764499   2765304  
  6850.000000   2766097   2766905   2767729   2768529   2769266  
  6840.000000   2769913   2770486   2771027   2771596   2772229  
  6830.000000   2772933   2773673   2774401   2775071   2775667  
  6820.000000   2776195   2776676   2777124   2777532   2777870  
  6810.000000   2778111   2778244   2778300   2778337   2778433  
  6800.000000   2778642   2778986   2779432   2779918   2780367  
  6790.000000   2780722   2780955   2781066   2781071   2780991  
  6780.000000   2780836   2780616   2780344   2780048   2779766  
  6770.000000   2779539   2779393   2779333   2779335   2779364  
  6760.000000   2779383   2779372   2779326   2779259   2779180  
  6750.000000   2779095   2778996   2778869   2778703   2778497  
  6740.000000   2778262   2778015   2777769   2777534   2777312  
  6730.000000   2777113   2776951   2776855   2776849   2776953  
  6720.000000   2777153   2777412   2777665   2777848   2777906  
  6710.000000   2777813   2777566   2777180   2776672   2776061  
  6700.000000   2775359   2774588   2773781   2772991   2772263  
  6690.000000   2771638   2771110   2770648   2770177   2769630  
  6680.000000   2768948   2768120   2767168   2766148   2765117  
  6670.000000   2764120   2763171   2762262   2761367   2760466  
  6660.000000   2759537   2758578   2757583   2756556   2755490  
  6650.000000   2754391   2753260   2752113   2750958   2749804  
  6640.000000   2748643   2747456   2746216   2744903   2743509  
  6630.000000   2742046   2740535   2739007   2737480   2735968  
  6620.000000   2734471   2732995   2731550   2730154   2728821  
  6610.000000   2727556   2726336   2725118   2723843   2722460  
  6600.000000   2720942   2719294   2717552   2715767   2713986  
  6590.000000   2712238   2710527   2708842   2707161   2705466  
  6580.000000   2703749   2702011   2700260   2698511   2696779  
  6570.000000   2695082   2693436   2691856   2690343   2688887  
  6560.000000   2687466   2686049   2684618   2683166   2681710  
  6550.000000   2680274   2678882   2677539   2676230   2674923  
  6540.000000   2673589   2672217   2670830   2669474   2668200  
  6530.000000   2667037   2665979   2664975   2663952   2662840  
  6520.000000   2661607   2660260   2658853   2657456   2656135  
  6510.000000   2654925   2653828   2652816   2651853   2650901  
  6500.000000   2649939   2648954   2647941   2646894   2645808  
  6490.000000   2644683   2643525   2642356   2641202   2640088  
  6480.000000   2639026   2638013   2637028   2636045   2635037  
  6470.000000   2633988   2632896   2631765   2630608   2629437  
  6460.000000   2628268   2627117   2625999   2624927   2623910  
  6450.000000   2622944   2622022   2621131   2620265   2619428  
  6440.000000   2618639   2617913   2617261   2616668   2616104  
  6430.000000   2615526   2614901   2614217   2613498   2612784  
  6420.000000   2612125   2611548   2611051   2610594   2610128  
  6410.000000   2609606   2609018   2608385   2607760   2607202  
  6400.000000   2606762   2606458   2606281   2606199   2606171  
  6390.000000   2606155   2606115   2606021   2605851   2605592  
  6380.000000   2605251   2604850   2604432   2604048   2603739  
  6370.000000   2603521   2603372   2603244   2603077   2602829  
  6360.000000   2602481   2602057   2601598   2601147   2600730  
  6350.000000   2600342   2599955   2599536   2599058   2598514  
  6340.000000   2597915   2597284   2596637   2595986   2595326  
  6330.000000   2594661   2593986   2593314   2592648   2591993  
  6320.000000   2591334   2590648   2589907   2589096   2588215  
  6310.000000   2587290   2586345   2585405   2584463   2583494  
  6300.000000   2582453   2581305   2580030   2578651   2577207  
  6290.000000   2575758   2574347   2573000   2571713   2570463  
  6280.000000   2569214   2567935   2566597   2565187   2563693  
  6270.000000   2562122   2560484   2558808   2557129   2555484  
  6260.000000   2553896   2552362   2550850   2549308   2547677  
  6250.000000   2545922   2544039   2542066   2540062   2538093  
  6240.000000   2536206   2534421   2532728   2531097   2529493  
  6230.000000   2527887   2526254   2524578   2522847   2521053  
  6220.000000   2519200   2517308   2515414   2513567   2511806  
  6210.000000   2510152   2508592   2507082   2505567   2503995  
  6200.000000   2502345   2500628   2498881   2497151   2495473  
  6190.000000   2493861   2492308   2490795   2489307   2487840  
  6180.000000   2486398   2484989   2483612   2482255   2480895  
  6170.000000   2479508   2478085   2476630   2475166   2473713  
  6160.000000   2472291   2470899   2469527   2468156   2466777  
  6150.000000   2465390   2464010   2462657   2461350   2460095  
  6140.000000   2458889   2457720   2456579   2455458   2454357  
  6130.000000   2453270   2452192   2451108   2450003   2448864  
  6120.000000   2447695   2446508   2445333   2444195   2443122  
  6110.000000   2442123   2441204   2440354   2439572   2438848  
  6100.000000   2438183   2437570   2437010   2436494   2436027  
  6090.000000   2435611   2435265   2435002   2434842   2434782  
  6080.000000   2434812   2434895   2435004   2435100   2435177  
  6070.000000   2435232   2435287   2435359   2435474   2435639  
  6060.000000   2435868   2436164   2436545   2437018   2437602  
  6050.000000   2438291   2439081   2439943   2440858   2441805  
  6040.000000   2442792   2443830   2444955   2446188   2447553  
  6030.000000   2449039   2450634   2452305   2454032   2455787  
  6020.000000   2457564   2459346   2461126   2462885   2464616  
  6010.000000   2466312   2467986   2469658   2471365   2473133  
  6000.000000   2474987   2476927   2478950   2481033   2483165  
  5990.000000   2485327   2487521   2489740   2491994   2494284  
  5980.000000   2496624   2499020   2501496   2504062   2506741  
  5970.000000   2509530   2512428   2515409   2518458   2521548  
  5960.000000   2524677   2527834   2531029   2534255   2537514  
  5950.000000   2540794   2544098   2547427   2550808   2554269  
  5940.000000   2557844   2561550   2565385   2569323   2573321  
  5930.000000   2577338   2581333   2585286   2589182   2593012  
  5920.000000   2596763   2600414   2603937   2607309   2610514  
  5910.000000   2613552   2616429   2619161   2621761   2624250  
  5900.000000   2626646   2628992   2631333   2633736   2636250  
  5890.000000   2638916   2641732   2644674   2647682   2650698  
  5880.000000   2653662   2656536   2659294   2661918   2664391  
  5870.000000   2666694   2668813   2670748   2672524   2674191  
  5860.000000   2675817   2677471   2679200   2681032   2682962  
  5850.000000   2684978   2687063   2689212   2691429   2693723  
  5840.000000   2696096   2698533   2701010   2703494   2705961  
  5830.000000   2708395   2710802   2713192   2715582   2717978  
  5820.000000   2720382   2722790   2725196   2727601   2730004  
  5810.000000   2732409   2734805   2737184   2739522   2741818  
  5800.000000   2744057   2746268   2748452   2750638   2752807  
  5790.000000   2754952   2757010   2758937   2760646   2762075  
  5780.000000   2763129   2763740   2763817   2763319   2762220  
  5770.000000   2760578   2758490   2756130   2753668   2751280  
  5760.000000   2749068   2747093   2745329   2743739   2742259  
  5750.000000   2740858   2739518   2738250   2737062   2735956  
  5740.000000   2734923   2733942   2732999   2732085   2731208  
  5730.000000   2730372   2729584   2728832   2728105   2727379  
  5720.000000   2726651   2725926   2725230   2724586   2724017  
  5710.000000   2723526   2723106   2722737   2722404   2722098  
  5700.000000   2721819   2721567   2721340   2721125   2720906  
  5690.000000   2720670   2720411   2720145   2719882   2719644  
  5680.000000   2719423   2719208   2718958   2718636   2718198  
  5670.000000   2717620   2716872   2715936   2714786   2713401  
  5660.000000   2711764   2709890   2707816   2705618   2703381  
  5650.000000   2701191   2699101   2697134   2695278   2693509  
  5640.000000   2691798   2690138   2688528   2686977   2685485  
  5630.000000   2684037   2682612   2681182   2679742   2678298  
  5620.000000   2676879   2675512   2674224   2673015   2671875  
  5610.000000   2670780   2669718   2668686   2667697   2666767  
  5600.000000   2665905   2665099   2664325   2663548   2662738  
  5590.000000   2661880   2660975   2660035   2659078   2658111  
  5580.000000   2657139   2656160   2655174   2654189   2653213  
  5570.000000   2652252   2651298   2650336   2649342   2648296  
  5560.000000   2647191   2646038   2644860   2643682   2642523  
  5550.000000   2641389   2640275   2639178   2638098   2637049  
  5540.000000   2636047   2635103   2634209   2633342   2632465  
  5530.000000   2631543   2630557   2629514   2628435   2627349  
  5520.000000   2626276   2625218   2624159   2623080   2621963  
  5510.000000   2620812   2619641   2618473   2617324   2616206  
  5500.000000   2615108   2614027   2612954   2611894   2610850  
  5490.000000   2609826   2608803   2607751   2606622   2605380  
  5480.000000   2603997   2602480   2600853   2599161   2597441  
  5470.000000   2595724   2594016   2592318   2590617   2588909  
  5460.000000   2587182   2585432   2583638   2581787   2579859  
  5450.000000   2577856   2575793   2573709   2571645   2569634  
  5440.000000   2567689   2565797   2563938   2562098   2560281  
  5430.000000   2558509   2556812   2555199   2553661   2552155  
  5420.000000   2550644   2549098   2547539   2546021   2544639  
  5410.000000   2543461   2542536   2541835   2541309   2540874  
  5400.000000   2540487   2540124   2539817   2539599   2539519  
  5390.000000   2539578   2539774   2540065   2540442   2540894  
  5380.000000   2541467   2542189   2543115   2544237   2545557  
  5370.000000   2547016   2548595   2550245   2551983   2553797  
  5360.000000   2555732   2557777   2559981   2562335   2564914  
  5350.000000   2567741   2570927   2574506   2578570   2583098  
  5340.000000   2588119   2593556   2599424   2605654   2612295  
  5330.000000   2619298   2626725   2634518   2642731   2651310  
  5320.000000   2660338   2669805   2679846   2690472   2701823  
  5310.000000   2713873   2726711   2740258   2754573   2769576  
  5300.000000   2785344   2801833   2819153   2837282   2856332  
  5290.000000   2876261   2897125   2918815   2941300   2964412  
  5280.000000   2988103   3012255   3036914   3062083   3087894  
  5270.000000   3114379   3141580   3169384   3197632   3226091  
  5260.000000   3254568   3282944   3311194   3339381   3367555  
  5250.000000   3395746   3423841   3451694   3479035   3505704  
  5240.000000   3531519   3556515   3580698   3604248   3627210  
  5230.000000   3649718   3671703   3693165   3713924   3733943  
  5220.000000   3753070   3771363   3788784   3805491   3821503  
  5210.000000   3836974   3851859   3866204   3879856   3892797  
  5200.000000   3904875   3916143   3926555   3936259   3945263  
  5190.000000   3953703   3961531   3968808   3975432   3981447  
  5180.000000   3986778   3991511   3995610   3999166   4002124  
  5170.000000   4004542   4006348   4007603   4008272   4008454  
  5160.000000   4008142   4007422   4006254   4004677   4002625  
  5150.000000   4000134   3997177   3993836   3990125   3986134  
  5140.000000   3981860   3977357   3972599   3967628   3962437  
  5130.000000   3957088   3951595   3946009   3940317   3934529  
  5120.000000   3928607   3922549   3916341   3910016   3903600  
  5110.000000   3897145   3890678   3884234   3877819   3871453  
  5100.000000   3865140   3858902   3852743   3846671   3840670  
  5090.000000   3834716   3828778   3822832   3816864   3810884  
  5080.000000   3804905   3798948   3793021   3787124   3781240  
  5070.000000   3775351   3769438   3763492   3757506   3751484  
  5060.000000   3745419   3739310   3733144   3726917   3720620  
  5050.000000   3714263   3707847   3701386   3694880   3688333  
  5040.000000   3681739   3675100   3668422   3661721   3655016  
  5030.000000   3648327   3641669   3635047   3628462   3621908  
  5020.000000   3615393   3608926   3602535   3596241   3590077  
  5010.000000   3584049   3578171   3572428   3566824   3561339  
  5000.000000   3555993   3550782   3545746   3540887   3536252  
  4990.000000   3531835   3527676   3523763   3520133   3516771  
  4980.000000   3513712   3510938   3508482   3506320   3504486  
  4970.000000   3502952   3501754   3500859   3500297   3500026  
  4960.000000   3500072   3500394   3501037   3501980   3503295  
  4950.000000   3504979   3507103   3509647   3512651   3516055  
  4940.000000   3519872   3524028   3528543   3533362   3538527  
  4930.000000   3544003   3549841   3556010   3562557   3569452  
  4920.000000   3576737   3584383   3592421   3600812   3609565  
  4910.000000   3618628   3627997   3637622   3647500   3657601  
  4900.000000   3667922   3678435   3689121   3699941   3710849  
  4890.000000   3721795   3732719   3743573   3754288   3764824  
  4880.000000   3775110   3785121   3794792   3804112   3813024  
  4870.000000   3821529   3829567   3837142   3844193   3850732  
  4860.000000   3856712   3862171   3867086   3871518   3875466  
  4850.000000   3878999   3882125   3884919   3887395   3889632  
  4840.000000   3891649   3893518   3895254   3896911   3898487  
  4830.000000   3900018   3901495   3902940   3904345   3905723  
  4820.000000   3907069   3908390   3909682   3910957   3912222  
  4810.000000   3913496   3914795   3916134   3917526   3918970  
  4800.000000   3920467   3922009   3923592   3925215   3926878  
  4790.000000   3928582   3930327   3932105   3933908   3935728  
  4780.000000   3937558   3939399   3941253   3943125   3945014  
  4770.000000   3946913   3948802   3950658   3952454   3954173  
  4760.000000   3955798   3957327   3958756   3960092   3961331  
  4750.000000   3962476   3963518   3964462   3965300   3966041  
  4740.000000   3966683   3967240   3967710   3968108   3968438  
  4730.000000   3968720   3968965   3969195   3969420   3969649  
  4720.000000   3969876   3970089   3970272   3970406   3970488  
  4710.000000   3970524   3970542   3970573   3970665   3970856  
  4700.000000   3971184   3971669   3972326   3973156   3974157  
  4690.000000   3975320   3976639   3978100   3979688   3981374  
  4680.000000   3983129   3984899   3986644   3988308   3989864  
  4670.000000   3991284   3992582   3993773   3994913   3996045  
  4660.000000   3997234   3998522   3999957   4001566   4003377  
  4650.000000   4005404   4007660   4010144   4012849   4015747  
  4640.000000   4018800   4021957   4025163   4028366   4031525  
  4630.000000   4034611   4037605   4040500   4043283   4045945  
  4620.000000   4048456   4050792   4052909   4054784   4056383  
  4610.000000   4057710   4058765   4059592   4060221   4060717  
  4600.000000   4061105   4061438   4061713   4061947   4062111  
  4590.000000   4062203   4062185   4062055   4061782   4061369  
  4580.000000   4060786   4060032   4059077   4057920   4056542  
  4570.000000   4054956   4053169   4051218   4049129   4046947  
  4560.000000   4044694   4042406   4040087   4037758   4035414  
  4550.000000   4033066   4030707   4028343   4025967   4023580  
  4540.000000   4021176   4018757   4016331   4013906   4011497  
  4530.000000   4009112   4006763   4004438   4002146   3999864  
  4520.000000   3997612   3995380   3993215   3991127   3989183  
  4510.000000   3987398   3985847   3984539   3983560   3982922  
  4500.000000   3982729   3982996   3983832   3985239   3987309  
  4490.000000   3990016   3993435   3997522   4002348   4007868  
  4480.000000   4014159   4021177   4028994   4037559   4046929  
  4470.000000   4057035   4067907   4079448   4091653   4104398  
  4460.000000   4117655   4131297   4145295   4159549   4174044  
  4450.000000   4188711   4203547   4218504   4233576   4248724  
  4440.000000   4263935   4279184   4294448   4309715   4324948  
  4430.000000   4340140   4355232   4370213   4384997   4399566  
  4420.000000   4413814   4427716   4441158   4454118   4466479  
  4410.000000   4478221   4489228   4499486   4508893   4517463  
  4400.000000   4525134   4531969   4537967   4543242   4547839  
  4390.000000   4551902   4555500   4558780   4561814   4564732  
  4380.000000   4567586   4570464   4573383   4576389   4579478  
  4370.000000   4582678   4586003   4589489   4593171   4597086  
  4360.000000   4601258   4605702   4610401   4615341   4620461  
  4350.000000   4625737   4631086   4636502   4641912   4647341  
  4340.000000   4652738   4658118   4663377   4668402   4672911  
  4330.000000   4676573   4678940   4679613   4678261   4674789  
  4320.000000   4669331   4662315   4654333   4646090   4638207  
  4310.000000   4631186   4625277   4620559   4616916   4614180  
  4300.000000   4612150   4610678   4609663   4609042   4608791  
  4290.000000   4608860   4609228   4609832   4610659   4611668  
  4280.000000   4612868   4614247   4615803   4617524   4619378  
  4270.000000   4621342   4623357   4625371   4627264   4628889  
  4260.000000   4630018   4630408   4629796   4628000   4624926  
  4250.000000   4620650   4615369   4609422   4603169   4596997  
  4240.000000   4591184   4585940   4581318   4577305   4573782  
  4230.000000   4570622   4567669   4564798   4561912   4558942  
  4220.000000   4555873   4552699   4549482   4546263   4543149  
  4210.000000   4540199   4537518   4535148   4533154   4531538  
  4200.000000   4530320   4529464   4528958   4528743   4528794  
  4190.000000   4529043   4529472   4530016   4530677   4531403  
  4180.000000   4532217   4533085   4534052   4535109   4536332  
  4170.000000   4537745   4539456   4541508   4544006   4546973  
  4160.000000   4550474   4554477   4558999   4563972   4569402  
  4150.000000   4575223   4581461   4588070   4595095   4602498  
  4140.000000   4610330   4618549   4627206   4636255   4645743  
  4130.000000   4655621   4665930   4676620   4687740   4699259  
  4120.000000   4711241   4723685   4736671   4750205   4764354  
  4110.000000   4779103   4794477   4810418   4826899   4843822  
  4100.000000   4861125   4878697   4896475   4914373   4932363  
  4090.000000   4950411   4968514   4986669   5004867   5023105  
  4080.000000   5041356   5059620   5077858   5096077   5114219  
  4070.000000   5132270   5150125   5167735   5184963   5201768  
  4060.000000   5218035   5233772   5248900   5263463   5277394  
  4050.000000   5290755   5303484   5315667   5327250   5338320  
  4040.000000   5348795   5358717   5367953   5376519   5384288  
  4030.000000   5391320   5397547   5403069   5407844   5411943  
  4020.000000   5415270   5417875   5419721   5420884   5421316  
  4010.000000   5421164   5420510   5419378   5417534   5415031  
  4000.000000   5412190  
##END= 
