##TITLE= Sample 012 By ssteindl date Donnerstag, November 22 2018
##JCAMP-DX= 4.24
##DATA TYPE= INFRARED SPECTRUM
##ORIGIN= Exported PE Spectrum Data File
##OWNER= Sandra Steindl
##DATE= 18/11/22
##TIME= 13:21:22.00
##SPECTROMETER/DATA SYSTEM= PERKIN-ELMER Frontier FT-IR/NIR IR
##INSTRUMENT PARAMETERS=
  APODIZATION=stark
  DETECTOR=INGAAS
##RESOLUTION= 16.000000
##DELTAX= -2.000000
##XUNITS= 1/CM
##YUNITS= A
##XFACTOR= 1.00
##YFACTOR= 0.00000011920928955078
##FIRSTX= 10000.00
##LASTX= 4000.00
##NPOINTS= 3001
##FIRSTY= 0.216813
##MAXY= 0.634726
##MINY= 0.185857
##XYDATA= (X++(Y..Y))
 10000.000000   1818759   1811221   1805189   1802587   1803661  
  9990.000000   1807353   1812794   1819457   1826535   1832873  
  9980.000000   1837491   1839676   1839091   1835879   1830997  
  9970.000000   1825852   1821900   1820028   1820235   1821586  
  9960.000000   1822584   1821890   1818818   1813776   1807971  
  9950.000000   1803036   1800255   1800108   1802120   1805062  
  9940.000000   1807540   1808379   1807022   1803448   1798067  
  9930.000000   1791470   1784328   1777408   1771609   1767935  
  9920.000000   1767295   1770135   1776173   1784233   1792518  
  9910.000000   1799083   1802469   1802178   1798784   1793717  
  9900.000000   1788677   1785115   1783810   1784831   1787712  
  9890.000000   1791754   1796270   1800653   1804316   1806622  
  9880.000000   1806841   1804363   1798879   1790686   1780749  
  9870.000000   1770554   1761785   1755780   1753238   1753969  
  9860.000000   1757068   1761165   1764811   1766825   1766513  
  9850.000000   1763834   1759356   1754201   1749778   1747483  
  9840.000000   1748343   1752677   1760045   1769226   1778622  
  9830.000000   1786512   1791528   1792841   1790358   1784639  
  9820.000000   1776768   1768098   1760038   1753828   1750392  
  9810.000000   1750226   1753264   1758920   1766054   1773327  
  9800.000000   1779382   1783321   1784811   1784178   1782206  
  9790.000000   1779792   1777716   1776324   1775600   1775201  
  9780.000000   1774680   1773660   1771860   1769220   1765815  
  9770.000000   1761986   1758264   1755356   1753917   1754307  
  9760.000000   1756342   1759209   1761627   1762214   1760018  
  9750.000000   1754929   1747867   1740533   1734865   1732295  
  9740.000000   1733269   1737056   1742138   1746737   1749492  
  9730.000000   1749821   1747975   1744815   1741375   1738562  
  9720.000000   1736943   1736796   1738205   1741140   1745399  
  9710.000000   1750516   1755657   1759761   1761769   1761063  
  9700.000000   1757706   1752502   1746737   1741657   1738051  
  9690.000000   1735904   1734537   1732927   1730219   1726121  
  9680.000000   1720986   1715706   1711280   1708521   1707756  
  9670.000000   1708860   1711371   1714700   1718310   1721715  
  9660.000000   1724540   1726432   1727178   1726717   1725257  
  9650.000000   1723224   1721165   1719561   1718676   1718498  
  9640.000000   1718808   1719357   1719973   1720670   1721493  
  9630.000000   1722436   1723265   1723550   1722825   1720791  
  9620.000000   1717544   1713539   1709491   1706034   1703528  
  9610.000000   1701907   1700820   1699853   1698803   1697817  
  9600.000000   1697321   1697802   1699527   1702388   1705906  
  9590.000000   1709459   1712521   1714880   1716626   1718044  
  9580.000000   1719377   1720715   1721930   1722829   1723238  
  9570.000000   1723136   1722603   1721714   1720420   1718477  
  9560.000000   1715547   1711359   1705889   1699456   1692620  
  9550.000000   1686069   1680341   1675793   1672514   1670522  
  9540.000000   1669792   1670353   1672169   1675012   1678373  
  9530.000000   1681416   1683244   1683072   1680638   1676199  
  9520.000000   1670591   1664825   1659890   1656400   1654580  
  9510.000000   1654318   1655322   1657310   1660010   1663211  
  9500.000000   1666640   1669992   1672952   1675286   1676932  
  9490.000000   1677961   1678540   1678722   1678429   1677416  
  9480.000000   1675485   1672643   1669250   1665989   1663624  
  9470.000000   1662736   1663401   1665179   1667235   1668723  
  9460.000000   1669109   1668383   1666999   1665622   1664785  
  9450.000000   1664670   1665040   1665445   1665467   1665000  
  9440.000000   1664286   1663815   1664012   1665016   1666513  
  9430.000000   1667894   1668438   1667628   1665279   1661579  
  9420.000000   1656990   1652067   1647310   1643045   1639401  
  9410.000000   1636331   1633678   1631210   1628704   1625972  
  9400.000000   1622963   1619800   1616797   1614378   1612936  
  9390.000000   1612680   1613568   1615310   1617534   1619896  
  9380.000000   1622225   1624494   1626761   1628996   1631036  
  9370.000000   1632547   1633219   1632864   1631610   1629824  
  9360.000000   1628004   1626573   1625677   1625216   1624875  
  9350.000000   1624445   1623909   1623561   1623795   1624903  
  9340.000000   1626857   1629216   1631269   1632207   1631453  
  9330.000000   1628817   1624588   1619390   1613989   1609126  
  9320.000000   1605403   1603315   1603161   1605080   1608840  
  9310.000000   1613878   1619232   1623789   1626535   1626868  
  9300.000000   1624830   1621032   1616470   1612020   1608202  
  9290.000000   1604940   1601828   1598361   1594331   1589975  
  9280.000000   1585930   1583003   1581769   1582379   1584451  
  9270.000000   1587320   1590309   1593013   1595391   1597634  
  9260.000000   1599985   1602487   1604954   1607013   1608319  
  9250.000000   1608698   1608241   1607218   1605970   1604723  
  9240.000000   1603539   1602362   1601096   1599726   1598277  
  9230.000000   1596821   1595360   1593836   1592153   1590285  
  9220.000000   1588382   1586782   1585900   1586013   1587080  
  9210.000000   1588700   1590259   1591157   1591087   1590186  
  9200.000000   1589005   1588242   1588436   1589714   1591786  
  9190.000000   1594051   1595898   1596924   1597082   1596632  
  9180.000000   1595936   1595284   1594743   1594261   1593753  
  9170.000000   1593287   1593072   1593397   1594433   1596098  
  9160.000000   1597974   1599420   1599784   1598669   1596096  
  9150.000000   1592466   1588411   1584552   1581339   1578948  
  9140.000000   1577309   1576242   1575584   1575258   1575246  
  9130.000000   1575539   1576080   1576763   1577442   1578002  
  9120.000000   1578400   1578679   1578949   1579302   1579797  
  9110.000000   1580437   1581208   1582068   1582948   1583746  
  9100.000000   1584333   1584550   1584250   1583359   1581934  
  9090.000000   1580182   1578369   1576773   1575564   1574799  
  9080.000000   1574411   1574289   1574352   1574570   1574936  
  9070.000000   1575374   1575696   1575613   1574842   1573220  
  9060.000000   1570835   1568067   1565531   1563857   1563462  
  9050.000000   1564413   1566411   1568901   1571251   1572961  
  9040.000000   1573803   1573809   1573188   1572204   1571102  
  9030.000000   1570045   1569124   1568381   1567856   1567562  
  9020.000000   1567474   1567512   1567569   1567549   1567380  
  9010.000000   1567057   1566597   1566022   1565320   1564457  
  9000.000000   1563454   1562406   1561527   1561073   1561253  
  8990.000000   1562099   1563397   1564740   1565668   1565876  
  8980.000000   1565362   1564461   1563727   1563698   1564664  
  8970.000000   1566516   1568791   1570837   1572092   1572265  
  8960.000000   1571442   1569992   1568420   1567152   1566425  
  8950.000000   1566269   1566578   1567218   1568072   1569079  
  8940.000000   1570174   1571296   1572354   1573308   1574185  
  8930.000000   1575108   1576207   1577543   1578992   1580243  
  8920.000000   1580874   1580531   1579122   1576880   1574326  
  8910.000000   1572053   1570527   1569852   1569761   1569714  
  8900.000000   1569148   1567738   1565522   1562933   1560594  
  8890.000000   1559164   1559083   1560543   1563433   1567415  
  8880.000000   1571997   1576587   1580605   1583457   1584689  
  8870.000000   1584003   1581473   1577493   1572777   1568149  
  8860.000000   1564362   1561922   1561002   1561509   1563174  
  8850.000000   1565744   1569009   1572822   1576965   1581100  
  8840.000000   1584745   1587365   1588568   1588244   1586720  
  8830.000000   1584627   1582764   1581779   1582011   1583380  
  8820.000000   1585462   1587686   1589521   1590679   1591120  
  8810.000000   1591047   1590744   1590493   1590476   1590773  
  8800.000000   1591390   1592282   1593380   1594566   1595681  
  8790.000000   1596543   1596986   1596933   1596425   1595634  
  8780.000000   1594826   1594271   1594183   1594627   1595526  
  8770.000000   1596672   1597803   1598677   1599130   1599132  
  8760.000000   1598798   1598374   1598176   1598514   1599583  
  8750.000000   1601400   1603766   1606310   1608603   1610283  
  8740.000000   1611200   1611435   1611274   1611053   1611036  
  8730.000000   1611282   1611668   1611939   1611906   1611540  
  8720.000000   1611049   1610812   1611210   1612506   1614691  
  8710.000000   1617546   1620689   1623770   1626577   1629080  
  8700.000000   1631382   1633576   1635663   1637460   1638680  
  8690.000000   1639020   1638329   1636679   1634391   1631954  
  8680.000000   1629900   1628677   1628520   1629439   1631206  
  8670.000000   1633468   1635814   1637874   1639388   1640238  
  8660.000000   1640489   1640337   1640085   1640014   1640336  
  8650.000000   1641098   1642233   1643568   1644964   1646351  
  8640.000000   1647799   1649454   1651468   1653889   1656610  
  8630.000000   1659377   1661886   1663905   1665395   1666538  
  8620.000000   1667694   1669261   1671527   1674555   1678146  
  8610.000000   1681909   1685392   1688213   1690178   1691302  
  8600.000000   1691790   1691945   1692064   1692381   1693003  
  8590.000000   1693954   1695173   1696597   1698170   1699888  
  8580.000000   1701763   1703817   1706016   1708265   1710391  
  8570.000000   1712179   1713430   1714026   1714001   1713552  
  8560.000000   1712999   1712714   1712991   1713982   1715618  
  8550.000000   1717678   1719836   1721792   1723326   1724364  
  8540.000000   1724958   1725229   1725303   1725249   1725095  
  8530.000000   1724823   1724432   1723950   1723465   1723096  
  8520.000000   1722965   1723178   1723798   1724848   1726305  
  8510.000000   1728103   1730147   1732287   1734365   1736210  
  8500.000000   1737723   1738870   1739735   1740476   1741308  
  8490.000000   1742419   1743921   1745824   1748048   1750478  
  8480.000000   1752997   1755532   1758047   1760516   1762883  
  8470.000000   1765026   1766776   1767955   1768459   1768300  
  8460.000000   1767633   1766739   1765950   1765576   1765779  
  8450.000000   1766594   1767889   1769485   1771163   1772784  
  8440.000000   1774278   1775660   1776966   1778186   1779253  
  8430.000000   1780013   1780316   1780012   1779069   1777564  
  8420.000000   1775731   1773893   1772381   1771490   1771392  
  8410.000000   1772173   1773782   1776112   1778983   1782205  
  8400.000000   1785557   1788798   1791668   1793907   1795328  
  8390.000000   1795830   1795460   1794381   1792865   1791218  
  8380.000000   1789712   1788552   1787835   1787601   1787817  
  8370.000000   1788437   1789358   1790473   1791605   1792572  
  8360.000000   1793167   1793261   1792846   1792050   1791117  
  8350.000000   1790302   1789810   1789679   1789784   1789846  
  8340.000000   1789556   1788689   1787211   1785296   1783273  
  8330.000000   1781533   1780399   1780060   1780510   1781600  
  8320.000000   1783091   1784756   1786420   1787978   1789379  
  8310.000000   1790584   1791548   1792200   1792473   1792313  
  8300.000000   1791723   1790762   1789551   1788251   1787021  
  8290.000000   1786009   1785301   1784937   1784869   1784995  
  8280.000000   1785149   1785158   1784875   1784221   1783217  
  8270.000000   1781968   1780651   1779451   1778510   1777888  
  8260.000000   1777552   1777409   1777352   1777313   1777275  
  8250.000000   1777286   1777418   1777726   1778199   1778744  
  8240.000000   1779200   1779383   1779137   1778380   1777128  
  8230.000000   1775496   1773670   1771871   1770294   1769075  
  8220.000000   1768246   1767749   1767433   1767110   1766575  
  8210.000000   1765692   1764400   1762768   1760940   1759113  
  8200.000000   1757463   1756094   1755009   1754108   1753224  
  8190.000000   1752172   1750811   1749073   1746976   1744609  
  8180.000000   1742100   1739592   1737221   1735105   1733347  
  8170.000000   1732028   1731193   1730826   1730836   1731055  
  8160.000000   1731267   1731246   1730830   1729945   1728645  
  8150.000000   1727074   1725436   1723916   1722634   1721623  
  8140.000000   1720836   1720197   1719630   1719107   1718626  
  8130.000000   1718210   1717859   1717525   1717114   1716486  
  8120.000000   1715517   1714117   1712279   1710080   1707673  
  8110.000000   1705258   1703046   1701232   1699955   1699290  
  8100.000000   1699219   1699642   1700365   1701143   1701712  
  8090.000000   1701851   1701440   1700481   1699112   1697541  
  8080.000000   1696003   1694667   1693609   1692791   1692103  
  8070.000000   1691421   1690661   1689820   1688960   1688192  
  8060.000000   1687600   1687232   1687051   1686976   1686900  
  8050.000000   1686739   1686454   1686044   1685536   1684944  
  8040.000000   1684258   1683440   1682438   1681214   1679772  
  8030.000000   1678155   1676451   1674759   1673170   1671744  
  8020.000000   1670507   1669460   1668580   1667848   1667241  
  8010.000000   1666745   1666352   1666060   1665879   1665819  
  8000.000000   1665889   1666077   1666341   1666592   1666716  
  7990.000000   1666579   1666088   1665203   1663985   1662562  
  7980.000000   1661117   1659816   1658765   1657978   1657380  
  7970.000000   1656857   1656307   1655698   1655080   1654573  
  7960.000000   1654304   1654351   1654689   1655188   1655650  
  7950.000000   1655872   1655732   1655218   1654457   1653647  
  7940.000000   1653005   1652676   1652693   1652971   1653340  
  7930.000000   1653622   1653687   1653503   1653137   1652724  
  7920.000000   1652414   1652312   1652443   1652742   1653083  
  7910.000000   1653316   1653323   1653053   1652538   1651883  
  7900.000000   1651231   1650723   1650451   1650435   1650614  
  7890.000000   1650859   1651013   1650933   1650536   1649827  
  7880.000000   1648903   1647941   1647148   1646715   1646754  
  7870.000000   1647273   1648160   1649213   1650189   1650874  
  7860.000000   1651138   1650970   1650482   1649866   1649334  
  7850.000000   1649039   1649035   1649248   1649512   1649626  
  7840.000000   1649431   1648873   1648025   1647076   1646256  
  7830.000000   1645774   1645733   1646104   1646724   1647353  
  7820.000000   1647748   1647735   1647257   1646394   1645321  
  7810.000000   1644265   1643428   1642942   1642827   1643007  
  7800.000000   1643325   1643598   1643663   1643419   1642847  
  7790.000000   1642015   1641043   1640074   1639224   1638558  
  7780.000000   1638073   1637711   1637388   1637028   1636597  
  7770.000000   1636109   1635617   1635189   1634865   1634642  
  7760.000000   1634461   1634232   1633859   1633282   1632499  
  7750.000000   1631570   1630596   1629688   1628930   1628347  
  7740.000000   1627909   1627528   1627098   1626513   1625708  
  7730.000000   1624667   1623430   1622091   1620778   1619634  
  7720.000000   1618788   1618335   1618312   1618685   1619347  
  7710.000000   1620139   1620874   1621374   1621514   1621239  
  7700.000000   1620586   1619658   1618616   1617616   1616788  
  7690.000000   1616191   1615819   1615597   1615424   1615207  
  7680.000000   1614892   1614489   1614049   1613659   1613394  
  7670.000000   1613299   1613374   1613576   1613845   1614111  
  7660.000000   1614321   1614431   1614411   1614240   1613907  
  7650.000000   1613420   1612821   1612181   1611607   1611203  
  7640.000000   1611047   1611153   1611461   1611852   1612181  
  7630.000000   1612328   1612244   1611962   1611583   1611237  
  7620.000000   1611031   1611019   1611191   1611489   1611841  
  7610.000000   1612184   1612487   1612737   1612938   1613075  
  7600.000000   1613129   1613063   1612862   1612531   1612116  
  7590.000000   1611694   1611356   1611189   1611255   1611586  
  7580.000000   1612179   1613001   1613993   1615068   1616122  
  7570.000000   1617033   1617703   1618057   1618103   1617902  
  7560.000000   1617587   1617302   1617181   1617305   1617698  
  7550.000000   1618329   1619147   1620096   1621145   1622275  
  7540.000000   1623472   1624704   1625925   1627072   1628106  
  7530.000000   1629019   1629862   1630718   1631688   1632844  
  7520.000000   1634208   1635737   1637342   1638905   1640328  
  7510.000000   1641541   1642528   1643310   1643944   1644502  
  7500.000000   1645071   1645734   1646569   1647625   1648921  
  7490.000000   1650426   1652079   1653794   1655493   1657125  
  7480.000000   1658685   1660207   1661748   1663354   1665052  
  7470.000000   1666827   1668647   1670465   1672251   1673995  
  7460.000000   1675713   1677432   1679187   1680998   1682875  
  7450.000000   1684810   1686789   1688781   1690755   1692667  
  7440.000000   1694489   1696203   1697834   1699434   1701088  
  7430.000000   1702886   1704904   1707170   1709663   1712317  
  7420.000000   1715047   1717778   1720461   1723080   1725648  
  7410.000000   1728177   1730676   1733131   1735522   1737821  
  7400.000000   1740020   1742117   1744129   1746071   1747962  
  7390.000000   1749825   1751685   1753587   1755580   1757718  
  7380.000000   1760029   1762502   1765079   1767666   1770167  
  7370.000000   1772509   1774666   1776658   1778543   1780385  
  7360.000000   1782233   1784112   1786024   1787967   1789948  
  7350.000000   1791995   1794137   1796403   1798783   1801234  
  7340.000000   1803682   1806046   1808256   1810276   1812105  
  7330.000000   1813771   1815318   1816795   1818246   1819714  
  7320.000000   1821228   1822820   1824505   1826290   1828161  
  7310.000000   1830093   1832045   1833982   1835862   1837653  
  7300.000000   1839318   1840824   1842136   1843241   1844151  
  7290.000000   1844918   1845626   1846368   1847217   1848213  
  7280.000000   1849332   1850517   1851685   1852771   1853745  
  7270.000000   1854625   1855460   1856303   1857197   1858145  
  7260.000000   1859128   1860100   1861028   1861887   1862693  
  7250.000000   1863479   1864310   1865254   1866391   1867783  
  7240.000000   1869478   1871467   1873705   1876076   1878459  
  7230.000000   1880722   1882811   1884734   1886599   1888547  
  7220.000000   1890733   1893238   1896073   1899145   1902329  
  7210.000000   1905479   1908518   1911419   1914231   1917015  
  7200.000000   1919834   1922704   1925625   1928576   1931573  
  7190.000000   1934655   1937901   1941369   1945094   1949035  
  7180.000000   1953111   1957206   1961238   1965164   1969009  
  7170.000000   1972820   1976656   1980534   1984453   1988374  
  7160.000000   1992290   1996208   2000196   2004313   2008617  
  7150.000000   2013094   2017691   2022290   2026797   2031143  
  7140.000000   2035364   2039555   2043877   2048471   2053451  
  7130.000000   2058839   2064620   2070703   2077006   2083414  
  7120.000000   2089855   2096239   2102531   2108702   2114786  
  7110.000000   2120836   2126967   2133275   2139868   2146783  
  7100.000000   2154019   2161498   2169128   2176805   2184462  
  7090.000000   2192067   2199634   2207188   2214762   2222367  
  7080.000000   2230005   2237651   2245290   2252891   2260441  
  7070.000000   2267919   2275316   2282621   2289842   2296999  
  7060.000000   2304129   2311273   2318468   2325733   2333064  
  7050.000000   2340438   2347820   2355181   2362506   2369799  
  7040.000000   2377076   2384358   2391656   2398971   2406289  
  7030.000000   2413593   2420861   2428083   2435253   2442381  
  7020.000000   2449478   2456559   2463623   2470663   2477639  
  7010.000000   2484505   2491198   2497678   2503923   2509959  
  7000.000000   2515839   2521644   2527433   2533250   2539072  
  6990.000000   2544858   2550529   2556038   2561350   2566495  
  6980.000000   2571506   2576446   2581337   2586196   2590989  
  6970.000000   2595697   2600285   2604752   2609087   2613297  
  6960.000000   2617355   2621235   2624889   2628294   2631441  
  6950.000000   2634375   2637150   2639850   2642524   2645219  
  6940.000000   2647938   2650688   2653454   2656241   2659036  
  6930.000000   2661831   2664584   2667257   2669792   2672168  
  6920.000000   2674379   2676471   2678495   2680512   2682545  
  6910.000000   2684586   2686589   2688504   2690283   2691910  
  6900.000000   2693387   2694736   2695976   2697126   2698197  
  6890.000000   2699214   2700210   2701245   2702373   2703642  
  6880.000000   2705059   2706605   2708226   2709868   2711486  
  6870.000000   2713060   2714580   2716043   2717427   2718699  
  6860.000000   2719822   2720775   2721573   2722275   2722960  
  6850.000000   2723709   2724568   2725542   2726589   2727649  
  6840.000000   2728663   2729603   2730460   2731251   2731986  
  6830.000000   2732678   2733327   2733944   2734547   2735180  
  6820.000000   2735882   2736679   2737549   2738433   2739236  
  6810.000000   2739869   2740275   2740459   2740474   2740416  
  6800.000000   2740372   2740409   2740540   2740746   2740978  
  6790.000000   2741193   2741353   2741442   2741446   2741364  
  6780.000000   2741190   2740933   2740606   2740235   2739848  
  6770.000000   2739466   2739088   2738701   2738283   2737828  
  6760.000000   2737350   2736894   2736514   2736251   2736111  
  6750.000000   2736055   2736011   2735900   2735669   2735306  
  6740.000000   2734848   2734355   2733894   2733504   2733196  
  6730.000000   2732957   2732762   2732596   2732454   2732342  
  6720.000000   2732257   2732188   2732104   2731974   2731769  
  6710.000000   2731490   2731150   2730784   2730421   2730079  
  6700.000000   2729756   2729441   2729112   2728758   2728363  
  6690.000000   2727920   2727411   2726824   2726141   2725367  
  6680.000000   2724520   2723647   2722793   2722002   2721279  
  6670.000000   2720600   2719904   2719132   2718231   2717191  
  6660.000000   2716027   2714788   2713520   2712264   2711036  
  6650.000000   2709844   2708679   2707537   2706409   2705287  
  6640.000000   2704146   2702961   2701696   2700330   2698860  
  6630.000000   2697313   2695731   2694166   2692653   2691212  
  6620.000000   2689833   2688501   2687186   2685873   2684549  
  6610.000000   2683207   2681838   2680432   2678979   2677475  
  6600.000000   2675928   2674351   2672756   2671144   2669497  
  6590.000000   2667791   2666005   2664139   2662225   2660319  
  6580.000000   2658481   2656756   2655150   2653628   2652134  
  6570.000000   2650612   2649031   2647396   2645747   2644129  
  6560.000000   2642579   2641104   2639690   2638307   2636938  
  6550.000000   2635577   2634239   2632939   2631682   2630452  
  6540.000000   2629222   2627961   2626662   2625339   2624031  
  6530.000000   2622775   2621596   2620483   2619405   2618317  
  6520.000000   2617191   2616023   2614846   2613703   2612636  
  6510.000000   2611661   2610761   2609894   2609013   2608078  
  6500.000000   2607076   2606016   2604923   2603825   2602745  
  6490.000000   2601697   2600686   2599711   2598769   2597853  
  6480.000000   2596950   2596047   2595135   2594211   2593286  
  6470.000000   2592375   2591490   2590629   2589769   2588872  
  6460.000000   2587905   2586850   2585732   2584605   2583548  
  6450.000000   2582630   2581888   2581306   2580828   2580367  
  6440.000000   2579847   2579216   2578470   2577637   2576774  
  6430.000000   2575932   2575153   2574454   2573835   2573280  
  6420.000000   2572775   2572304   2571860   2571440   2571053  
  6410.000000   2570714   2570447   2570271   2570198   2570216  
  6400.000000   2570298   2570395   2570464   2570475   2570428  
  6390.000000   2570347   2570273   2570236   2570246   2570282  
  6380.000000   2570299   2570250   2570103   2569855   2569532  
  6370.000000   2569176   2568822   2568493   2568177   2567854  
  6360.000000   2567489   2567065   2566573   2566027   2565443  
  6350.000000   2564843   2564240   2563648   2563071   2562515  
  6340.000000   2561975   2561443   2560894   2560303   2559641  
  6330.000000   2558896   2558069   2557187   2556279   2555378  
  6320.000000   2554496   2553632   2552763   2551870   2550938  
  6310.000000   2549969   2548974   2547973   2546971   2545973  
  6300.000000   2544966   2543946   2542909   2541865   2540819  
  6290.000000   2539773   2538703   2537576   2536345   2534979  
  6280.000000   2533467   2531833   2530121   2528390   2526685  
  6270.000000   2525033   2523430   2521864   2520310   2518757  
  6260.000000   2517196   2515629   2514053   2512464   2510845  
  6250.000000   2509188   2507485   2505741   2503966   2502173  
  6240.000000   2500368   2498551   2496715   2494862   2492997  
  6230.000000   2491137   2489300   2487498   2485727   2483971  
  6220.000000   2482210   2480428   2478628   2476829   2475054  
  6210.000000   2473322   2471633   2469965   2468287   2466572  
  6200.000000   2464818   2463047   2461303   2459626   2458040  
  6190.000000   2456534   2455068   2453587   2452048   2450431  
  6180.000000   2448753   2447057   2445394   2443811   2442329  
  6170.000000   2440947   2439645   2438390   2437149   2435890  
  6160.000000   2434588   2433225   2431795   2430301   2428760  
  6150.000000   2427199   2425646   2424121   2422632   2421174  
  6140.000000   2419733   2418299   2416879   2415490   2414161  
  6130.000000   2412913   2411749   2410645   2409561   2408449  
  6120.000000   2407276   2406032   2404745   2403461   2402237  
  6110.000000   2401116   2400126   2399258   2398493   2397788  
  6100.000000   2397110   2396424   2395717   2394979   2394224  
  6090.000000   2393467   2392740   2392067   2391479   2390984  
  6080.000000   2390590   2390279   2390034   2389825   2389639  
  6070.000000   2389459   2389290   2389136   2389021   2388960  
  6060.000000   2388989   2389125   2389400   2389813   2390362  
  6050.000000   2391006   2391704   2392393   2393039   2393625  
  6040.000000   2394183   2394765   2395454   2396311   2397387  
  6030.000000   2398683   2400177   2401813   2403536   2405290  
  6020.000000   2407039   2408750   2410405   2411984   2413483  
  6010.000000   2414895   2416247   2417563   2418896   2420286  
  6000.000000   2421771   2423358   2425045   2426805   2428621  
  5990.000000   2430470   2432356   2434282   2436274   2438346  
  5980.000000   2440520   2442802   2445209   2447738   2450399  
  5970.000000   2453176   2456064   2459026   2462042   2465069  
  5960.000000   2468093   2471094   2474080   2477058   2480055  
  5950.000000   2483085   2486178   2489349   2492622   2496010  
  5940.000000   2499526   2503168   2506921   2510755   2514635  
  5930.000000   2518522   2522385   2526203   2529967   2533672  
  5920.000000   2537311   2540874   2544341   2547693   2550907  
  5910.000000   2553971   2556877   2559631   2562243   2564742  
  5900.000000   2567158   2569545   2571949   2574428   2577012  
  5890.000000   2579720   2582530   2585405   2588286   2591123  
  5880.000000   2593876   2596528   2599073   2601511   2603838  
  5870.000000   2606040   2608100   2610012   2611786   2613458  
  5860.000000   2615082   2616719   2618418   2620210   2622098  
  5850.000000   2624072   2626112   2628199   2630323   2632476  
  5840.000000   2634655   2636852   2639063   2641282   2643516  
  5830.000000   2645772   2648066   2650402   2652775   2655159  
  5820.000000   2657526   2659841   2662088   2664267   2666398  
  5810.000000   2668512   2670631   2672776   2674940   2677126  
  5800.000000   2679313   2681509   2683701   2685904   2688093  
  5790.000000   2690257   2692334   2694279   2696003   2697446  
  5780.000000   2698522   2699176   2699346   2699015   2698177  
  5770.000000   2696889   2695228   2693323   2691295   2689272  
  5760.000000   2687331   2685529   2683866   2682342   2680931  
  5750.000000   2679633   2678438   2677350   2676359   2675449  
  5740.000000   2674600   2673791   2673020   2672290   2671622  
  5730.000000   2671020   2670488   2670001   2669531   2669043  
  5720.000000   2668524   2667975   2667421   2666887   2666396  
  5710.000000   2665950   2665544   2665159   2664789   2664435  
  5700.000000   2664110   2663827   2663591   2663391   2663202  
  5690.000000   2663003   2662775   2662526   2662268   2662031  
  5680.000000   2661819   2661629   2661420   2661150   2660761  
  5670.000000   2660212   2659462   2658495   2657294   2655858  
  5660.000000   2654192   2652326   2650305   2648204   2646094  
  5650.000000   2644051   2642115   2640304   2638602   2636987  
  5640.000000   2635435   2633938   2632500   2631132   2629839  
  5630.000000   2628612   2627428   2626259   2625088   2623909  
  5620.000000   2622736   2621588   2620483   2619422   2618396  
  5610.000000   2617381   2616358   2615315   2614259   2613202  
  5600.000000   2612163   2611159   2610197   2609282   2608413  
  5590.000000   2607589   2606803   2606043   2605286   2604502  
  5580.000000   2603662   2602750   2601767   2600737   2599695  
  5570.000000   2598675   2597696   2596757   2595833   2594890  
  5560.000000   2593895   2592829   2591686   2590475   2589208  
  5550.000000   2587905   2586579   2585250   2583939   2582671  
  5540.000000   2581465   2580327   2579245   2578191   2577131  
  5530.000000   2576038   2574906   2573752   2572607   2571506  
  5520.000000   2570472   2569508   2568598   2567716   2566837  
  5510.000000   2565947   2565040   2564115   2563168   2562190  
  5500.000000   2561169   2560100   2558984   2557839   2556679  
  5490.000000   2555519   2554349   2553149   2551886   2550540  
  5480.000000   2549106   2547607   2546075   2544549   2543040  
  5470.000000   2541544   2540028   2538459   2536810   2535080  
  5460.000000   2533280   2531436   2529559   2527657   2525720  
  5450.000000   2523742   2521725   2519690   2517664   2515673  
  5440.000000   2513728   2511820   2509931   2508048   2506176  
  5430.000000   2504335   2502562   2500876   2499279   2497739  
  5420.000000   2496220   2494684   2493136   2491607   2490171  
  5410.000000   2488886   2487804   2486913   2486182   2485547  
  5400.000000   2484973   2484432   2483949   2483540   2483249  
  5390.000000   2483075   2483026   2483071   2483219   2483468  
  5380.000000   2483863   2484432   2485217   2486209   2487406  
  5370.000000   2488754   2490243   2491830   2493537   2495346  
  5360.000000   2497294   2499354   2501558   2503882   2506393  
  5350.000000   2509114   2512158   2515568   2519442   2523766  
  5340.000000   2528568   2533775   2539399   2545376   2551756  
  5330.000000   2558497   2565659   2573192   2581140   2589445  
  5320.000000   2598179   2607321   2616995   2627206   2638089  
  5310.000000   2649619   2661886   2674817   2688475   2702791  
  5300.000000   2717849   2733619   2750220   2767642   2786004  
  5290.000000   2805265   2825478   2846522   2868354   2890792  
  5280.000000   2913778   2937191   2961080   2985460   3010482  
  5270.000000   3036200   3062680   3089826   3117490   3145434  
  5260.000000   3173452   3201403   3229246   3257028   3284802  
  5250.000000   3312603   3340337   3367869   3394943   3421392  
  5240.000000   3447030   3471875   3495923   3519339   3542169  
  5230.000000   3564540   3586382   3607688   3628273   3648091  
  5220.000000   3666993   3685040   3702210   3718681   3734495  
  5210.000000   3749819   3764613   3778918   3792562   3805508  
  5200.000000   3817584   3828835   3839209   3848863   3857807  
  5190.000000   3866186   3873956   3881175   3887741   3893693  
  5180.000000   3898954   3903606   3907607   3911044   3913855  
  5170.000000   3916091   3917679   3918687   3919092   3919012  
  5160.000000   3918460   3917542   3916225   3914545   3912423  
  5150.000000   3909879   3906869   3903465   3899683   3895618  
  5140.000000   3891281   3886730   3881939   3876936   3871695  
  5130.000000   3866259   3860626   3854847   3848921   3842879  
  5120.000000   3836707   3830424   3824025   3817544   3810996  
  5110.000000   3804420   3797829   3791248   3784676   3778129  
  5100.000000   3771609   3765131   3758701   3752329   3746007  
  5090.000000   3739732   3733490   3727280   3721099   3714957  
  5080.000000   3708854   3702792   3696751   3690709   3684628  
  5070.000000   3678488   3672267   3665968   3659595   3653166  
  5060.000000   3646685   3640160   3633582   3626951   3620259  
  5050.000000   3613514   3606722   3599899   3593054   3586200  
  5040.000000   3579342   3572492   3565659   3558860   3552113  
  5030.000000   3545432   3538832   3532309   3525862   3519474  
  5020.000000   3513144   3506862   3500647   3494509   3488486  
  5010.000000   3482592   3476864   3471301   3465922   3460706  
  5000.000000   3455663   3450769   3446042   3441467   3437082  
  4990.000000   3432881   3428910   3425162   3421676   3418431  
  4980.000000   3415457   3412725   3410270   3408070   3406176  
  4970.000000   3404583   3403354   3402481   3402020   3401941  
  4960.000000   3402276   3402975   3404060   3405478   3407263  
  4950.000000   3409376   3411863   3414691   3417907   3421471  
  4940.000000   3425422   3429719   3434403   3439439   3444871  
  4930.000000   3450672   3456885   3463478   3470483   3477857  
  4920.000000   3485616   3493705   3502128   3510828   3519808  
  4910.000000   3529021   3538477   3548143   3558029   3568104  
  4900.000000   3578366   3588782   3599338   3610008   3620774  
  4890.000000   3631622   3642522   3653445   3664331   3675126  
  4880.000000   3685741   3696119   3706175   3715879   3725166  
  4870.000000   3734032   3742420   3750336   3757730   3764625  
  4860.000000   3770991   3776880   3782289   3787286   3791873  
  4850.000000   3796114   3800002   3803596   3806894   3809958  
  4840.000000   3812794   3815463   3817967   3820352   3822613  
  4830.000000   3824783   3826858   3828867   3830808   3832703  
  4820.000000   3834545   3836343   3838092   3839801   3841481  
  4810.000000   3843154   3844838   3846550   3848291   3850054  
  4800.000000   3851823   3853580   3855319   3857045   3858774  
  4790.000000   3860531   3862337   3864209   3866147   3868145  
  4780.000000   3870187   3872258   3874336   3876408   3878452  
  4770.000000   3880453   3882387   3884238   3885987   3887632  
  4760.000000   3889166   3890598   3891927   3893166   3894310  
  4750.000000   3895369   3896335   3897217   3898005   3898705  
  4740.000000   3899299   3899783   3900136   3900355   3900431  
  4730.000000   3900380   3900213   3899960   3899642   3899284  
  4720.000000   3898891   3898468   3898009   3897507   3896964  
  4710.000000   3896387   3895799   3895229   3894716   3894297  
  4700.000000   3894007   3893865   3893887   3894069   3894403  
  4690.000000   3894871   3895462   3896154   3896938   3897793  
  4680.000000   3898706   3899645   3900586   3901488   3902331  
  4670.000000   3903086   3903758   3904346   3904883   3905392  
  4660.000000   3905919   3906493   3907159   3907948   3908903  
  4650.000000   3910053   3911431   3913055   3914930   3917044  
  4640.000000   3919365   3921851   3924452   3927116   3929793  
  4630.000000   3932442   3935022   3937502   3939849   3942035  
  4620.000000   3944025   3945798   3947320   3948581   3949560  
  4610.000000   3950270   3950716   3950943   3950981   3950897  
  4600.000000   3950721   3950509   3950266   3950017   3949739  
  4590.000000   3949434   3949069   3948641   3948115   3947486  
  4580.000000   3946718   3945800   3944697   3943404   3941907  
  4570.000000   3940221   3938358   3936353   3934227   3932013  
  4560.000000   3929726   3927391   3925015   3922617   3920200  
  4550.000000   3917778   3915345   3912899   3910426   3907918  
  4540.000000   3905369   3902787   3900189   3897599   3895044  
  4530.000000   3892535   3890084   3887672   3885300   3882937  
  4520.000000   3880599   3878278   3876025   3873857   3871854  
  4510.000000   3870039   3868504   3867271   3866436   3866012  
  4500.000000   3866093   3866671   3867828   3869532   3871856  
  4490.000000   3874765   3878343   3882567   3887533   3893218  
  4480.000000   3899702   3906935   3914966   3923718   3933221  
  4470.000000   3943393   3954257   3965730   3977824   3990443  
  4460.000000   4003579   4017128   4031068   4045302   4059807  
  4450.000000   4074500   4089356   4104310   4119340   4134406  
  4440.000000   4149492   4164585   4179668   4194738   4209761  
  4430.000000   4224732   4239590   4254328   4268868   4283202  
  4420.000000   4297236   4310955   4324244   4337070   4349295  
  4410.000000   4360877   4371670   4381641   4390673   4398774  
  4400.000000   4405886   4412085   4417383   4421920   4425761  
  4390.000000   4429068   4431918   4434460   4436748   4438891  
  4380.000000   4440914   4442886   4444819   4446764   4448742  
  4370.000000   4450810   4453010   4455402   4458035   4460953  
  4360.000000   4464184   4467742   4471617   4475798   4480239  
  4350.000000   4484916   4489759   4494754   4499838   4505024  
  4340.000000   4510265   4515562   4520814   4525893   4530528  
  4330.000000   4534391   4537062   4538169   4537416   4534726  
  4320.000000   4530240   4524356   4517620   4510672   4504070  
  4310.000000   4498263   4493470   4489757   4487008   4485061  
  4300.000000   4483707   4482788   4482181   4481806   4481630  
  4290.000000   4481615   4481768   4482073   4482562   4483239  
  4280.000000   4484135   4485251   4486580   4488099   4489762  
  4270.000000   4491538   4493360   4495173   4496857   4498269  
  4260.000000   4499191   4499396   4498646   4496787   4493756  
  4250.000000   4489645   4484654   4479097   4473296   4467581  
  4240.000000   4462175   4457242   4452814   4448878   4445342  
  4230.000000   4442115   4439090   4436176   4433299   4430400  
  4220.000000   4427460   4424461   4421450   4418459   4415583  
  4210.000000   4412876   4410434   4408295   4406516   4405097  
  4200.000000   4404057   4403365   4403016   4402957   4403165  
  4190.000000   4403569   4404145   4404822   4405593   4406412  
  4180.000000   4407305   4408252   4409309   4410474   4411822  
  4170.000000   4413368   4415206   4417361   4419927   4422915  
  4160.000000   4426389   4430323   4434745   4439602   4444919  
  4150.000000   4450652   4456847   4463477   4470604   4478195  
  4140.000000   4486304   4494880   4503964   4513493   4523500  
  4130.000000   4533916   4544770   4555993   4567618   4579595  
  4120.000000   4591980   4604757   4618005   4631732   4646014  
  4110.000000   4660846   4676272   4692248   4708769   4725756  
  4100.000000   4743163   4760898   4778908   4797115   4815486  
  4090.000000   4833978   4852577   4871262   4890016   4908826  
  4080.000000   4927658   4946503   4965312   4984074   5002711  
  4070.000000   5021186   5039381   5057246   5074656   5091597  
  4060.000000   5107989   5123874   5139203   5154034   5168303  
  4050.000000   5182066   5195249   5207925   5220039   5231680  
  4040.000000   5242775   5253378   5263365   5272750   5281394  
  4030.000000   5289331   5296458   5302837   5308392   5313170  
  4020.000000   5317060   5320121   5322331   5323785   5324443  
  4010.000000   5324465   5323936   5322865   5320982   5318340  
  4000.000000   5315315  
##END= 
