##TITLE= Sample 010 By ssteindl date Dienstag, November 20 2018
##JCAMP-DX= 4.24
##DATA TYPE= INFRARED SPECTRUM
##ORIGIN= Exported PE Spectrum Data File
##OWNER= Sandra Steindl
##DATE= 18/11/20
##TIME= 16:16:00.00
##SPECTROMETER/DATA SYSTEM= PERKIN-ELMER Frontier FT-IR/NIR IR
##INSTRUMENT PARAMETERS=
  APODIZATION=stark
  DETECTOR=INGAAS
##RESOLUTION= 16.000000
##DELTAX= -2.000000
##XUNITS= 1/CM
##YUNITS= A
##XFACTOR= 1.00
##YFACTOR= 0.00000011920928955078
##FIRSTX= 10000.00
##LASTX= 4000.00
##NPOINTS= 3001
##FIRSTY= 0.247334
##MAXY= 0.603626
##MINY= 0.196701
##XYDATA= (X++(Y..Y))
 10000.000000   2074790   2066402   2057700   2048827   2041051  
  9990.000000   2035670   2032916   2032102   2032490   2033710  
  9980.000000   2035591   2038172   2041715   2046406   2052063  
  9970.000000   2057953   2063065   2066173   2066286   2062771  
  9960.000000   2055729   2045835   2034323   2022614   2012034  
  9950.000000   2003574   1997703   1994467   1993504   1994307  
  9940.000000   1996255   1998785   2001385   2003635   2005259  
  9930.000000   2006073   2006093   2005378   2004127   2002484  
  9920.000000   2000661   1998816   1997194   1996088   1995854  
  9910.000000   1996874   1999341   2003224   2008025   2012968  
  9900.000000   2017057   2019490   2019902   2018487   2015977  
  9890.000000   2013203   2010892   2009158   2007603   2005336  
  9880.000000   2001453   1995459   1987526   1978704   1970515  
  9870.000000   1964803   1962997   1966005   1973759   1985394  
  9860.000000   1999251   2013209   2025015   2032616   2034625  
  9850.000000   2030487   2020750   2006848   1990922   1975237  
  9840.000000   1961743   1951622   1945135   1941801   1940650  
  9830.000000   1940747   1941314   1941984   1942559   1942971  
  9820.000000   1943091   1942734   1941799   1940284   1938487  
  9810.000000   1936764   1935575   1935123   1935461   1936369  
  9800.000000   1937624   1939014   1940477   1941965   1943388  
  9790.000000   1944490   1944943   1944481   1943148   1941425  
  9780.000000   1940165   1940371   1942755   1947486   1953973  
  9770.000000   1961116   1967616   1972491   1975327   1976330  
  9760.000000   1976085   1975159   1973857   1972061   1969456  
  9750.000000   1965738   1960930   1955432   1949915   1945114  
  9740.000000   1941521   1939368   1938574   1939004   1940533  
  9730.000000   1943141   1946790   1951252   1956029   1960348  
  9720.000000   1963404   1964621   1963892   1961666   1958771  
  9710.000000   1956180   1954654   1954582   1955905   1958247  
  9700.000000   1961053   1963716   1965610   1966094   1964539  
  9690.000000   1960470   1953735   1944722   1934380   1924118  
  9680.000000   1915453   1909628   1907239   1908123   1911390  
  9670.000000   1915787   1919985   1922973   1924182   1923517  
  9660.000000   1921290   1918004   1914317   1910794   1907913  
  9650.000000   1905858   1904547   1903591   1902475   1900775  
  9640.000000   1898394   1895724   1893505   1892600   1893518  
  9630.000000   1896160   1899721   1902936   1904602   1903996  
  9620.000000   1901252   1897211   1893113   1890019   1888409  
  9610.000000   1888047   1888187   1888025   1887110   1885607  
  9600.000000   1884159   1883607   1884487   1886816   1889997  
  9590.000000   1893113   1895302   1896046   1895369   1893612  
  9580.000000   1891289   1888730   1886040   1883133   1879900  
  9570.000000   1876435   1873045   1870281   1868674   1868667  
  9560.000000   1870358   1873588   1877855   1882511   1886794  
  9550.000000   1889962   1891422   1890765   1887936   1883162  
  9540.000000   1877009   1870168   1863371   1857158   1851850  
  9530.000000   1847518   1844129   1841670   1840198   1839836  
  9520.000000   1840591   1842292   1844529   1846809   1848758  
  9510.000000   1850273   1851616   1853219   1855511   1858586  
  9500.000000   1862152   1865548   1868066   1869237   1869054  
  9490.000000   1867989   1866705   1865810   1865503   1865627  
  9480.000000   1865738   1865469   1864674   1863538   1862389  
  9470.000000   1861461   1860671   1859576   1857559   1854121  
  9460.000000   1849183   1843188   1836963   1831425   1827250  
  9450.000000   1824698   1823646   1823797   1824869   1826739  
  9440.000000   1829318   1832429   1835619   1838220   1839566  
  9430.000000   1839281   1837557   1835081   1832857   1831697  
  9420.000000   1831892   1832945   1833792   1833234   1830542  
  9410.000000   1825811   1819968   1814413   1810448   1808839  
  9400.000000   1809550   1811907   1814890   1817628   1819646  
  9390.000000   1820995   1822024   1823127   1824488   1826013  
  9380.000000   1827457   1828534   1829092   1829026   1828275  
  9370.000000   1826683   1824040   1820220   1815317   1809830  
  9360.000000   1804554   1800481   1798412   1798713   1801080  
  9350.000000   1804636   1808163   1810525   1810974   1809337  
  9340.000000   1805974   1801577   1796968   1792831   1789658  
  9330.000000   1787602   1786616   1786398   1786583   1786727  
  9320.000000   1786455   1785513   1783866   1781775   1779733  
  9310.000000   1778387   1778312   1779869   1783102   1787747  
  9300.000000   1793309   1799180   1804726   1809390   1812731  
  9290.000000   1814467   1814508   1812969   1810197   1806694  
  9280.000000   1803031   1799682   1796893   1794656   1792740  
  9270.000000   1790861   1788791   1786525   1784246   1782282  
  9260.000000   1780918   1780282   1780262   1780577   1780892  
  9250.000000   1780971   1780783   1780511   1780496   1781059  
  9240.000000   1782389   1784429   1786907   1789359   1791259  
  9230.000000   1792122   1791670   1789888   1787064   1783712  
  9220.000000   1780469   1777950   1776579   1776469   1777365  
  9210.000000   1778780   1780145   1781023   1781179   1780659  
  9200.000000   1779692   1778595   1777630   1776913   1776471  
  9190.000000   1776233   1776134   1776077   1775942   1775563  
  9180.000000   1774744   1773345   1771356   1769043   1766910  
  9170.000000   1765612   1765659   1767236   1770034   1773320  
  9160.000000   1776139   1777641   1777387   1775468   1772428  
  9150.000000   1768992   1765766   1763027   1760710   1758553  
  9140.000000   1756327   1754023   1751885   1750318   1749628  
  9130.000000   1749871   1750732   1751678   1752152   1751798  
  9120.000000   1750600   1748835   1746964   1745363   1744199  
  9110.000000   1743373   1742658   1741843   1740877   1739886  
  9100.000000   1739134   1738864   1739185   1739987   1740985  
  9090.000000   1741828   1742238   1742095   1741462   1740544  
  9080.000000   1739623   1738961   1738752   1739090   1739980  
  9070.000000   1741307   1742853   1744304   1745332   1745648  
  9060.000000   1745085   1743690   1741736   1739676   1737999  
  9050.000000   1737121   1737259   1738376   1740176   1742219  
  9040.000000   1744032   1745239   1745618   1745149   1744001  
  9030.000000   1742450   1740802   1739296   1738088   1737206  
  9020.000000   1736583   1736099   1735638   1735160   1734690  
  9010.000000   1734338   1734213   1734417   1734970   1735807  
  9000.000000   1736779   1737693   1738367   1738637   1738400  
  8990.000000   1737602   1736287   1734575   1732659   1730775  
  8980.000000   1729156   1727972   1727260   1726930   1726791  
  8970.000000   1726642   1726352   1725916   1725453   1725129  
  8960.000000   1725044   1725156   1725286   1725176   1724642  
  8950.000000   1723665   1722464   1721399   1720820   1720924  
  8940.000000   1721645   1722695   1723671   1724254   1724340  
  8930.000000   1724069   1723722   1723555   1723655   1723867  
  8920.000000   1723877   1723348   1722138   1720344   1718313  
  8910.000000   1716449   1715070   1714256   1713842   1713532  
  8900.000000   1713062   1712360   1711583   1711071   1711191  
  8890.000000   1712178   1714034   1716525   1719287   1721914  
  8880.000000   1724099   1725630   1726453   1726578   1726104  
  8870.000000   1725167   1723980   1722824   1722007   1721813  
  8860.000000   1722391   1723747   1725704   1728014   1730386  
  8850.000000   1732618   1734592   1736266   1737596   1738488  
  8840.000000   1738794   1738357   1737109   1735129   1732697  
  8830.000000   1730211   1728097   1726664   1726010   1726023  
  8820.000000   1726416   1726867   1727103   1727016   1726658  
  8810.000000   1726217   1725933   1726016   1726594   1727661  
  8800.000000   1729085   1730619   1731975   1732875   1733145  
  8790.000000   1732758   1731859   1730727   1729678   1728967  
  8780.000000   1728687   1728752   1728949   1729026   1728820  
  8770.000000   1728315   1727648   1727035   1726661   1726597  
  8760.000000   1726766   1726995   1727119   1727063   1726913  
  8750.000000   1726852   1727092   1727748   1728775   1729973  
  8740.000000   1731055   1731770   1732000   1731819   1731467  
  8730.000000   1731252   1731447   1732176   1733396   1734894  
  8720.000000   1736380   1737538   1738138   1738053   1737312  
  8710.000000   1736076   1734624   1733304   1732465   1732404  
  8700.000000   1733288   1735132   1737776   1740927   1744209  
  8690.000000   1747263   1749803   1751665   1752813   1753315  
  8680.000000   1753318   1752992   1752502   1751982   1751528  
  8670.000000   1751207   1751047   1751060   1751217   1751492  
  8660.000000   1751816   1752123   1752316   1752307   1752020  
  8650.000000   1751421   1750553   1749518   1748489   1747637  
  8640.000000   1747113   1746968   1747171   1747606   1748150  
  8630.000000   1748718   1749315   1750028   1750991   1752307  
  8620.000000   1753999   1755975   1758076   1760107   1761943  
  8610.000000   1763528   1764912   1766181   1767409   1768612  
  8600.000000   1769742   1770734   1771559   1772277   1773027  
  8590.000000   1773989   1775293   1776953   1778832   1780680  
  8580.000000   1782209   1783200   1783566   1783393   1782897  
  8570.000000   1782372   1782089   1782251   1782954   1784195  
  8560.000000   1785882   1787861   1789934   1791879   1793476  
  8550.000000   1794553   1795032   1794960   1794516   1793960  
  8540.000000   1793568   1793549   1793996   1794859   1795987  
  8530.000000   1797191   1798318   1799297   1800139   1800903  
  8520.000000   1801649   1802400   1803135   1803803   1804381  
  8510.000000   1804882   1805379   1805966   1806725   1807694  
  8500.000000   1808842   1810109   1811430   1812787   1814205  
  8490.000000   1815734   1817384   1819097   1820719   1822032  
  8480.000000   1822832   1823005   1822614   1821868   1821075  
  8470.000000   1820507   1820302   1820410   1820606   1820635  
  8460.000000   1820322   1819733   1819161   1819062   1819862  
  8450.000000   1821783   1824701   1828141   1831403   1833784  
  8440.000000   1834824   1834429   1832898   1830794   1828758  
  8430.000000   1827299   1826656   1826799   1827510   1828510  
  8420.000000   1829558   1830506   1831283   1831852   1832150  
  8410.000000   1832100   1831658   1830867   1829901   1829023  
  8400.000000   1828519   1828593   1829279   1830451   1831839  
  8390.000000   1833186   1834306   1835181   1835898   1836596  
  8380.000000   1837342   1838080   1838639   1838782   1838322  
  8370.000000   1837176   1835423   1833252   1830898   1828566  
  8360.000000   1826391   1824468   1822869   1821700   1821077  
  8350.000000   1821110   1821809   1823067   1824628   1826170  
  8340.000000   1827386   1828093   1828287   1828111   1827795  
  8330.000000   1827531   1827409   1827374   1827270   1826926  
  8320.000000   1826236   1825218   1824001   1822776   1821709  
  8310.000000   1820882   1820254   1819693   1819022   1818088  
  8300.000000   1816809   1815213   1813431   1811673   1810174  
  8290.000000   1809146   1808717   1808904   1809592   1810552  
  8280.000000   1811480   1812080   1812149   1811624   1810608  
  8270.000000   1809319   1808031   1806966   1806231   1805777  
  8260.000000   1805437   1804998   1804292   1803266   1801986  
  8250.000000   1800630   1799403   1798484   1797938   1797729  
  8240.000000   1797717   1797729   1797602   1797242   1796629  
  8230.000000   1795816   1794892   1793948   1793033   1792148  
  8220.000000   1791236   1790217   1789018   1787599   1785984  
  8210.000000   1784248   1782499   1780836   1779309   1777911  
  8200.000000   1776579   1775235   1773828   1772371   1770954  
  8190.000000   1769722   1768813   1768318   1768213   1768381  
  8180.000000   1768624   1768743   1768584   1768091   1767296  
  8170.000000   1766296   1765195   1764064   1762904   1761667  
  8160.000000   1760280   1758687   1756883   1754910   1752850  
  8150.000000   1750786   1748781   1746858   1745003   1743188  
  8140.000000   1741400   1739664   1738050   1736665   1735617  
  8130.000000   1734994   1734822   1735056   1735579   1736215  
  8120.000000   1736777   1737077   1737000   1736480   1735554  
  8110.000000   1734299   1732844   1731310   1729804   1728396  
  8100.000000   1727136   1726063   1725211   1724627   1724338  
  8090.000000   1724359   1724643   1725098   1725584   1725952  
  8080.000000   1726078   1725890   1725385   1724608   1723637  
  8070.000000   1722554   1721419   1720279   1719166   1718122  
  8060.000000   1717190   1716418   1715822   1715379   1715001  
  8050.000000   1714552   1713883   1712869   1711462   1709704  
  8040.000000   1707733   1705735   1703910   1702414   1701325  
  8030.000000   1700637   1700268   1700104   1700019   1699927  
  8020.000000   1699788   1699610   1699437   1699310   1699259  
  8010.000000   1699253   1699228   1699069   1698669   1697947  
  8000.000000   1696903   1695621   1694268   1693047   1692143  
  7990.000000   1691673   1691641   1691955   1692439   1692908  
  7980.000000   1693209   1693274   1693120   1692828   1692507  
  7970.000000   1692234   1692037   1691869   1691648   1691266  
  7960.000000   1690647   1689761   1688643   1687393   1686133  
  7950.000000   1685015   1684152   1683631   1683473   1683647  
  7940.000000   1684068   1684609   1685134   1685492   1685561  
  7930.000000   1685233   1684454   1683210   1681561   1679628  
  7920.000000   1677607   1675743   1674290   1673472   1673416  
  7910.000000   1674125   1675454   1677151   1678906   1680420  
  7900.000000   1681481   1681978   1681928   1681421   1680605  
  7890.000000   1679628   1678640   1677774   1677162   1676923  
  7880.000000   1677144   1677859   1679004   1680429   1681901  
  7870.000000   1683174   1684043   1684410   1684305   1683869  
  7860.000000   1683307   1682808   1682503   1682429   1682542  
  7850.000000   1682763   1683007   1683237   1683448   1683672  
  7840.000000   1683930   1684220   1684497   1684687   1684712  
  7830.000000   1684516   1684088   1683469   1682746   1682035  
  7820.000000   1681445   1681073   1680961   1681112   1681467  
  7810.000000   1681943   1682433   1682847   1683120   1683231  
  7800.000000   1683188   1683013   1682723   1682312   1681754  
  7790.000000   1681011   1680063   1678931   1677678   1676409  
  7780.000000   1675236   1674264   1673540   1673071   1672804  
  7770.000000   1672663   1672558   1672410   1672158   1671762  
  7760.000000   1671206   1670490   1669643   1668710   1667755  
  7750.000000   1666844   1666042   1665389   1664905   1664582  
  7740.000000   1664397   1664315   1664290   1664275   1664215  
  7730.000000   1664061   1663780   1663373   1662888   1662411  
  7720.000000   1662044   1661864   1661887   1662046   1662209  
  7710.000000   1662213   1661931   1661308   1660390   1659298  
  7700.000000   1658183   1657170   1656319   1655619   1655019  
  7690.000000   1654471   1653969   1653561   1653329   1653341  
  7680.000000   1653604   1654046   1654530   1654901   1655043  
  7670.000000   1654922   1654602   1654204   1653877   1653725  
  7660.000000   1653784   1654002   1654270   1654449   1654419  
  7650.000000   1654111   1653522   1652721   1651827   1650993  
  7640.000000   1650362   1650047   1650090   1650452   1651019  
  7630.000000   1651629   1652120   1652376   1652363   1652125  
  7620.000000   1651765   1651388   1651071   1650832   1650648  
  7610.000000   1650477   1650307   1650169   1650138   1650299  
  7600.000000   1650693   1651296   1652002   1652663   1653130  
  7590.000000   1653309   1653196   1652867   1652456   1652089  
  7580.000000   1651856   1651774   1651809   1651891   1651960  
  7570.000000   1651983   1651964   1651933   1651932   1651994  
  7560.000000   1652142   1652390   1652753   1653250   1653902  
  7550.000000   1654721   1655697   1656790   1657931   1659029  
  7540.000000   1660002   1660777   1661322   1661635   1661754  
  7530.000000   1661738   1661666   1661611   1661634   1661776  
  7520.000000   1662053   1662457   1662968   1663558   1664203  
  7510.000000   1664883   1665586   1666295   1666988   1667629  
  7500.000000   1668191   1668652   1669031   1669379   1669784  
  7490.000000   1670339   1671123   1672165   1673437   1674850  
  7480.000000   1676286   1677632   1678822   1679848   1680765  
  7470.000000   1681655   1682609   1683673   1684849   1686084  
  7460.000000   1687311   1688462   1689521   1690511   1691509  
  7450.000000   1692600   1693858   1695310   1696935   1698663  
  7440.000000   1700409   1702093   1703673   1705151   1706565  
  7430.000000   1707975   1709444   1711024   1712743   1714603  
  7420.000000   1716588   1718657   1720752   1722793   1724689  
  7410.000000   1726354   1727728   1728794   1729601   1730252  
  7400.000000   1730889   1731649   1732633   1733878   1735352  
  7390.000000   1736978   1738660   1740329   1741956   1743562  
  7380.000000   1745195   1746908   1748723   1750627   1752574  
  7370.000000   1754496   1756333   1758037   1759595   1761005  
  7360.000000   1762285   1763450   1764516   1765498   1766418  
  7350.000000   1767313   1768233   1769248   1770423   1771819  
  7340.000000   1773460   1775341   1777406   1779566   1781706  
  7330.000000   1783707   1785472   1786946   1788131   1789076  
  7320.000000   1789868   1790596   1791332   1792115   1792956  
  7310.000000   1793843   1794769   1795738   1796765   1797871  
  7300.000000   1799057   1800308   1801585   1802850   1804082  
  7290.000000   1805297   1806542   1807876   1809337   1810920  
  7280.000000   1812565   1814169   1815622   1816841   1817808  
  7270.000000   1818562   1819192   1819787   1820423   1821125  
  7260.000000   1821886   1822677   1823486   1824322   1825230  
  7250.000000   1826267   1827487   1828910   1830530   1832301  
  7240.000000   1834178   1836104   1838050   1839986   1841908  
  7230.000000   1843801   1845673   1847521   1849382   1851284  
  7220.000000   1853287   1855425   1857725   1860171   1862732  
  7210.000000   1865353   1868002   1870660   1873355   1876127  
  7200.000000   1879034   1882105   1885348   1888719   1892161  
  7190.000000   1895596   1898972   1902250   1905446   1908592  
  7180.000000   1911752   1914978   1918313   1921764   1925317  
  7170.000000   1928930   1932569   1936197   1939816   1943435  
  7160.000000   1947089   1950793   1954563   1958369   1962190  
  7150.000000   1965983   1969751   1973514   1977352   1981345  
  7140.000000   1985587   1990118   1994944   2000008   2005241  
  7130.000000   2010554   2015895   2021223   2026542   2031853  
  7120.000000   2037180   2042530   2047928   2053384   2058925  
  7110.000000   2064557   2070285   2076071   2081870   2087613  
  7100.000000   2093254   2098778   2104225   2109670   2115216  
  7090.000000   2120942   2126890   2133040   2139328   2145657  
  7080.000000   2151934   2158080   2164056   2169847   2175473  
  7070.000000   2180969   2186390   2191796   2197257   2202826  
  7060.000000   2208537   2214385   2220330   2226303   2232225  
  7050.000000   2238038   2243711   2249257   2254706   2260106  
  7040.000000   2265488   2270876   2276277   2281694   2287126  
  7030.000000   2292566   2297985   2303337   2308544   2313537  
  7020.000000   2318267   2322752   2327062   2331329   2335677  
  7010.000000   2340209   2344937   2349807   2354695   2359476  
  7000.000000   2364048   2368381   2372496   2376461   2380338  
  6990.000000   2384172   2387963   2391698   2395345   2398899  
  6980.000000   2402363   2405767   2409130   2412481   2415815  
  6970.000000   2419141   2422444   2425726   2428969   2432157  
  6960.000000   2435249   2438206   2440979   2443549   2445913  
  6950.000000   2448106   2450164   2452136   2454043   2455908  
  6940.000000   2457742   2459577   2461444   2463388   2465417  
  6930.000000   2467511   2469586   2471543   2473282   2474758  
  6920.000000   2475994   2477083   2478143   2479274   2480510  
  6910.000000   2481811   2483087   2484253   2485263   2486154  
  6900.000000   2487018   2487975   2489106   2490434   2491903  
  6890.000000   2493415   2494866   2496190   2497373   2498439  
  6880.000000   2499427   2500362   2501243   2502052   2502776  
  6870.000000   2503426   2504045   2504695   2505432   2506289  
  6860.000000   2507256   2508299   2509368   2510431   2511471  
  6850.000000   2512492   2513501   2514495   2515453   2516347  
  6840.000000   2517149   2517850   2518461   2519009   2519520  
  6830.000000   2520014   2520493   2520950   2521376   2521774  
  6820.000000   2522148   2522516   2522879   2523240   2523582  
  6810.000000   2523896   2524175   2524433   2524686   2524953  
  6800.000000   2525233   2525507   2525737   2525884   2525921  
  6790.000000   2525845   2525669   2525421   2525124   2524794  
  6780.000000   2524439   2524069   2523705   2523384   2523143  
  6770.000000   2523008   2522975   2523003   2523030   2522985  
  6760.000000   2522817   2522508   2522083   2521587   2521085  
  6750.000000   2520631   2520273   2520044   2519964   2520040  
  6740.000000   2520263   2520597   2520986   2521356   2521644  
  6730.000000   2521809   2521852   2521811   2521742   2521692  
  6720.000000   2521684   2521706   2521729   2521738   2521741  
  6710.000000   2521791   2521945   2522253   2522708   2523249  
  6700.000000   2523754   2524096   2524166   2523922   2523386  
  6690.000000   2522638   2521774   2520886   2520035   2519258  
  6680.000000   2518568   2517979   2517491   2517107   2516797  
  6670.000000   2516520   2516206   2515793   2515233   2514520  
  6660.000000   2513675   2512744   2511767   2510771   2509760  
  6650.000000   2508738   2507713   2506718   2505792   2504973  
  6640.000000   2504263   2503624   2502974   2502225   2501300  
  6630.000000   2500180   2498894   2497520   2496143   2494829  
  6620.000000   2493599   2492437   2491301   2490151   2488963  
  6610.000000   2487738   2486485   2485211   2483907   2482550  
  6600.000000   2481112   2479583   2477973   2476321   2474678  
  6590.000000   2473093   2471590   2470175   2468828   2467522  
  6580.000000   2466225   2464917   2463585   2462222   2460825  
  6570.000000   2459393   2457931   2456449   2454962   2453489  
  6560.000000   2452041   2450625   2449234   2447858   2446484  
  6550.000000   2445105   2443715   2442310   2440877   2439399  
  6540.000000   2437855   2436235   2434543   2432810   2431086  
  6530.000000   2429430   2427895   2426516   2425299   2424229  
  6520.000000   2423272   2422385   2421522   2420635   2419676  
  6510.000000   2418603   2417385   2416012   2414507   2412922  
  6500.000000   2411330   2409807   2408411   2407166   2406055  
  6490.000000   2405036   2404046   2403036   2401969   2400839  
  6480.000000   2399653   2398429   2397185   2395929   2394666  
  6470.000000   2393390   2392098   2390784   2389446   2388082  
  6460.000000   2386698   2385302   2383911   2382547   2381232  
  6450.000000   2379985   2378814   2377715   2376678   2375686  
  6440.000000   2374726   2373788   2372869   2371966   2371079  
  6430.000000   2370204   2369345   2368504   2367702   2366958  
  6420.000000   2366296   2365725   2365242   2364819   2364419  
  6410.000000   2363995   2363516   2362966   2362357   2361721  
  6400.000000   2361107   2360565   2360143   2359868   2359750  
  6390.000000   2359767   2359874   2360010   2360106   2360107  
  6380.000000   2359985   2359744   2359424   2359076   2358752  
  6370.000000   2358476   2358240   2358010   2357736   2357386  
  6360.000000   2356947   2356447   2355932   2355460   2355069  
  6350.000000   2354780   2354577   2354435   2354308   2354154  
  6340.000000   2353927   2353587   2353097   2352438   2351612  
  6330.000000   2350651   2349615   2348581   2347619   2346772  
  6320.000000   2346034   2345363   2344683   2343931   2343066  
  6310.000000   2342105   2341095   2340109   2339205   2338411  
  6300.000000   2337707   2337043   2336352   2335579   2334689  
  6290.000000   2333677   2332555   2331346   2330067   2328736  
  6280.000000   2327360   2325957   2324539   2323130   2321747  
  6270.000000   2320405   2319106   2317851   2316632   2315444  
  6260.000000   2314279   2313130   2311985   2310827   2309639  
  6250.000000   2308404   2307112   2305765   2304373   2302952  
  6240.000000   2301516   2300079   2298646   2297223   2295817  
  6230.000000   2294434   2293082   2291764   2290476   2289208  
  6220.000000   2287948   2286683   2285410   2284130   2282856  
  6210.000000   2281596   2280360   2279152   2277975   2276834  
  6200.000000   2275741   2274710   2273757   2272892   2272109  
  6190.000000   2271388   2270699   2270006   2269282   2268507  
  6180.000000   2267678   2266802   2265892   2264963   2264030  
  6170.000000   2263103   2262191   2261298   2260423   2259562  
  6160.000000   2258709   2257856   2257005   2256161   2255337  
  6150.000000   2254545   2253790   2253068   2252362   2251651  
  6140.000000   2250921   2250168   2249409   2248665   2247960  
  6130.000000   2247303   2246686   2246080   2245455   2244783  
  6120.000000   2244062   2243305   2242546   2241821   2241163  
  6110.000000   2240587   2240101   2239697   2239375   2239129  
  6100.000000   2238963   2238873   2238856   2238894   2238969  
  6090.000000   2239055   2239137   2239199   2239244   2239270  
  6080.000000   2239296   2239328   2239390   2239497   2239675  
  6070.000000   2239933   2240286   2240724   2241243   2241820  
  6060.000000   2242454   2243142   2243910   2244773   2245764  
  6050.000000   2246881   2248122   2249450   2250841   2252259  
  6040.000000   2253705   2255181   2256722   2258349   2260091  
  6030.000000   2261949   2263919   2265977   2268106   2270280  
  6020.000000   2272490   2274715   2276948   2279169   2281375  
  6010.000000   2283559   2285733   2287906   2290104   2292335  
  6000.000000   2294611   2296922   2299266   2301631   2304027  
  5990.000000   2306461   2308961   2311545   2314240   2317049  
  5980.000000   2319982   2323027   2326179   2329418   2332732  
  5970.000000   2336090   2339474   2342855   2346226   2349581  
  5960.000000   2352943   2356329   2359768   2363262   2366810  
  5950.000000   2370384   2373966   2377537   2381104   2384691  
  5940.000000   2388337   2392079   2395941   2399927   2404018  
  5930.000000   2408185   2412387   2416588   2420746   2424819  
  5920.000000   2428758   2432515   2436044   2439320   2442340  
  5910.000000   2445128   2447728   2450193   2452571   2454905  
  5900.000000   2457219   2459542   2461891   2464295   2466765  
  5890.000000   2469317   2471934   2474599   2477271   2479920  
  5880.000000   2482512   2485031   2487460   2489783   2491975  
  5870.000000   2494006   2495853   2497503   2498974   2500308  
  5860.000000   2501565   2502807   2504085   2505431   2506857  
  5850.000000   2508376   2509998   2511741   2513625   2515656  
  5840.000000   2517822   2520083   2522388   2524680   2526925  
  5830.000000   2529109   2531249   2533366   2535489   2537626  
  5820.000000   2539780   2541940   2544105   2546279   2548473  
  5810.000000   2550702   2552960   2555237   2557498   2559727  
  5800.000000   2561906   2564062   2566220   2568433   2570707  
  5790.000000   2573044   2575374   2577625   2579676   2581436  
  5780.000000   2582795   2583694   2584064   2583889   2583153  
  5770.000000   2581904   2580206   2578185   2575964   2573692  
  5760.000000   2571466   2569368   2567411   2565601   2563907  
  5750.000000   2562324   2560835   2559452   2558166   2556969  
  5740.000000   2555830   2554714   2553587   2552429   2551242  
  5730.000000   2550034   2548828   2547634   2546460   2545297  
  5720.000000   2544138   2542977   2541815   2540657   2539514  
  5710.000000   2538391   2537297   2536238   2535226   2534278  
  5700.000000   2533406   2532615   2531894   2531218   2530550  
  5690.000000   2529862   2529137   2528386   2527626   2526893  
  5680.000000   2526199   2525548   2524903   2524224   2523448  
  5670.000000   2522526   2521407   2520063   2518467   2516613  
  5660.000000   2514506   2512177   2509678   2507087   2504482  
  5650.000000   2501945   2499525   2497250   2495115   2493102  
  5640.000000   2491189   2489360   2487608   2485926   2484309  
  5630.000000   2482735   2481189   2479650   2478123   2476620  
  5620.000000   2475180   2473832   2472604   2471491   2470480  
  5610.000000   2469532   2468618   2467716   2466824   2465950  
  5600.000000   2465110   2464310   2463549   2462815   2462096  
  5590.000000   2461381   2460668   2459955   2459242   2458525  
  5580.000000   2457792   2457031   2456235   2455403   2454544  
  5570.000000   2453672   2452798   2451928   2451060   2450191  
  5560.000000   2449313   2448424   2447522   2446610   2445686  
  5550.000000   2444748   2443794   2442830   2441867   2440924  
  5540.000000   2440018   2439159   2438343   2437553   2436762  
  5530.000000   2435950   2435102   2434224   2433327   2432428  
  5520.000000   2431535   2430647   2429752   2428839   2427899  
  5510.000000   2426932   2425943   2424939   2423919   2422881  
  5500.000000   2421815   2420724   2419619   2418525   2417464  
  5490.000000   2416452   2415479   2414518   2413525   2412463  
  5480.000000   2411310   2410070   2408766   2407436   2406107  
  5470.000000   2404796   2403496   2402194   2400870   2399515  
  5460.000000   2398120   2396684   2395201   2393660   2392050  
  5450.000000   2390370   2388633   2386867   2385114   2383412  
  5440.000000   2381791   2380258   2378813   2377444   2376148  
  5430.000000   2374923   2373770   2372675   2371621   2370569  
  5420.000000   2369496   2368385   2367264   2366179   2365207  
  5410.000000   2364404   2363813   2363416   2363186   2363061  
  5400.000000   2363011   2363003   2363047   2363144   2363321  
  5390.000000   2363575   2363924   2364361   2364923   2365628  
  5380.000000   2366535   2367658   2369026   2370602   2372367  
  5370.000000   2374255   2376258   2378343   2380546   2382864  
  5360.000000   2385354   2388003   2390862   2393919   2397246  
  5350.000000   2400857   2404851   2409238   2414092   2419374  
  5340.000000   2425109   2431228   2437765   2444672   2452020  
  5330.000000   2459769   2467988   2476617   2485707   2495199  
  5320.000000   2505180   2515632   2526688   2538347   2550733  
  5310.000000   2563803   2577634   2592143   2607396   2623333  
  5300.000000   2640052   2657532   2675899   2695135   2715341  
  5290.000000   2736454   2758499   2781334   2804903   2829027  
  5280.000000   2853651   2878671   2904144   2930092   2956649  
  5270.000000   2983851   3011728   3040158   3068971   3097931  
  5260.000000   3126843   3155597   3184172   3212641   3241057  
  5250.000000   3269463   3297756   3325808   3353367   3380284  
  5240.000000   3406381   3431685   3456184   3480038   3503275  
  5230.000000   3526020   3548201   3569835   3590759   3610954  
  5220.000000   3630285   3648811   3666488   3683464   3699746  
  5210.000000   3715480   3730620   3745224   3759155   3772414  
  5200.000000   3784863   3796562   3807459   3817685   3827222  
  5190.000000   3836179   3844487   3852194   3859205   3865584  
  5180.000000   3871287   3876433   3881014   3885135   3888743  
  5170.000000   3891880   3894457   3896512   3897994   3898992  
  5160.000000   3899493   3899582   3899218   3898434   3897155  
  5150.000000   3895412   3893170   3890512   3887458   3884104  
  5140.000000   3880458   3876575   3872427   3868043   3863401  
  5130.000000   3858546   3853486   3848278   3842932   3837489  
  5120.000000   3831947   3826338   3820663   3814955   3809213  
  5110.000000   3803455   3797666   3791845   3785980   3780088  
  5100.000000   3774190   3768332   3762546   3756859   3751265  
  5090.000000   3745745   3740259   3734781   3729286   3723779  
  5080.000000   3718267   3712764   3707272   3701784   3696278  
  5070.000000   3690738   3685145   3679501   3673805   3668071  
  5060.000000   3662293   3656473   3650590   3644637   3638592  
  5050.000000   3632454   3626214   3619879   3613440   3606905  
  5040.000000   3600269   3593546   3586744   3579890   3573002  
  5030.000000   3566101   3559198   3552300   3545408   3538529  
  5020.000000   3531674   3524859   3518104   3511419   3504815  
  5010.000000   3498280   3491813   3485396   3479042   3472756  
  5000.000000   3466575   3460521   3454641   3448944   3443463  
  4990.000000   3438188   3433139   3428297   3423683   3419277  
  4980.000000   3415100   3411131   3407393   3403863   3400576  
  4970.000000   3397517   3394728   3392190   3389936   3387927  
  4960.000000   3386183   3384659   3383385   3382337   3381578  
  4950.000000   3381111   3381010   3381271   3381950   3383016  
  4940.000000   3384498   3386352   3388607   3391223   3394235  
  4930.000000   3397601   3401352   3405437   3409879   3414628  
  4920.000000   3419718   3425117   3430870   3436961   3443433  
  4910.000000   3450269   3457494   3465077   3473021   3481279  
  4900.000000   3489826   3498603   3507567   3516658   3525826  
  4890.000000   3535028   3544208   3553329   3562319   3571129  
  4880.000000   3579666   3587879   3595673   3603019   3609842  
  4870.000000   3616144   3621866   3627025   3631570   3635531  
  4860.000000   3638871   3641643   3643831   3645508   3646671  
  4850.000000   3647393   3647672   3647571   3647095   3646313  
  4840.000000   3645248   3643987   3642573   3641095   3639598  
  4830.000000   3638149   3636774   3635508   3634353   3633314  
  4820.000000   3632382   3631547   3630801   3630137   3629559  
  4810.000000   3629066   3628673   3628378   3628198   3628122  
  4800.000000   3628162   3628304   3628558   3628920   3629407  
  4790.000000   3630018   3630773   3631667   3632704   3633868  
  4780.000000   3635154   3636541   3638023   3639583   3641214  
  4770.000000   3642896   3644614   3646342   3648057   3649732  
  4760.000000   3651352   3652906   3654395   3655826   3657210  
  4750.000000   3658557   3659874   3661165   3662431   3663675  
  4740.000000   3664898   3666107   3667311   3668517   3669733  
  4730.000000   3670956   3672185   3673407   3674616   3675802  
  4720.000000   3676973   3678133   3679309   3680521   3681803  
  4710.000000   3683173   3684664   3686289   3688075   3690031  
  4700.000000   3692185   3694542   3697120   3699912   3702916  
  4690.000000   3706109   3709478   3712990   3716631   3720368  
  4680.000000   3724182   3728031   3731887   3735695   3739429  
  4670.000000   3743042   3746533   3749894   3753163   3756372  
  4660.000000   3759585   3762856   3766251   3769823   3773623  
  4650.000000   3777678   3782004   3786590   3791402   3796392  
  4640.000000   3801498   3806666   3811846   3817009   3822128  
  4630.000000   3827196   3832183   3837068   3841796   3846322  
  4620.000000   3850574   3854511   3858078   3861263   3864047  
  4610.000000   3866460   3868515   3870275   3871776   3873095  
  4600.000000   3874266   3875356   3876367   3877330   3878209  
  4590.000000   3879006   3879667   3880184   3880513   3880655  
  4580.000000   3880581   3880299   3879787   3879060   3878105  
  4570.000000   3876945   3875582   3874053   3872371   3870577  
  4560.000000   3868686   3866734   3864727   3862694   3860632  
  4550.000000   3858552   3856440   3854291   3852081   3849801  
  4540.000000   3847435   3844989   3842471   3839904   3837312  
  4530.000000   3834716   3832134   3829566   3827018   3824477  
  4520.000000   3821956   3819449   3816990   3814582   3812275  
  4510.000000   3810077   3808050   3806204   3804623   3803329  
  4500.000000   3802423   3801926   3801933   3802437   3803507  
  4490.000000   3805103   3807281   3809994   3813314   3817212  
  4480.000000   3821775   3826985   3832928   3839571   3846982  
  4470.000000   3855104   3863978   3873523   3883748   3894550  
  4460.000000   3905910   3917712   3929925   3942439   3955235  
  4450.000000   3968233   3981437   3994806   4008360   4022082  
  4440.000000   4035981   4050028   4064193   4078424   4092653  
  4430.000000   4106828   4120877   4134778   4148480   4161990  
  4420.000000   4175256   4188281   4200979   4213317   4225177  
  4410.000000   4236500   4247163   4257124   4266297   4274694  
  4400.000000   4282294   4289178   4295392   4301073   4306309  
  4390.000000   4311258   4316010   4320707   4325408   4330202  
  4380.000000   4335095   4340115   4345220   4350397   4355591  
  4370.000000   4360788   4365956   4371103   4376226   4381348  
  4360.000000   4386473   4391624   4396785   4401970   4407124  
  4350.000000   4412251   4417262   4422166   4426883   4431469  
  4340.000000   4435884   4440207   4444364   4448296   4451722  
  4330.000000   4454303   4455531   4454937   4452110   4446905  
  4320.000000   4439438   4430168   4419756   4409001   4398624  
  4310.000000   4389208   4381069   4374315   4368843   4364477  
  4300.000000   4361007   4358269   4356157   4354600   4353579  
  4290.000000   4353037   4352967   4353297   4354030   4355112  
  4280.000000   4356558   4358330   4360412   4362747   4365273  
  4270.000000   4367920   4370604   4373244   4375716   4377868  
  4260.000000   4379481   4380312   4380104   4378671   4375917  
  4250.000000   4371916   4366866   4361108   4355006   4348948  
  4240.000000   4343211   4338003   4333374   4329313   4325712  
  4230.000000   4322462   4319434   4316523   4313652   4310757  
  4220.000000   4307822   4304828   4301827   4298855   4296023  
  4210.000000   4293405   4291124   4289237   4287819   4286864  
  4200.000000   4286374   4286285   4286555   4287098   4287875  
  4190.000000   4288810   4289885   4291041   4292283   4293567  
  4180.000000   4294914   4296297   4297761   4299302   4300990  
  4170.000000   4302843   4304943   4307309   4310009   4313043  
  4160.000000   4316453   4320214   4324351   4328827   4333666  
  4150.000000   4338828   4344341   4350165   4356334   4362815  
  4140.000000   4369659   4376844   4384433   4392401   4400797  
  4130.000000   4409569   4418741   4428246   4438111   4448301  
  4120.000000   4458886   4469882   4481394   4493461   4506172  
  4110.000000   4519528   4533557   4548196   4563400   4579051  
  4100.000000   4595059   4611292   4627661   4644073   4660488  
  4090.000000   4676876   4693240   4709589   4725922   4742246  
  4080.000000   4758532   4774776   4790927   4806981   4822862  
  4070.000000   4838549   4853923   4868932   4883435   4897391  
  4060.000000   4910690   4923347   4935305   4946630   4957293  
  4050.000000   4967384   4976889   4985917   4994452   5002595  
  4040.000000   5010297   5017608   5024429   5030780   5036558  
  4030.000000   5041806   5046461   5050590   5054144   5057166  
  4020.000000   5059574   5061407   5062652   5063381   5063582  
  4010.000000   5063386   5062867   5062035   5060693   5058856  
  4000.000000   5056761  
##END= 
