##TITLE= Sample 021 By ssteindl date Dienstag, November 20 2018
##JCAMP-DX= 4.24
##DATA TYPE= INFRARED SPECTRUM
##ORIGIN= Exported PE Spectrum Data File
##OWNER= Sandra Steindl
##DATE= 18/11/20
##TIME= 16:29:31.00
##SPECTROMETER/DATA SYSTEM= PERKIN-ELMER Frontier FT-IR/NIR IR
##INSTRUMENT PARAMETERS=
  APODIZATION=stark
  DETECTOR=INGAAS
##RESOLUTION= 16.000000
##DELTAX= -2.000000
##XUNITS= 1/CM
##YUNITS= A
##XFACTOR= 1.00
##YFACTOR= 0.00000011920928955078
##FIRSTX= 10000.00
##LASTX= 4000.00
##NPOINTS= 3001
##FIRSTY= 0.191648
##MAXY= 0.630979
##MINY= 0.163274
##XYDATA= (X++(Y..Y))
 10000.000000   1607656   1595753   1585054   1577538   1574345  
  9990.000000   1575338   1579866   1586918   1595274   1603466  
  9980.000000   1610235   1614485   1615622   1613611   1609292  
  9970.000000   1604108   1599793   1597767   1598702   1602276  
  9960.000000   1607405   1612669   1616853   1619300   1619908  
  9950.000000   1618955   1616715   1613290   1608628   1602748  
  9940.000000   1596064   1589454   1584160   1581308   1581467  
  9930.000000   1584332   1588770   1593281   1596506   1597815  
  9920.000000   1597386   1596083   1594974   1594868   1596100  
  9910.000000   1598480   1601574   1604859   1607908   1610331  
  9900.000000   1611723   1611636   1609674   1605767   1600329  
  9890.000000   1594383   1589271   1586254   1585973   1588151  
  9880.000000   1591639   1594839   1596303   1595278   1591896  
  9870.000000   1587052   1581937   1577576   1574512   1572772  
  9860.000000   1572101   1572194   1572904   1574165   1575860  
  9850.000000   1577650   1578963   1579215   1578044   1575594  
  9840.000000   1572480   1569620   1567883   1567729   1569105  
  9830.000000   1571426   1573912   1575796   1576610   1576151  
  9820.000000   1574436   1571526   1567520   1562637   1557353  
  9810.000000   1552514   1549159   1548297   1550430   1555399  
  9800.000000   1562292   1569796   1576557   1581603   1584530  
  9790.000000   1585415   1584618   1582423   1578974   1574214  
  9780.000000   1568218   1561317   1554266   1548067   1543645  
  9770.000000   1541557   1541693   1543470   1545950   1548361  
  9760.000000   1550246   1551635   1552856   1554261   1556020  
  9750.000000   1557935   1559584   1560431   1560108   1558478  
  9740.000000   1555728   1552235   1548517   1545089   1542421  
  9730.000000   1540861   1540559   1541419   1543034   1544790  
  9720.000000   1545965   1546047   1544850   1542743   1540463  
  9710.000000   1538970   1539028   1540934   1544391   1548545  
  9700.000000   1552299   1554568   1554601   1552049   1547016  
  9690.000000   1539937   1531523   1522677   1514404   1507731  
  9680.000000   1503450   1501995   1503189   1506356   1510418  
  9670.000000   1514288   1517168   1518750   1519224   1518982  
  9660.000000   1518408   1517504   1516004   1513413   1509471  
  9650.000000   1504337   1498767   1493899   1490873   1490463  
  9640.000000   1492741   1497168   1502732   1508375   1513252  
  9630.000000   1516897   1519217   1520288   1520288   1519319  
  9620.000000   1517538   1515125   1512430   1509861   1507818  
  9610.000000   1506549   1506049   1506178   1506690   1507501  
  9600.000000   1508640   1510316   1512694   1515767   1519228  
  9590.000000   1522487   1524833   1525631   1524552   1521669  
  9580.000000   1517452   1512645   1508066   1504446   1502240  
  9570.000000   1501613   1502357   1503998   1505827   1507080  
  9560.000000   1507112   1505565   1502505   1498382   1493904  
  9550.000000   1489769   1486457   1484080   1482458   1481276  
  9540.000000   1480319   1479608   1479385   1479986   1481609  
  9530.000000   1484136   1487104   1489807   1491593   1492057  
  9520.000000   1491227   1489466   1487312   1485261   1483602  
  9510.000000   1482463   1481844   1481809   1482453   1483912  
  9500.000000   1486153   1488909   1491577   1493370   1493502  
  9490.000000   1491482   1487318   1481513   1474944   1468518  
  9480.000000   1462947   1458551   1455289   1452886   1450992  
  9470.000000   1449367   1447897   1446646   1445727   1445285  
  9460.000000   1445409   1446121   1447378   1449017   1450798  
  9450.000000   1452343   1453272   1453237   1452110   1450027  
  9440.000000   1447407   1444843   1442914   1442015   1442224  
  9430.000000   1443297   1444769   1446103   1446860   1446771  
  9420.000000   1445780   1443960   1441493   1438586   1435522  
  9410.000000   1432625   1430280   1428856   1428598   1429568  
  9400.000000   1431572   1434267   1437239   1440195   1443018  
  9390.000000   1445757   1448517   1451275   1453825   1455739  
  9380.000000   1456562   1455937   1453848   1450643   1447013  
  9370.000000   1443763   1441533   1440644   1440957   1442075  
  9360.000000   1443434   1444622   1445432   1445967   1446492  
  9350.000000   1447277   1448408   1449677   1450665   1450836  
  9340.000000   1449797   1447375   1443735   1439322   1434751  
  9330.000000   1430694   1427682   1426063   1425925   1427159  
  9320.000000   1429481   1432473   1435606   1438271   1439879  
  9310.000000   1439992   1438466   1435524   1431762   1428025  
  9300.000000   1425202   1423980   1424599   1426791   1429845  
  9290.000000   1432878   1435103   1436058   1435668   1434170  
  9280.000000   1431933   1429257   1426284   1422998   1419383  
  9270.000000   1415534   1411762   1408537   1406352   1405521  
  9260.000000   1406014   1407474   1409313   1410939   1411927  
  9250.000000   1412125   1411676   1410867   1410052   1409444  
  9240.000000   1409154   1409152   1409388   1409788   1410275  
  9230.000000   1410766   1411160   1411392   1411452   1411458  
  9220.000000   1411649   1412324   1413690   1415703   1417990  
  9210.000000   1419951   1420936   1420513   1418629   1415720  
  9200.000000   1412577   1410085   1408867   1409091   1410391  
  9190.000000   1412037   1413145   1413019   1411353   1408318  
  9180.000000   1404463   1400498   1397087   1394650   1393277  
  9170.000000   1392725   1392531   1392160   1391215   1389547  
  9160.000000   1387355   1385109   1383448   1382920   1383792  
  9150.000000   1385892   1388673   1391324   1393113   1393614  
  9140.000000   1392931   1391633   1390541   1390454   1391835  
  9130.000000   1394681   1398506   1402589   1406220   1408941  
  9120.000000   1410591   1411274   1411199   1410556   1409421  
  9110.000000   1407772   1405582   1402884   1399847   1396709  
  9100.000000   1393709   1391007   1388644   1386621   1384917  
  9090.000000   1383621   1382864   1382839   1383651   1385275  
  9080.000000   1387500   1389987   1392377   1394353   1395737  
  9070.000000   1396433   1396445   1395774   1394458   1392539  
  9060.000000   1390154   1387538   1385036   1383011   1381725  
  9050.000000   1381281   1381568   1382346   1383270   1384074  
  9040.000000   1384592   1384831   1384893   1384924   1385043  
  9030.000000   1385290   1385629   1385929   1386032   1385753  
  9020.000000   1384966   1383598   1381712   1379479   1377198  
  9010.000000   1375189   1373719   1372902   1372674   1372826  
  9000.000000   1373091   1373285   1373392   1373603   1374228  
  8990.000000   1375563   1377718   1380553   1383692   1386625  
  8980.000000   1388885   1390174   1390471   1389957   1388945  
  8970.000000   1387724   1386497   1385338   1384209   1383059  
  8960.000000   1381861   1380670   1379565   1378666   1378049  
  8950.000000   1377775   1377824   1378143   1378632   1379143  
  8940.000000   1379509   1379541   1379112   1378154   1376723  
  8930.000000   1374970   1373141   1371501   1370283   1369640  
  8920.000000   1369654   1370321   1371587   1373326   1375377  
  8910.000000   1377499   1379428   1380880   1381679   1381793  
  8900.000000   1381397   1380820   1380464   1380676   1381659  
  8890.000000   1383419   1385798   1388552   1391443   1394283  
  8880.000000   1396914   1399174   1400866   1401778   1401752  
  8870.000000   1400793   1399140   1397277   1395804   1395272  
  8860.000000   1395961   1397808   1400382   1403076   1405269  
  8850.000000   1406546   1406776   1406109   1404859   1403364  
  8840.000000   1401874   1400516   1399342   1398376   1397678  
  8830.000000   1397333   1397422   1397960   1398867   1399979  
  8820.000000   1401099   1402052   1402736   1403119   1403251  
  8810.000000   1403193   1403047   1402903   1402898   1403167  
  8800.000000   1403863   1405074   1406806   1408939   1411261  
  8790.000000   1413535   1415579   1417332   1418853   1420289  
  8780.000000   1421789   1423443   1425248   1427117   1428942  
  8770.000000   1430620   1432101   1433351   1434351   1435043  
  8760.000000   1435368   1435280   1434815   1434118   1433416  
  8750.000000   1432977   1433011   1433647   1434892   1436692  
  8740.000000   1438959   1441632   1444666   1447990   1451442  
  8730.000000   1454735   1457500   1459391   1460226   1460074  
  8720.000000   1459288   1458378   1457888   1458171   1459313  
  8710.000000   1461091   1463096   1464880   1466119   1466708  
  8700.000000   1466752   1466532   1466366   1466576   1467390  
  8690.000000   1468962   1471345   1474494   1478254   1482339  
  8680.000000   1486355   1489841   1492380   1493704   1493778  
  8670.000000   1492801   1491166   1489338   1487775   1486796  
  8660.000000   1486554   1487019   1488044   1489416   1490921  
  8650.000000   1492375   1493658   1494718   1495595   1496395  
  8640.000000   1497305   1498502   1500154   1502337   1505065  
  8630.000000   1508254   1511778   1515491   1519281   1523072  
  8620.000000   1526819   1530479   1534007   1537337   1540410  
  8610.000000   1543171   1545599   1547688   1549447   1550896  
  8600.000000   1552053   1552987   1553774   1554570   1555507  
  8590.000000   1556753   1558374   1560377   1562629   1564942  
  8580.000000   1567090   1568861   1570082   1570617   1570395  
  8570.000000   1569374   1567588   1565161   1562371   1559627  
  8560.000000   1557421   1556232   1556391   1558006   1560874  
  8550.000000   1564590   1568630   1572523   1575926   1578693  
  8540.000000   1580862   1582548   1583892   1584946   1585734  
  8530.000000   1586215   1586392   1586285   1585986   1585604  
  8520.000000   1585252   1585022   1584971   1585168   1585666  
  8510.000000   1586541   1587832   1589543   1591612   1593919  
  8500.000000   1596322   1598690   1600962   1603118   1605183  
  8490.000000   1607143   1608961   1610529   1611750   1612556  
  8480.000000   1613000   1613241   1613522   1614093   1615123  
  8470.000000   1616666   1618627   1620848   1623145   1625414  
  8460.000000   1627635   1629868   1632178   1634587   1637022  
  8450.000000   1639325   1641299   1642773   1643677   1644066  
  8440.000000   1644112   1644045   1644082   1644376   1644949  
  8430.000000   1645736   1646587   1647368   1647986   1648454  
  8420.000000   1648862   1649358   1650071   1651062   1652275  
  8410.000000   1653547   1654655   1655394   1655663   1655499  
  8400.000000   1655086   1654685   1654549   1654848   1655590  
  8390.000000   1656659   1657839   1658927   1659794   1660429  
  8380.000000   1660923   1661404   1661977   1662646   1663314  
  8370.000000   1663795   1663902   1663510   1662624   1661392  
  8360.000000   1660069   1658973   1658384   1658497   1659345  
  8350.000000   1660830   1662720   1664729   1666559   1667972  
  8340.000000   1668821   1669074   1668791   1668096   1667144  
  8330.000000   1666085   1665060   1664172   1663491   1663041  
  8320.000000   1662800   1662705   1662643   1662504   1662206  
  8310.000000   1661755   1661254   1660885   1660844   1661281  
  8300.000000   1662211   1663512   1664935   1666208   1667132  
  8290.000000   1667647   1667853   1667937   1668087   1668360  
  8280.000000   1668646   1668691   1668209   1667024   1665158  
  8270.000000   1662881   1660623   1658873   1657981   1658092  
  8260.000000   1659054   1660529   1662079   1663311   1663964  
  8250.000000   1663938   1663293   1662158   1660701   1659049  
  8240.000000   1657311   1655560   1653872   1652328   1651002  
  8230.000000   1649978   1649308   1649054   1649222   1649808  
  8220.000000   1650725   1651843   1652953   1653812   1654180  
  8210.000000   1653872   1652831   1651129   1648969   1646602  
  8200.000000   1644264   1642101   1640145   1638332   1636554  
  8190.000000   1634728   1632841   1630963   1629208   1627691  
  8180.000000   1626465   1625522   1624784   1624166   1623600  
  8170.000000   1623076   1622631   1622330   1622226   1622318  
  8160.000000   1622549   1622786   1622875   1622643   1621961  
  8150.000000   1620743   1618988   1616771   1614248   1611643  
  8140.000000   1609201   1607162   1605690   1604856   1604600  
  8130.000000   1604764   1605112   1605410   1605464   1605167  
  8120.000000   1604500   1603515   1602304   1600952   1599531  
  8110.000000   1598077   1596615   1595158   1593734   1592379  
  8100.000000   1591129   1590014   1589030   1588157   1587341  
  8090.000000   1586535   1585700   1584835   1583978   1583188  
  8080.000000   1582529   1582029   1581668   1581367   1581012  
  8070.000000   1580482   1579707   1578669   1577439   1576124  
  8060.000000   1574854   1573711   1572720   1571840   1570995  
  8050.000000   1570126   1569225   1568364   1567658   1567242  
  8040.000000   1567195   1567515   1568098   1568773   1569347  
  8030.000000   1569660   1569623   1569216   1568488   1567507  
  8020.000000   1566350   1565084   1563768   1562468   1561247  
  8010.000000   1560172   1559283   1558588   1558050   1557607  
  8000.000000   1557184   1556725   1556200   1555602   1554935  
  7990.000000   1554201   1553393   1552506   1551559   1550602  
  7980.000000   1549724   1549019   1548555   1548336   1548281  
  7970.000000   1548254   1548106   1547736   1547130   1546361  
  7960.000000   1545567   1544876   1544373   1544043   1543810  
  7950.000000   1543554   1543178   1542646   1541990   1541303  
  7940.000000   1540690   1540245   1540021   1540038   1540285  
  7930.000000   1540736   1541346   1542037   1542694   1543161  
  7920.000000   1543276   1542915   1542050   1540766   1539273  
  7910.000000   1537838   1536727   1536117   1536055   1536446  
  7900.000000   1537094   1537769   1538274   1538491   1538404  
  7890.000000   1538075   1537617   1537153   1536788   1536595  
  7880.000000   1536616   1536861   1537321   1537960   1538724  
  7870.000000   1539540   1540316   1540960   1541381   1541518  
  7860.000000   1541343   1540878   1540198   1539418   1538679  
  7850.000000   1538107   1537785   1537725   1537856   1538052  
  7840.000000   1538158   1538058   1537701   1537129   1536453  
  7830.000000   1535816   1535338   1535076   1535011   1535068  
  7820.000000   1535149   1535183   1535145   1535058   1534962  
  7810.000000   1534888   1534825   1534713   1534466   1534000  
  7800.000000   1533269   1532286   1531123   1529891   1528706  
  7790.000000   1527671   1526844   1526247   1525861   1525643  
  7780.000000   1525530   1525445   1525301   1525011   1524503  
  7770.000000   1523734   1522713   1521505   1520230   1519033  
  7760.000000   1518056   1517400   1517093   1517087   1517262  
  7750.000000   1517472   1517575   1517485   1517187   1516738  
  7740.000000   1516241   1515793   1515448   1515185   1514919  
  7730.000000   1514529   1513916   1513045   1511976   1510846  
  7720.000000   1509826   1509061   1508615   1508451   1508449  
  7710.000000   1508454   1508338   1508044   1507599   1507096  
  7700.000000   1506646   1506336   1506199   1506215   1506330  
  7690.000000   1506486   1506652   1506810   1506964   1507092  
  7680.000000   1507153   1507076   1506791   1506260   1505505  
  7670.000000   1504616   1503737   1503029   1502621   1502584  
  7660.000000   1502896   1503460   1504124   1504720   1505104  
  7650.000000   1505184   1504947   1504435   1503751   1503006  
  7640.000000   1502310   1501727   1501290   1500978   1500762  
  7630.000000   1500607   1500506   1500480   1500569   1500811  
  7620.000000   1501216   1501764   1502400   1503061   1503702  
  7610.000000   1504299   1504869   1505424   1505975   1506482  
  7600.000000   1506892   1507123   1507134   1506935   1506615  
  7590.000000   1506325   1506243   1506535   1507292   1508527  
  7580.000000   1510160   1512058   1514063   1516026   1517828  
  7570.000000   1519380   1520631   1521546   1522131   1522409  
  7560.000000   1522451   1522348   1522228   1522209   1522401  
  7550.000000   1522872   1523641   1524681   1525929   1527309  
  7540.000000   1528748   1530194   1531622   1533031   1534440  
  7530.000000   1535866   1537324   1538802   1540278   1541713  
  7520.000000   1543085   1544385   1545647   1546920   1548268  
  7510.000000   1549726   1551297   1552927   1554539   1556040  
  7500.000000   1557377   1558553   1559642   1560765   1562058  
  7490.000000   1563625   1565522   1567729   1570173   1572739  
  7480.000000   1575314   1577798   1580131   1582283   1584265  
  7470.000000   1586107   1587877   1589646   1591503   1593514  
  7460.000000   1595728   1598142   1600720   1603380   1606037  
  7450.000000   1608614   1611074   1613417   1615687   1617936  
  7440.000000   1620227   1622594   1625049   1627581   1630171  
  7430.000000   1632801   1635468   1638185   1640975   1643860  
  7420.000000   1646845   1649911   1653002   1656041   1658938  
  7410.000000   1661620   1664051   1666246   1668277   1670239  
  7400.000000   1672234   1674324   1676521   1678776   1681013  
  7390.000000   1683162   1685199   1687167   1689157   1691292  
  7380.000000   1693666   1696322   1699219   1702257   1705314  
  7370.000000   1708283   1711107   1713772   1716308   1718749  
  7360.000000   1721120   1723414   1725618   1727713   1729707  
  7350.000000   1731639   1733574   1735590   1737747   1740088  
  7340.000000   1742613   1745314   1748159   1751129   1754185  
  7330.000000   1757290   1760384   1763392   1766227   1768810  
  7320.000000   1771091   1773052   1774716   1776136   1777384  
  7310.000000   1778538   1779661   1780805   1781992   1783242  
  7300.000000   1784549   1785917   1787338   1788810   1790316  
  7290.000000   1791830   1793310   1794703   1795954   1797029  
  7280.000000   1797927   1798690   1799407   1800187   1801135  
  7270.000000   1802316   1803740   1805351   1807053   1808738  
  7260.000000   1810325   1811773   1813099   1814340   1815556  
  7250.000000   1816779   1818036   1819322   1820651   1822030  
  7240.000000   1823506   1825117   1826911   1828899   1831078  
  7230.000000   1833407   1835859   1838393   1841008   1843695  
  7220.000000   1846469   1849317   1852246   1855238   1858312  
  7210.000000   1861480   1864790   1868260   1871906   1875687  
  7200.000000   1879551   1883420   1887260   1891067   1894907  
  7190.000000   1898861   1903021   1907417   1912031   1916768  
  7180.000000   1921521   1926181   1930713   1935128   1939503  
  7170.000000   1943910   1948421   1953042   1957762   1962528  
  7160.000000   1967325   1972145   1977040   1982064   1987294  
  7150.000000   1992766   1998509   2004503   2010726   2017118  
  7140.000000   2023643   2030236   2036869   2043497   2050125  
  7130.000000   2056756   2063447   2070240   2077206   2084363  
  7120.000000   2091722   2099232   2106848   2114505   2122184  
  7110.000000   2129877   2137620   2145440   2153369   2161401  
  7100.000000   2169525   2177698   2185898   2194090   2202267  
  7090.000000   2210414   2218528   2226602   2234647   2242686  
  7080.000000   2250767   2258945   2267273   2275770   2284417  
  7070.000000   2293155   2301906   2310594   2319176   2327643  
  7060.000000   2336017   2344322   2352580   2360787   2368931  
  7050.000000   2377000   2384996   2392947   2400889   2408864  
  7040.000000   2416885   2424948   2433022   2441077   2449082  
  7030.000000   2457030   2464917   2472748   2480509   2488186  
  7020.000000   2495749   2503191   2510507   2517721   2524851  
  7010.000000   2531920   2538915   2545821   2552604   2559251  
  7000.000000   2565747   2572114   2578350   2584466   2590428  
  6990.000000   2596219   2601813   2607240   2612547   2617831  
  6980.000000   2623158   2628571   2634027   2639440   2644682  
  6970.000000   2649659   2654317   2658687   2662834   2666861  
  6960.000000   2670828   2674775   2678684   2682543   2686328  
  6950.000000   2690054   2693730   2697375   2700960   2704441  
  6940.000000   2707741   2710814   2713644   2716283   2718809  
  6930.000000   2721322   2723878   2726501   2729150   2731778  
  6920.000000   2734327   2736781   2739140   2741431   2743660  
  6910.000000   2745825   2747892   2749840   2751651   2753352  
  6900.000000   2754982   2756600   2758241   2759922   2761627  
  6890.000000   2763335   2765026   2766703   2768371   2770038  
  6880.000000   2771688   2773288   2774792   2776168   2777412  
  6870.000000   2778563   2779679   2780822   2782020   2783267  
  6860.000000   2784521   2785732   2786863   2787914   2788906  
  6850.000000   2789881   2790863   2791863   2792868   2793865  
  6840.000000   2794852   2795847   2796871   2797936   2799021  
  6830.000000   2800072   2801017   2801801   2802407   2802878  
  6820.000000   2803297   2803766   2804355   2805096   2805958  
  6810.000000   2806887   2807814   2808695   2809499   2810220  
  6800.000000   2810843   2811352   2811716   2811924   2811981  
  6790.000000   2811931   2811828   2811728   2811646   2811563  
  6780.000000   2811416   2811147   2810712   2810129   2809449  
  6770.000000   2808753   2808105   2807534   2807019   2806513  
  6760.000000   2805959   2805330   2804628   2803888   2803153  
  6750.000000   2802463   2801834   2801270   2800763   2800307  
  6740.000000   2799893   2799511   2799132   2798717   2798218  
  6730.000000   2797601   2796857   2796015   2795121   2794224  
  6720.000000   2793349   2792487   2791599   2790651   2789625  
  6710.000000   2788551   2787485   2786496   2785624   2784865  
  6700.000000   2784157   2783414   2782553   2781529   2780351  
  6690.000000   2779074   2777773   2776514   2775331   2774227  
  6680.000000   2773174   2772144   2771109   2770058   2768980  
  6670.000000   2767866   2766696   2765448   2764097   2762638  
  6660.000000   2761076   2759436   2757749   2756051   2754371  
  6650.000000   2752741   2751184   2749726   2748369   2747104  
  6640.000000   2745888   2744661   2743357   2741930   2740365  
  6630.000000   2738692   2736966   2735249   2733576   2731945  
  6620.000000   2730314   2728626   2726830   2724914   2722900  
  6610.000000   2720846   2718816   2716857   2714985   2713185  
  6600.000000   2711419   2709651   2707856   2706031   2704186  
  6590.000000   2702341   2700520   2698743   2697026   2695380  
  6580.000000   2693808   2692298   2690829   2689365   2687874  
  6570.000000   2686335   2684751   2683148   2681571   2680060  
  6560.000000   2678642   2677316   2676058   2674831   2673604  
  6550.000000   2672361   2671108   2669856   2668618   2667392  
  6540.000000   2666166   2664918   2663635   2662312   2660963  
  6530.000000   2659604   2658257   2656933   2655640   2654386  
  6520.000000   2653186   2652067   2651053   2650158   2649372  
  6510.000000   2648652   2647941   2647172   2646306   2645339  
  6500.000000   2644305   2643265   2642281   2641394   2640613  
  6490.000000   2639916   2639261   2638606   2637922   2637199  
  6480.000000   2636444   2635674   2634903   2634142   2633395  
  6470.000000   2632662   2631942   2631230   2630516   2629786  
  6460.000000   2629025   2628221   2627374   2626494   2625605  
  6450.000000   2624733   2623901   2623118   2622385   2621692  
  6440.000000   2621031   2620394   2619782   2619195   2618635  
  6430.000000   2618099   2617581   2617075   2616584   2616115  
  6420.000000   2615680   2615290   2614948   2614644   2614359  
  6410.000000   2614071   2613764   2613434   2613088   2612738  
  6400.000000   2612399   2612077   2611774   2611482   2611196  
  6390.000000   2610908   2610617   2610320   2610016   2609699  
  6380.000000   2609364   2609008   2608633   2608246   2607859  
  6370.000000   2607484   2607131   2606805   2606508   2606243  
  6360.000000   2606009   2605809   2605636   2605478   2605315  
  6350.000000   2605125   2604888   2604592   2604234   2603820  
  6340.000000   2603356   2602850   2602302   2601722   2601117  
  6330.000000   2600514   2599931   2599394   2598899   2598426  
  6320.000000   2597923   2597337   2596620   2595762   2594783  
  6310.000000   2593737   2592679   2591651   2590650   2589648  
  6300.000000   2588586   2587422   2586128   2584726   2583254  
  6290.000000   2581773   2580318   2578914   2577548   2576201  
  6280.000000   2574844   2573461   2572035   2570561   2569025  
  6270.000000   2567415   2565717   2563933   2562079   2560196  
  6260.000000   2558328   2556516   2554773   2553090   2551429  
  6250.000000   2549750   2548020   2546228   2544377   2542487  
  6240.000000   2540570   2538632   2536667   2534668   2532636  
  6230.000000   2530585   2528537   2526514   2524525   2522561  
  6220.000000   2520597   2518605   2516565   2514482   2512377  
  6210.000000   2510290   2508257   2506303   2504426   2502606  
  6200.000000   2500807   2498990   2497121   2495179   2493160  
  6190.000000   2491074   2488944   2486804   2484691   2482639  
  6180.000000   2480670   2478791   2476989   2475238   2473505  
  6170.000000   2471766   2470005   2468221   2466425   2464627  
  6160.000000   2462840   2461070   2459324   2457606   2455924  
  6150.000000   2454279   2452672   2451086   2449502   2447896  
  6140.000000   2446253   2444580   2442903   2441262   2439695  
  6130.000000   2438221   2436834   2435501   2434181   2432836  
  6120.000000   2431452   2430039   2428630   2427259   2425952  
  6110.000000   2424715   2423539   2422404   2421297   2420210  
  6100.000000   2419155   2418141   2417183   2416278   2415418  
  6090.000000   2414583   2413759   2412935   2412117   2411314  
  6080.000000   2410552   2409849   2409233   2408718   2408321  
  6070.000000   2408037   2407858   2407751   2407686   2407622  
  6060.000000   2407540   2407432   2407323   2407240   2407225  
  6050.000000   2407297   2407466   2407711   2408009   2408330  
  6040.000000   2408667   2409017   2409399   2409830   2410327  
  6030.000000   2410892   2411527   2412224   2412985   2413806  
  6020.000000   2414691   2415634   2416625   2417646   2418683  
  6010.000000   2419723   2420770   2421827   2422906   2424001  
  6000.000000   2425105   2426191   2427245   2428254   2429235  
  5990.000000   2430211   2431224   2432298   2433454   2434685  
  5980.000000   2435985   2437340   2438757   2440245   2441831  
  5970.000000   2443526   2445334   2447233   2449204   2451218  
  5960.000000   2453276   2455385   2457574   2459858   2462243  
  5950.000000   2464700   2467188   2469655   2472071   2474426  
  5940.000000   2476747   2479076   2481464   2483940   2486513  
  5930.000000   2489162   2491849   2494534   2497179   2499761  
  5920.000000   2502267   2504691   2507031   2509288   2511463  
  5910.000000   2513559   2515582   2517542   2519450   2521323  
  5900.000000   2523182   2525054   2526965   2528945   2531008  
  5890.000000   2533159   2535381   2537648   2539929   2542201  
  5880.000000   2544453   2546688   2548913   2551129   2553327  
  5870.000000   2555481   2557569   2559570   2561487   2563339  
  5860.000000   2565165   2567003   2568883   2570819   2572815  
  5850.000000   2574871   2576995   2579202   2581516   2583951  
  5840.000000   2586508   2589160   2591867   2594577   2597252  
  5830.000000   2599869   2602430   2604952   2607455   2609952  
  5820.000000   2612445   2614925   2617378   2619791   2622150  
  5810.000000   2624448   2626663   2628785   2630784   2632663  
  5800.000000   2634412   2636068   2637651   2639209   2640750  
  5790.000000   2642284   2643768   2645163   2646393   2647404  
  5780.000000   2648124   2648515   2648535   2648183   2647473  
  5770.000000   2646466   2645243   2643918   2642591   2641355  
  5760.000000   2640251   2639293   2638449   2637690   2636985  
  5750.000000   2636330   2635736   2635226   2634813   2634489  
  5740.000000   2634235   2634016   2633816   2633623   2633457  
  5730.000000   2633340   2633303   2633356   2633508   2633743  
  5720.000000   2634057   2634435   2634879   2635380   2635933  
  5710.000000   2636512   2637095   2637654   2638181   2638682  
  5700.000000   2639183   2639713   2640300   2640955   2641669  
  5690.000000   2642428   2643209   2644005   2644806   2645613  
  5680.000000   2646414   2647193   2647911   2648537   2649032  
  5670.000000   2649379   2649566   2649596   2649467   2649186  
  5660.000000   2648746   2648163   2647452   2646655   2645812  
  5650.000000   2644973   2644158   2643378   2642612   2641839  
  5640.000000   2641034   2640198   2639338   2638480   2637641  
  5630.000000   2636832   2636047   2635280   2634524   2633787  
  5620.000000   2633084   2632434   2631845   2631311   2630804  
  5610.000000   2630289   2629730   2629108   2628421   2627680  
  5600.000000   2626902   2626100   2625275   2624423   2623540  
  5590.000000   2622630   2621701   2620772   2619852   2618948  
  5580.000000   2618050   2617147   2616225   2615279   2614311  
  5570.000000   2613329   2612334   2611325   2610289   2609215  
  5560.000000   2608092   2606925   2605726   2604519   2603325  
  5550.000000   2602158   2601023   2599918   2598835   2597769  
  5540.000000   2596713   2595662   2594602   2593520   2592401  
  5530.000000   2591237   2590032   2588806   2587583   2586388  
  5520.000000   2585233   2584115   2583014   2581909   2580782  
  5510.000000   2579626   2578446   2577257   2576069   2574891  
  5500.000000   2573723   2572565   2571417   2570280   2569156  
  5490.000000   2568039   2566912   2565752   2564531   2563231  
  5480.000000   2561847   2560396   2558899   2557383   2555857  
  5470.000000   2554322   2552762   2551166   2549527   2547854  
  5460.000000   2546161   2544461   2542748   2541010   2539217  
  5450.000000   2537349   2535401   2533392   2531358   2529341  
  5440.000000   2527374   2525465   2523612   2521800   2520024  
  5430.000000   2518281   2516587   2514944   2513359   2511815  
  5420.000000   2510305   2508817   2507376   2506007   2504764  
  5410.000000   2503674   2502759   2501995   2501361   2500818  
  5400.000000   2500369   2500013   2499793   2499722   2499824  
  5390.000000   2500072   2500452   2500919   2501483   2502147  
  5380.000000   2502967   2503966   2505186   2506598   2508190  
  5370.000000   2509895   2511709   2513598   2515614   2517767  
  5360.000000   2520131   2522706   2525550   2528642   2532043  
  5350.000000   2535751   2539850   2544345   2549308   2554703  
  5340.000000   2560562   2566813   2573493   2580547   2588041  
  5330.000000   2595936   2604299   2613074   2622318   2631976  
  5320.000000   2642137   2652789   2664070   2675987   2688673  
  5310.000000   2702089   2716313   2731248   2746939   2763295  
  5300.000000   2780390   2798182   2816795   2836227   2856617  
  5290.000000   2877942   2900276   2923511   2947609   2972382  
  5280.000000   2997761   3023610   3049960   3076813   3104297  
  5270.000000   3132452   3161318   3190783   3220683   3250778  
  5260.000000   3280860   3310801   3340555   3370170   3399673  
  5250.000000   3429084   3458276   3487114   3515334   3542807  
  5240.000000   3569367   3595079   3619952   3644176   3667777  
  5230.000000   3690879   3713377   3735255   3756306   3776491  
  5220.000000   3795660   3813896   3831181   3847711   3863526  
  5210.000000   3878798   3893478   3907604   3920996   3933625  
  5200.000000   3945322   3956150   3966073   3975265   3983745  
  5190.000000   3991663   3998967   4005711   4011778   4017207  
  5180.000000   4021916   4025996   4029418   4032281   4034535  
  5170.000000   4036239   4037322   4037847   4037781   4037227  
  5160.000000   4036181   4034735   4032850   4030564   4027811  
  5150.000000   4024633   4021007   4017024   4012705   4008145  
  5140.000000   4003341   3998338   3993098   3987647   3981958  
  5130.000000   3976079   3970010   3963799   3957438   3950951  
  5120.000000   3944320   3937574   3930717   3923798   3916832  
  5110.000000   3909847   3902824   3895750   3888586   3881324  
  5100.000000   3873966   3866556   3859136   3851762   3844456  
  5090.000000   3837226   3830043   3822883   3815711   3808522  
  5080.000000   3801312   3794101   3786892   3779693   3772489  
  5070.000000   3765270   3758014   3750715   3743365   3735971  
  5060.000000   3728529   3721046   3713513   3705932   3698295  
  5050.000000   3690608   3682871   3675096   3667283   3659440  
  5040.000000   3651568   3643674   3635768   3627862   3619976  
  5030.000000   3612122   3604315   3596561   3588866   3581233  
  5020.000000   3573676   3566203   3558840   3551596   3544496  
  5010.000000   3537538   3530736   3524078   3517579   3511226  
  5000.000000   3505043   3499022   3493190   3487537   3482091  
  4990.000000   3476837   3471805   3466983   3462408   3458064  
  4980.000000   3453984   3450144   3446572   3443240   3440185  
  4970.000000   3437391   3434912   3432739   3430925   3429446  
  4960.000000   3428336   3427554   3427126   3427013   3427255  
  4950.000000   3427827   3428779   3430084   3431781   3433826  
  4940.000000   3436242   3438979   3442061   3445447   3449172  
  4930.000000   3453201   3457566   3462228   3467213   3472477  
  4920.000000   3478043   3483869   3489974   3496318   3502915  
  4910.000000   3509724   3516758   3523985   3531420   3539044  
  4900.000000   3546867   3554868   3563045   3571370   3579832  
  4890.000000   3588400   3597061   3605787   3614554   3623328  
  4880.000000   3632072   3640749   3649324   3657774   3666077  
  4870.000000   3674231   3682222   3690052   3697705   3705180  
  4860.000000   3712455   3719539   3726416   3733108   3739611  
  4850.000000   3745954   3752134   3758182   3764088   3769880  
  4840.000000   3775539   3781084   3786489   3791764   3796884  
  4830.000000   3801857   3806663   3811316   3815797   3820116  
  4820.000000   3824250   3828206   3831966   3835551   3838965  
  4810.000000   3842247   3845419   3848520   3851560   3854554  
  4800.000000   3857487   3860358   3863144   3865850   3868467  
  4790.000000   3871013   3873490   3875918   3878297   3880641  
  4780.000000   3882942   3885207   3887420   3889577   3891652  
  4770.000000   3893635   3895491   3897217   3898790   3900223  
  4760.000000   3901510   3902675   3903715   3904645   3905450  
  4750.000000   3906131   3906657   3907027   3907207   3907204  
  4740.000000   3907000   3906616   3906053   3905348   3904509  
  4730.000000   3903569   3902523   3901380   3900108   3898696  
  4720.000000   3897109   3895344   3893397   3891298   3889074  
  4710.000000   3886777   3884442   3882107   3879791   3877515  
  4700.000000   3875280   3873100   3870976   3868915   3866914  
  4690.000000   3864971   3863070   3861195   3859325   3857440  
  4680.000000   3855528   3853575   3851581   3849538   3847452  
  4670.000000   3845316   3843139   3840920   3838676   3836421  
  4660.000000   3834191   3832017   3829953   3828037   3826321  
  4650.000000   3824831   3823590   3822591   3821822   3821245  
  4640.000000   3820829   3820529   3820321   3820177   3820089  
  4630.000000   3820040   3820028   3820035   3820055   3820069  
  4620.000000   3820073   3820052   3820004   3819918   3819785  
  4610.000000   3819589   3819320   3818973   3818556   3818097  
  4600.000000   3817628   3817195   3816829   3816553   3816361  
  4590.000000   3816240   3816152   3816067   3815951   3815786  
  4580.000000   3815555   3815257   3814886   3814445   3813935  
  4570.000000   3813364   3812734   3812058   3811337   3810575  
  4560.000000   3809762   3808893   3807950   3806931   3805827  
  4550.000000   3804642   3803374   3802025   3800591   3799070  
  4540.000000   3797467   3795792   3794076   3792347   3790650  
  4530.000000   3789008   3787450   3785974   3784594   3783297  
  4520.000000   3782111   3781036   3780128   3779399   3778911  
  4510.000000   3778663   3778717   3779065   3779780   3780865  
  4500.000000   3782414   3784430   3787000   3790101   3793797  
  4490.000000   3798038   3802880   3808280   3814306   3820931  
  4480.000000   3828224   3836151   3844758   3853985   3863851  
  4470.000000   3874276   3885258   3896712   3908620   3920889  
  4460.000000   3933492   3946336   3959388   3972561   3985817  
  4450.000000   3999077   4012297   4025417   4038409   4051257  
  4440.000000   4063965   4076567   4089086   4101569   4114012  
  4430.000000   4126435   4138786   4151055   4163161   4175094  
  4420.000000   4186765   4198175   4209226   4219912   4230115  
  4410.000000   4239808   4248855   4257222   4264781   4271521  
  4400.000000   4277353   4282311   4286362   4289589   4292007  
  4390.000000   4293731   4294810   4295372   4295480   4295259  
  4380.000000   4294781   4294158   4293468   4292815   4292281  
  4370.000000   4291962   4291940   4292287   4293069   4294325  
  4360.000000   4296095   4298382   4301190   4304488   4308244  
  4350.000000   4312404   4316912   4321721   4326792   4332112  
  4340.000000   4337670   4343453   4349402   4355398   4361231  
  4330.000000   4366621   4371236   4374767   4376978   4377792  
  4320.000000   4377296   4375762   4373559   4371128   4368832  
  4310.000000   4366969   4365659   4364936   4364692   4364816  
  4300.000000   4365149   4365593   4366053   4366482   4366839  
  4290.000000   4367093   4367229   4367233   4367122   4366925  
  4280.000000   4366696   4366497   4366383   4366415   4366623  
  4270.000000   4367042   4367664   4368476   4369402   4370339  
  4260.000000   4371118   4371551   4371437   4370624   4369023  
  4250.000000   4366662   4363660   4360229   4356610   4353049  
  4240.000000   4349728   4346770   4344194   4341973   4340013  
  4230.000000   4338221   4336491   4334741   4332908   4330942  
  4220.000000   4328825   4326544   4324131   4321614   4319068  
  4210.000000   4316555   4314168   4311962   4310011   4308343  
  4200.000000   4306998   4305975   4305292   4304920   4304854  
  4190.000000   4305035   4305439   4305987   4306663   4307407  
  4180.000000   4308246   4309164   4310236   4311483   4313010  
  4170.000000   4314853   4317121   4319843   4323110   4326917  
  4160.000000   4331311   4336237   4341699   4347607   4353964  
  4150.000000   4360697   4367847   4375381   4383369   4391791  
  4140.000000   4400715   4410099   4419989   4430326   4441144  
  4130.000000   4452386   4464090   4476212   4488793   4501798  
  4120.000000   4515266   4529159   4543506   4558264   4573448  
  4110.000000   4589010   4604960   4621248   4637874   4654785  
  4100.000000   4671965   4689353   4706920   4724611   4742406  
  4090.000000   4760277   4778222   4796243   4814350   4832562  
  4080.000000   4850887   4869351   4887941   4906664   4925464  
  4070.000000   4944302   4963070   4981702   5000077   5018164  
  4060.000000   5035883   5053257   5070234   5086852   5103038  
  4050.000000   5118822   5134115   5148966   5163300   5177184  
  4040.000000   5190527   5203369   5215562   5227107   5237836  
  4030.000000   5247766   5256760   5264866   5271977   5278132  
  4020.000000   5283194   5287217   5290153   5292098   5292998  
  4010.000000   5293034   5292303   5290865   5288496   5285315  
  4000.000000   5281729  
##END= 
