##TITLE= Sample 031 By ssteindl date Dienstag, November 20 2018
##JCAMP-DX= 4.24
##DATA TYPE= INFRARED SPECTRUM
##ORIGIN= Exported PE Spectrum Data File
##OWNER= Sandra Steindl
##DATE= 18/11/20
##TIME= 16:41:15.00
##SPECTROMETER/DATA SYSTEM= PERKIN-ELMER Frontier FT-IR/NIR IR
##INSTRUMENT PARAMETERS=
  APODIZATION=stark
  DETECTOR=INGAAS
##RESOLUTION= 16.000000
##DELTAX= -2.000000
##XUNITS= 1/CM
##YUNITS= A
##XFACTOR= 1.00
##YFACTOR= 0.00000011920928955078
##FIRSTX= 10000.00
##LASTX= 4000.00
##NPOINTS= 3001
##FIRSTY= 0.222875
##MAXY= 0.612571
##MINY= 0.189545
##XYDATA= (X++(Y..Y))
 10000.000000   1869613   1865676   1862049   1859180   1857282  
  9990.000000   1856337   1856255   1856868   1857789   1858407  
  9980.000000   1858092   1856319   1852970   1848333   1843186  
  9970.000000   1838421   1834775   1832465   1831145   1830050  
  9960.000000   1828420   1825896   1822796   1820025   1818723  
  9950.000000   1819726   1823160   1828312   1833879   1838463  
  9940.000000   1841062   1841453   1840143   1838173   1836612  
  9930.000000   1836253   1837368   1839759   1842913   1846137  
  9920.000000   1848691   1849790   1848675   1844718   1837627  
  9910.000000   1827705   1815957   1804026   1793811   1786940  
  9900.000000   1784276   1785609   1789797   1795125   1799929  
  9890.000000   1803040   1804056   1803262   1801375   1799218  
  9880.000000   1797514   1796828   1797604   1800198   1804816  
  9870.000000   1811367   1819324   1827695   1835194   1840542  
  9860.000000   1842837   1841785   1837744   1831525   1824082  
  9850.000000   1816232   1808513   1801305   1794956   1790007  
  9840.000000   1787031   1786526   1788474   1792273   1796690  
  9830.000000   1800289   1801829   1800700   1797075   1791750  
  9820.000000   1785852   1780370   1775980   1772882   1771023  
  9810.000000   1770182   1770170   1770772   1771708   1772534  
  9800.000000   1772698   1771702   1769369   1765998   1762406  
  9790.000000   1759625   1758591   1759696   1762712   1766833  
  9780.000000   1771073   1774614   1777100   1778678   1779821  
  9770.000000   1781064   1782746   1784934   1787458   1790099  
  9760.000000   1792644   1795006   1797065   1798706   1799699  
  9750.000000   1799873   1799160   1797738   1795946   1794127  
  9740.000000   1792380   1790382   1787452   1782782   1775909  
  9730.000000   1767014   1757103   1747718   1740486   1736519  
  9720.000000   1736037   1738340   1742121   1746034   1749201  
  9710.000000   1751513   1753554   1756236   1760298   1765933  
  9700.000000   1772679   1779592   1785650   1790070   1792566  
  9690.000000   1793277   1792614   1791019   1788784   1786073  
  9680.000000   1782936   1779473   1775845   1772278   1768949  
  9670.000000   1765917   1763053   1760144   1756960   1753438  
  9660.000000   1749709   1746115   1743101   1741088   1740338  
  9650.000000   1740902   1742578   1745001   1747716   1750311  
  9640.000000   1752513   1754204   1755456   1756390   1757147  
  9630.000000   1757702   1757876   1757299   1755576   1752446  
  9620.000000   1747961   1742590   1737126   1732547   1729681  
  9610.000000   1729014   1730466   1733444   1736960   1739931  
  9600.000000   1741463   1741066   1738773   1735040   1730633  
  9590.000000   1726363   1722949   1720830   1720136   1720670  
  9580.000000   1721989   1723552   1724860   1725624   1725817  
  9570.000000   1725671   1725550   1725767   1726442   1727387  
  9560.000000   1728192   1728348   1727493   1725569   1722891  
  9550.000000   1720079   1717819   1716680   1716877   1718261  
  9540.000000   1720363   1722560   1724280   1725107   1724878  
  9530.000000   1723611   1721467   1718657   1715442   1712128  
  9520.000000   1709107   1706814   1705674   1705955   1707694  
  9510.000000   1710629   1714249   1717924   1721045   1723209  
  9500.000000   1724273   1724385   1723891   1723250   1722912  
  9490.000000   1723224   1724365   1726298   1728756   1731304  
  9480.000000   1733371   1734432   1734063   1732130   1728779  
  9470.000000   1724494   1719941   1715844   1712733   1710812  
  9460.000000   1709854   1709302   1708435   1706637   1703613  
  9450.000000   1699495   1694820   1690331   1686718   1684350  
  9440.000000   1683146   1682598   1682049   1680950   1679202  
  9430.000000   1677129   1675426   1674809   1675713   1678074  
  9420.000000   1681260   1684323   1686346   1686880   1686159  
  9410.000000   1685017   1684533   1685557   1688318   1692276  
  9400.000000   1696267   1698877   1698954   1695984   1690326  
  9390.000000   1683025   1675484   1668970   1664284   1661632  
  9380.000000   1660705   1660906   1661572   1662203   1662541  
  9370.000000   1662618   1662640   1662906   1663679   1665125  
  9360.000000   1667288   1670019   1673036   1675874   1678060  
  9350.000000   1679180   1679074   1677871   1675982   1673974  
  9340.000000   1672375   1671532   1671503   1672082   1672897  
  9330.000000   1673583   1673897   1673796   1673375   1672798  
  9320.000000   1672190   1671603   1671025   1670432   1669842  
  9310.000000   1669330   1669004   1668949   1669170   1669580  
  9300.000000   1670033   1670384   1670558   1670562   1670462  
  9290.000000   1670342   1670210   1670014   1669608   1668893  
  9280.000000   1667867   1666727   1665813   1665464   1665887  
  9270.000000   1666999   1668449   1669604   1669744   1668228  
  9260.000000   1664789   1659630   1653452   1647281   1642226  
  9250.000000   1639244   1638860   1641110   1645453   1651010  
  9240.000000   1656745   1661770   1665523   1667846   1668973  
  9230.000000   1669286   1669144   1668657   1667677   1665857  
  9220.000000   1662882   1658697   1653689   1648678   1644704  
  9210.000000   1642699   1643103   1645705   1649568   1653312  
  9200.000000   1655459   1655026   1651845   1646663   1640860  
  9190.000000   1636082   1633726   1634499   1638157   1643589  
  9180.000000   1649221   1653443   1655088   1653620   1649277  
  9170.000000   1642891   1635664   1628774   1623121   1619186  
  9160.000000   1617058   1616528   1617185   1618612   1620453  
  9150.000000   1622567   1624918   1627583   1630560   1633709  
  9140.000000   1636694   1638974   1640018   1639350   1636874  
  9130.000000   1632819   1627840   1622735   1618268   1614938  
  9120.000000   1612849   1611808   1611411   1611362   1611554  
  9110.000000   1612202   1613652   1616208   1619869   1624257  
  9100.000000   1628665   1632226   1634206   1634210   1632362  
  9090.000000   1629186   1625461   1621948   1619234   1617592  
  9080.000000   1616967   1617070   1617493   1617844   1617796  
  9070.000000   1617165   1615914   1614196   1612312   1610661  
  9060.000000   1609625   1609469   1610262   1611834   1613824  
  9050.000000   1615798   1617395   1618444   1618990   1619240  
  9040.000000   1619455   1619805   1620303   1620770   1620936  
  9030.000000   1620518   1619361   1617465   1615031   1612388  
  9020.000000   1609935   1608045   1606975   1606818   1607455  
  9010.000000   1608611   1609903   1610980   1611626   1611856  
  9000.000000   1611925   1612227   1613131   1614782   1617013  
  8990.000000   1619333   1621119   1621811   1621166   1619356  
  8980.000000   1616925   1614600   1613009   1612502   1613035  
  8970.000000   1614270   1615720   1616976   1617801   1618169  
  8960.000000   1618143   1617809   1617193   1616288   1615116  
  8950.000000   1613782   1612527   1611603   1611190   1611236  
  8940.000000   1611463   1611454   1610828   1609439   1607475  
  8930.000000   1605431   1603943   1603539   1604454   1606524  
  8920.000000   1609274   1612079   1614369   1615800   1616293  
  8910.000000   1616034   1615351   1614637   1614244   1614430  
  8900.000000   1615313   1616827   1618716   1620529   1621721  
  8890.000000   1621784   1620424   1617676   1613938   1609885  
  8880.000000   1606284   1603749   1602575   1602687   1603734  
  8870.000000   1605252   1606818   1608186   1609292   1610222  
  8860.000000   1611102   1612031   1613066   1614207   1615454  
  8850.000000   1616771   1618110   1619340   1620281   1620728  
  8840.000000   1620546   1619760   1618557   1617286   1616308  
  8830.000000   1615911   1616177   1616981   1618051   1619081  
  8820.000000   1619843   1620236   1620266   1619977   1619394  
  8810.000000   1618516   1617361   1616028   1614751   1613844  
  8800.000000   1613623   1614253   1615677   1617593   1619559  
  8790.000000   1621146   1622095   1622389   1622222   1621897  
  8780.000000   1621698   1621799   1622264   1623071   1624182  
  8770.000000   1625563   1627161   1628863   1630452   1631640  
  8760.000000   1632167   1631919   1631036   1629881   1628933  
  8750.000000   1628588   1629001   1630010   1631212   1632151  
  8740.000000   1632534   1632365   1631956   1631758   1632185  
  8730.000000   1633387   1635223   1637279   1639081   1640249  
  8720.000000   1640665   1640483   1640060   1639842   1640223  
  8710.000000   1641497   1643790   1647093   1651239   1655909  
  8700.000000   1660639   1664869   1668076   1669874   1670171  
  8690.000000   1669175   1667369   1665342   1663615   1662502  
  8680.000000   1662068   1662217   1662796   1663743   1665081  
  8670.000000   1666912   1669265   1672025   1674868   1677362  
  8660.000000   1679109   1679907   1679847   1679277   1678687  
  8650.000000   1678528   1679066   1680328   1682140   1684228  
  8640.000000   1686325   1688225   1689807   1690970   1691617  
  8630.000000   1691652   1691042   1689872   1688374   1686909  
  8620.000000   1685886   1685659   1686429   1688201   1690794  
  8610.000000   1693916   1697232   1700423   1703209   1705358  
  8600.000000   1706716   1707214   1706934   1706104   1705103  
  8590.000000   1704348   1704186   1704783   1706071   1707803  
  8580.000000   1709640   1711310   1712678   1713797   1714828  
  8570.000000   1715932   1717162   1718419   1719504   1720208  
  8560.000000   1720434   1720251   1719891   1719671   1719875  
  8550.000000   1720677   1722089   1723989   1726157   1728352  
  8540.000000   1730359   1731997   1733139   1733716   1733753  
  8530.000000   1733366   1732766   1732220   1731985   1732236  
  8520.000000   1733002   1734177   1735569   1736985   1738286  
  8510.000000   1739436   1740464   1741416   1742291   1743023  
  8500.000000   1743521   1743722   1743659   1743479   1743409  
  8490.000000   1743672   1744387   1745525   1746910   1748306  
  8480.000000   1749490   1750348   1750891   1751225   1751485  
  8470.000000   1751769   1752120   1752525   1752971   1753453  
  8460.000000   1753996   1754617   1755297   1755971   1756543  
  8450.000000   1756949   1757208   1757458   1757905   1758749  
  8440.000000   1760061   1761746   1763527   1765064   1766071  
  8430.000000   1766436   1766284   1765903   1765642   1765720  
  8420.000000   1766142   1766680   1766988   1766736   1765768  
  8410.000000   1764189   1762354   1760760   1759868   1759985  
  8400.000000   1761175   1763266   1765903   1768645   1771091  
  8390.000000   1772932   1774018   1774340   1774049   1773394  
  8380.000000   1772694   1772247   1772265   1772837   1773900  
  8370.000000   1775310   1776864   1778420   1779900   1781336  
  8360.000000   1782775   1784227   1785586   1786621   1787050  
  8350.000000   1786625   1785261   1783082   1780415   1777726  
  8340.000000   1775470   1774002   1773446   1773748   1774696  
  8330.000000   1776028   1777483   1778832   1779890   1780493  
  8320.000000   1780512   1779839   1778462   1776489   1774200  
  8310.000000   1771985   1770268   1769395   1769536   1770656  
  8300.000000   1772504   1774711   1776865   1778636   1779820  
  8290.000000   1780351   1780280   1779709   1778771   1777579  
  8280.000000   1776247   1774860   1773513   1772292   1771274  
  8270.000000   1770516   1770038   1769843   1769900   1770179  
  8260.000000   1770625   1771178   1771753   1772256   1772589  
  8250.000000   1772675   1772491   1772073   1771531   1771003  
  8240.000000   1770623   1770468   1770529   1770714   1770858  
  8230.000000   1770795   1770393   1769630   1768584   1767427  
  8220.000000   1766355   1765529   1765014   1764753   1764574  
  8210.000000   1764241   1763529   1762314   1760615   1758611  
  8200.000000   1756582   1754842   1753632   1753066   1753076  
  8190.000000   1753449   1753877   1754059   1753779   1752967  
  8180.000000   1751695   1750154   1748571   1747151   1746019  
  8170.000000   1745192   1744590   1744064   1743447   1742596  
  8160.000000   1741437   1739974   1738280   1736485   1734729  
  8150.000000   1733138   1731788   1730697   1729823   1729097  
  8140.000000   1728448   1727841   1727276   1726781   1726382  
  8130.000000   1726063   1725758   1725335   1724641   1723531  
  8120.000000   1721934   1719875   1717493   1715011   1712678  
  8110.000000   1710732   1709323   1708518   1708274   1708480  
  8100.000000   1708963   1709535   1710004   1710191   1709954  
  8090.000000   1709186   1707861   1706011   1703765   1701294  
  8080.000000   1698813   1696510   1694526   1692925   1691691  
  8070.000000   1690769   1690077   1689569   1689224   1689066  
  8060.000000   1689120   1689391   1689829   1690308   1690660  
  8050.000000   1690687   1690238   1689228   1687696   1685771  
  8040.000000   1683673   1681633   1679852   1678450   1677446  
  8030.000000   1676777   1676321   1675964   1675621   1675273  
  8020.000000   1674943   1674681   1674522   1674456   1674434  
  8010.000000   1674364   1674162   1673759   1673148   1672362  
  8000.000000   1671476   1670567   1669695   1668894   1668157  
  7990.000000   1667472   1666821   1666214   1665671   1665233  
  7980.000000   1664930   1664769   1664723   1664721   1664666  
  7970.000000   1664450   1663981   1663208   1662143   1660866  
  7960.000000   1659520   1658283   1657327   1656770   1656634  
  7950.000000   1656832   1657183   1657460   1657462   1657069  
  7940.000000   1656292   1655256   1654166   1653225   1652568  
  7930.000000   1652220   1652094   1652040   1651911   1651623  
  7920.000000   1651193   1650718   1650331   1650131   1650136  
  7910.000000   1650259   1650349   1650228   1649780   1648971  
  7900.000000   1647882   1646664   1645505   1644568   1643961  
  7890.000000   1643726   1643844   1644265   1644920   1645745  
  7880.000000   1646667   1647619   1648525   1649314   1649921  
  7870.000000   1650301   1650435   1650314   1649949   1649347  
  7860.000000   1648523   1647503   1646328   1645069   1643802  
  7850.000000   1642621   1641588   1640748   1640105   1639638  
  7840.000000   1639311   1639082   1638910   1638746   1638532  
  7830.000000   1638201   1637695   1636989   1636120   1635195  
  7820.000000   1634376   1633832   1633679   1633934   1634489  
  7810.000000   1635143   1635650   1635811   1635526   1634825  
  7800.000000   1633848   1632786   1631812   1631020   1630408  
  7790.000000   1629890   1629351   1628695   1627886   1626964  
  7780.000000   1626014   1625150   1624460   1623996   1623751  
  7770.000000   1623677   1623689   1623694   1623600   1623333  
  7760.000000   1622845   1622123   1621190   1620100   1618928  
  7750.000000   1617750   1616630   1615604   1614686   1613865  
  7740.000000   1613124   1612455   1611850   1611321   1610869  
  7730.000000   1610493   1610173   1609883   1609588   1609260  
  7720.000000   1608888   1608468   1608016   1607540   1607044  
  7710.000000   1606507   1605892   1605148   1604232   1603121  
  7700.000000   1601836   1600446   1599067   1597837   1596887  
  7690.000000   1596297   1596081   1596168   1596433   1596728  
  7680.000000   1596938   1597008   1596959   1596863   1596811  
  7670.000000   1596863   1597037   1597296   1597584   1597843  
  7660.000000   1598047   1598194   1598300   1598368   1598373  
  7650.000000   1598265   1597989   1597520   1596879   1596145  
  7640.000000   1595422   1594818   1594391   1594152   1594055  
  7630.000000   1594033   1594027   1593999   1593939   1593840  
  7620.000000   1593685   1593429   1593028   1592456   1591746  
  7610.000000   1590997   1590367   1590018   1590073   1590568  
  7600.000000   1591436   1592537   1593701   1594777   1595670  
  7590.000000   1596350   1596849   1597214   1597505   1597751  
  7580.000000   1597969   1598148   1598282   1598355   1598368  
  7570.000000   1598327   1598262   1598222   1598276   1598502  
  7560.000000   1598954   1599652   1600556   1601578   1602613  
  7550.000000   1603568   1604412   1605173   1605937   1606787  
  7540.000000   1607775   1608871   1609993   1611016   1611852  
  7530.000000   1612466   1612920   1613324   1613809   1614457  
  7520.000000   1615284   1616236   1617232   1618205   1619151  
  7510.000000   1620118   1621198   1622459   1623927   1625545  
  7500.000000   1627209   1628787   1630188   1631380   1632415  
  7490.000000   1633389   1634435   1635660   1637144   1638913  
  7480.000000   1640949   1643198   1645591   1648044   1650480  
  7470.000000   1652823   1655027   1657067   1658960   1660740  
  7460.000000   1662469   1664199   1665981   1667833   1669759  
  7450.000000   1671745   1673777   1675840   1677932   1680059  
  7440.000000   1682234   1684470   1686773   1689145   1691570  
  7430.000000   1694026   1696484   1698920   1701325   1703706  
  7420.000000   1706086   1708486   1710907   1713312   1715632  
  7410.000000   1717778   1719678   1721310   1722726   1724049  
  7400.000000   1725436   1727033   1728923   1731105   1733492  
  7390.000000   1735958   1738376   1740669   1742819   1744863  
  7380.000000   1746862   1748869   1750912   1752991   1755099  
  7370.000000   1757228   1759386   1761583   1763818   1766067  
  7360.000000   1768288   1770429   1772461   1774386   1776243  
  7350.000000   1778086   1779962   1781890   1783858   1785839  
  7340.000000   1787823   1789834   1791925   1794157   1796552  
  7330.000000   1799082   1801651   1804139   1806435   1808492  
  7320.000000   1810333   1812046   1813723   1815427   1817149  
  7310.000000   1818832   1820387   1821760   1822946   1824010  
  7300.000000   1825040   1826116   1827257   1828426   1829537  
  7290.000000   1830508   1831291   1831902   1832402   1832879  
  7280.000000   1833401   1834011   1834713   1835501   1836359  
  7270.000000   1837288   1838289   1839355   1840459   1841545  
  7260.000000   1842554   1843432   1844168   1844778   1845325  
  7250.000000   1845870   1846484   1847199   1848054   1849061  
  7240.000000   1850256   1851660   1853299   1855159   1857206  
  7230.000000   1859367   1861585   1863813   1866068   1868383  
  7220.000000   1870828   1873424   1876172   1878990   1881799  
  7210.000000   1884506   1887095   1889597   1892125   1894793  
  7200.000000   1897711   1900919   1904417   1908149   1912075  
  7190.000000   1916149   1920370   1924722   1929197   1933738  
  7180.000000   1938288   1942767   1947155   1951456   1955751  
  7170.000000   1960119   1964658   1969393   1974321   1979366  
  7160.000000   1984468   1989562   1994653   1999769   2004987  
  7150.000000   2010365   2015965   2021793   2027846   2034072  
  7140.000000   2040437   2046882   2053384   2059908   2066464  
  7130.000000   2073051   2079715   2086480   2093399   2100485  
  7120.000000   2107755   2115174   2122722   2130356   2138070  
  7110.000000   2145857   2153741   2161727   2169828   2178021  
  7100.000000   2186289   2194596   2202934   2211292   2219677  
  7090.000000   2228076   2236479   2244852   2253181   2261464  
  7080.000000   2269743   2278076   2286532   2295145   2303902  
  7070.000000   2312730   2321528   2330200   2338698   2347032  
  7060.000000   2355265   2363480   2371747   2380096   2388514  
  7050.000000   2396965   2405411   2413839   2422250   2430663  
  7040.000000   2439070   2447453   2455756   2463937   2471959  
  7030.000000   2479829   2487574   2495234   2502824   2510334  
  7020.000000   2517716   2524928   2531938   2538767   2545456  
  7010.000000   2552082   2558684   2565289   2571866   2578387  
  7000.000000   2584808   2591134   2597372   2603559   2609691  
  6990.000000   2615746   2621650   2627336   2632742   2637872  
  6980.000000   2642760   2647493   2652135   2656736   2661281  
  6970.000000   2665745   2670070   2674254   2678303   2682290  
  6960.000000   2686263   2690282   2694337   2698398   2702376  
  6950.000000   2706194   2709765   2713039   2715977   2718580  
  6940.000000   2720857   2722862   2724656   2726344   2728017  
  6930.000000   2729778   2731673   2733730   2735907   2738160  
  6920.000000   2740410   2742613   2744720   2746709   2748551  
  6910.000000   2750223   2751695   2752953   2754002   2754884  
  6900.000000   2755658   2756400   2757166   2757991   2758872  
  6890.000000   2759789   2760713   2761636   2762561   2763516  
  6880.000000   2764522   2765596   2766733   2767916   2769117  
  6870.000000   2770321   2771516   2772705   2773895   2775088  
  6860.000000   2776283   2777471   2778639   2779772   2780845  
  6850.000000   2781834   2782707   2783437   2784006   2784424  
  6840.000000   2784722   2784960   2785195   2785477   2785821  
  6830.000000   2786222   2786643   2787058   2787443   2787808  
  6820.000000   2788168   2788547   2788947   2789348   2789702  
  6810.000000   2789960   2790074   2790024   2789814   2789471  
  6800.000000   2789034   2788548   2788049   2787577   2787153  
  6790.000000   2786801   2786512   2786273   2786041   2785775  
  6780.000000   2785433   2785000   2784479   2783896   2783273  
  6770.000000   2782624   2781936   2781184   2780342   2779408  
  6760.000000   2778404   2777386   2776407   2775509   2774690  
  6750.000000   2773920   2773135   2772287   2771340   2770304  
  6740.000000   2769202   2768071   2766926   2765763   2764549  
  6730.000000   2763251   2761843   2760325   2758717   2757060  
  6720.000000   2755391   2753751   2752162   2750647   2749215  
  6710.000000   2747879   2746631   2745460   2744336   2743230  
  6700.000000   2742114   2740976   2739813   2738621   2737379  
  6690.000000   2736047   2734565   2732882   2730982   2728906  
  6680.000000   2726746   2724633   2722674   2720937   2719402  
  6670.000000   2717995   2716599   2715119   2713504   2711766  
  6660.000000   2709947   2708101   2706246   2704364   2702411  
  6650.000000   2700350   2698176   2695932   2693687   2691513  
  6640.000000   2689446   2687481   2685567   2683651   2681693  
  6630.000000   2679692   2677674   2675676   2673714   2671774  
  6620.000000   2669809   2667772   2665633   2663405   2661131  
  6610.000000   2658871   2656669   2654535   2652440   2650336  
  6600.000000   2648176   2645943   2643649   2641331   2639031  
  6590.000000   2636775   2634577   2632430   2630327   2628263  
  6580.000000   2626235   2624239   2622262   2620276   2618257  
  6570.000000   2616193   2614102   2612032   2610049   2608215  
  6560.000000   2606560   2605071   2603696   2602356   2600984  
  6550.000000   2599530   2597987   2596365   2594694   2592988  
  6540.000000   2591261   2589513   2587754   2586002   2584290  
  6530.000000   2582653   2581120   2579702   2578395   2577182  
  6520.000000   2576045   2574970   2573950   2572975   2572026  
  6510.000000   2571071   2570077   2569014   2567875   2566676  
  6500.000000   2565455   2564256   2563109   2562025   2560991  
  6490.000000   2559979   2558962   2557925   2556866   2555793  
  6480.000000   2554711   2553623   2552521   2551400   2550262  
  6470.000000   2549126   2548020   2546974   2546004   2545109  
  6460.000000   2544265   2543436   2542586   2541690   2540743  
  6450.000000   2539754   2538744   2537738   2536758   2535822  
  6440.000000   2534939   2534112   2533331   2532574   2531813  
  6430.000000   2531017   2530164   2529253   2528300   2527341  
  6420.000000   2526411   2525534   2524713   2523929   2523153  
  6410.000000   2522357   2521526   2520656   2519758   2518839  
  6400.000000   2517906   2516956   2515990   2515018   2514061  
  6390.000000   2513154   2512327   2511600   2510971   2510421  
  6380.000000   2509921   2509452   2509000   2508567   2508147  
  6370.000000   2507724   2507253   2506678   2505944   2505022  
  6360.000000   2503925   2502712   2501461   2500252   2499131  
  6350.000000   2498108   2497155   2496230   2495296   2494342  
  6340.000000   2493374   2492411   2491462   2490524   2489574  
  6330.000000   2488588   2487552   2486474   2485380   2484313  
  6320.000000   2483303   2482366   2481487   2480634   2479759  
  6310.000000   2478822   2477784   2476627   2475333   2473900  
  6300.000000   2472328   2470632   2468831   2466963   2465058  
  6290.000000   2463153   2461257   2459379   2457500   2455610  
  6280.000000   2453681   2451703   2449654   2447531   2445322  
  6270.000000   2443030   2440662   2438244   2435803   2433369  
  6260.000000   2430953   2428550   2426130   2423664   2421125  
  6250.000000   2418516   2415863   2413215   2410612   2408078  
  6240.000000   2405599   2403137   2400642   2398080   2395442  
  6230.000000   2392751   2390042   2387348   2384679   2382027  
  6220.000000   2379367   2376682   2373969   2371252   2368562  
  6210.000000   2365929   2363361   2360844   2358343   2355828  
  6200.000000   2353275   2350687   2348080   2345475   2342886  
  6190.000000   2340315   2337759   2335214   2332688   2330198  
  6180.000000   2327762   2325384   2323050   2320727   2318382  
  6170.000000   2315995   2313581   2311180   2308852   2306646  
  6160.000000   2304581   2302632   2300742   2298839   2296869  
  6150.000000   2294806   2292668   2290496   2288346   2286258  
  6140.000000   2284256   2282337   2280492   2278702   2276956  
  6130.000000   2275244   2273562   2271906   2270273   2268663  
  6120.000000   2267082   2265534   2264032   2262573   2261151  
  6110.000000   2259746   2258342   2256921   2255490   2254062  
  6100.000000   2252667   2251330   2250071   2248890   2247785  
  6090.000000   2246743   2245764   2244846   2244004   2243239  
  6080.000000   2242558   2241948   2241398   2240890   2240423  
  6070.000000   2239993   2239612   2239275   2238987   2238730  
  6060.000000   2238497   2238276   2238078   2237912   2237807  
  6050.000000   2237774   2237824   2237946   2238131   2238362  
  6040.000000   2238644   2238981   2239396   2239900   2240504  
  6030.000000   2241192   2241954   2242765   2243621   2244521  
  6020.000000   2245481   2246511   2247621   2248800   2250032  
  6010.000000   2251285   2252534   2253754   2254929   2256047  
  6000.000000   2257104   2258100   2259051   2259979   2260920  
  5990.000000   2261908   2262972   2264115   2265324   2266563  
  5980.000000   2267797   2269000   2270174   2271341   2272547  
  5970.000000   2273831   2275225   2276734   2278352   2280058  
  5960.000000   2281837   2283673   2285559   2287478   2289411  
  5950.000000   2291318   2293169   2294936   2296622   2298247  
  5940.000000   2299861   2301512   2303240   2305061   2306968  
  5930.000000   2308936   2310938   2312952   2314972   2316998  
  5920.000000   2319033   2321074   2323110   2325118   2327081  
  5910.000000   2328982   2330819   2332594   2334324   2336026  
  5900.000000   2337727   2339454   2341237   2343105   2345078  
  5890.000000   2347162   2349346   2351602   2353896   2356194  
  5880.000000   2358474   2360721   2362933   2365101   2367219  
  5870.000000   2369266   2371231   2373100   2374886   2376606  
  5860.000000   2378299   2379997   2381730   2383513   2385361  
  5850.000000   2387282   2389299   2391436   2393720   2396166  
  5840.000000   2398768   2401496   2404301   2407135   2409956  
  5830.000000   2412742   2415489   2418203   2420884   2423525  
  5820.000000   2426097   2428572   2430916   2433110   2435139  
  5810.000000   2437012   2438726   2440299   2441725   2443027  
  5800.000000   2444205   2445296   2446303   2447259   2448152  
  5790.000000   2448985   2449722   2450349   2450821   2451123  
  5780.000000   2451212   2451064   2450635   2449901   2448848  
  5770.000000   2447502   2445922   2444206   2442458   2440782  
  5760.000000   2439241   2437865   2436641   2435543   2434543  
  5750.000000   2433627   2432805   2432094   2431516   2431075  
  5740.000000   2430775   2430595   2430532   2430567   2430703  
  5730.000000   2430925   2431229   2431587   2431981   2432383  
  5720.000000   2432791   2433204   2433648   2434139   2434698  
  5710.000000   2435319   2435998   2436715   2437461   2438230  
  5700.000000   2439029   2439865   2440741   2441652   2442583  
  5690.000000   2443521   2444454   2445384   2446308   2447230  
  5680.000000   2448134   2449002   2449800   2450502   2451083  
  5670.000000   2451541   2451871   2452082   2452166   2452118  
  5660.000000   2451927   2451597   2451145   2450615   2450054  
  5650.000000   2449513   2449017   2448576   2448169   2447775  
  5640.000000   2447369   2446945   2446504   2446062   2445622  
  5630.000000   2445188   2444750   2444305   2443852   2443405  
  5620.000000   2442975   2442573   2442188   2441799   2441370  
  5610.000000   2440877   2440311   2439695   2439064   2438461  
  5600.000000   2437909   2437408   2436928   2436429   2435870  
  5590.000000   2435234   2434522   2433757   2432957   2432141  
  5580.000000   2431307   2430448   2429547   2428598   2427595  
  5570.000000   2426539   2425427   2424256   2423019   2421718  
  5560.000000   2420363   2418984   2417613   2416283   2415014  
  5550.000000   2413807   2412649   2411522   2410413   2409322  
  5540.000000   2408259   2407231   2406239   2405267   2404287  
  5530.000000   2403274   2402214   2401109   2399979   2398846  
  5520.000000   2397731   2396636   2395557   2394484   2393411  
  5510.000000   2392347   2391304   2390297   2389322   2388364  
  5500.000000   2387391   2386376   2385300   2384167   2382993  
  5490.000000   2381802   2380599   2379374   2378095   2376727  
  5480.000000   2375242   2373640   2371938   2370175   2368380  
  5470.000000   2366579   2364769   2362946   2361095   2359217  
  5460.000000   2357313   2355393   2353455   2351494   2349489  
  5450.000000   2347426   2345298   2343118   2340912   2338710  
  5440.000000   2336537   2334400   2332299   2330226   2328185  
  5430.000000   2326183   2324244   2322377   2320590   2318867  
  5420.000000   2317202   2315584   2314043   2312610   2311344  
  5410.000000   2310271   2309405   2308705   2308129   2307618  
  5400.000000   2307162   2306761   2306470   2306329   2306389  
  5390.000000   2306644   2307083   2307651   2308328   2309086  
  5380.000000   2309957   2310952   2312123   2313465   2314996  
  5370.000000   2316675   2318507   2320455   2322554   2324793  
  5360.000000   2327230   2329856   2332735   2335860   2339311  
  5350.000000   2343092   2347294   2351911   2357007   2362534  
  5340.000000   2368526   2374922   2381778   2389060   2396853  
  5330.000000   2405121   2413930   2423206   2432994   2443221  
  5320.000000   2453973   2465234   2477152   2489733   2503117  
  5310.000000   2517257   2532229   2547928   2564404   2581569  
  5300.000000   2599522   2618240   2637875   2658439   2680079  
  5290.000000   2702766   2726558   2751317   2776983   2803350  
  5280.000000   2830343   2857833   2885871   2914475   2943787  
  5270.000000   2973840   3004652   3036072   3067886   3099817  
  5260.000000   3131628   3163194   3194481   3225572   3256508  
  5250.000000   3287329   3317893   3348048   3377490   3406066  
  5240.000000   3433575   3460078   3485571   3510263   3534182  
  5230.000000   3557487   3580086   3602001   3623036   3643174  
  5220.000000   3662249   3680337   3697384   3713570   3728899  
  5210.000000   3743550   3757470   3770732   3783179   3794814  
  5200.000000   3805481   3815250   3824067   3832095   3839330  
  5190.000000   3845913   3851784   3857009   3861480   3865257  
  5180.000000   3868274   3870643   3872341   3873482   3874018  
  5170.000000   3874013   3873393   3872224   3870470   3868235  
  5160.000000   3865520   3862421   3858908   3855027   3850717  
  5150.000000   3846015   3840896   3835442   3829666   3823658  
  5140.000000   3817417   3810993   3804357   3797538   3790515  
  5130.000000   3783332   3775984   3768510   3760898   3753167  
  5120.000000   3745299   3737323   3729250   3721136   3713007  
  5110.000000   3704907   3696832   3688783   3680722   3672635  
  5100.000000   3664496   3656314   3648092   3639853   3631601  
  5090.000000   3623347   3615082   3606811   3598532   3590259  
  5080.000000   3581995   3573749   3565509   3557263   3548986  
  5070.000000   3540670   3532304   3523908   3515498   3507107  
  5060.000000   3498753   3490449   3482192   3473973   3465773  
  5050.000000   3457576   3449366   3441132   3432866   3424562  
  5040.000000   3416224   3407856   3399476   3391100   3382755  
  5030.000000   3374460   3366241   3358115   3350108   3342234  
  5020.000000   3334520   3326971   3319605   3312404   3305368  
  5010.000000   3298461   3291683   3285009   3278467   3272062  
  5000.000000   3265849   3259842   3254096   3248608   3243409  
  4990.000000   3238476   3233833   3229449   3225352   3221511  
  4980.000000   3217955   3214648   3211623   3208851   3206385  
  4970.000000   3204219   3202426   3201010   3200034   3199475  
  4960.000000   3199363   3199640   3200317   3201332   3202711  
  4950.000000   3204411   3206474   3208866   3211623   3214705  
  4940.000000   3218139   3221879   3225954   3230324   3235017  
  4930.000000   3239990   3245265   3250798   3256609   3262666  
  4920.000000   3268999   3275583   3282450   3289569   3296951  
  4910.000000   3304552   3312371   3320364   3328534   3336854  
  4900.000000   3345328   3353936   3362676   3371521   3380459  
  4890.000000   3389461   3398510   3407578   3416641   3425673  
  4880.000000   3434648   3443548   3452358   3461078   3469701  
  4870.000000   3478234   3486660   3494975   3503145   3511161  
  4860.000000   3518991   3526643   3534103   3541391   3548496  
  4850.000000   3555436   3562192   3568779   3575185   3581441  
  4840.000000   3587549   3593549   3599438   3605239   3610924  
  4830.000000   3616492   3621902   3627151   3632206   3637078  
  4820.000000   3641746   3646225   3650499   3654584   3658468  
  4810.000000   3662171   3665684   3669029   3672196   3675205  
  4800.000000   3678047   3680752   3683330   3685830   3688276  
  4790.000000   3690713   3693144   3695581   3697983   3700328  
  4780.000000   3702559   3704656   3706582   3708342   3709926  
  4770.000000   3711354   3712620   3713747   3714728   3715589  
  4760.000000   3716325   3716963   3717494   3717934   3718253  
  4750.000000   3718448   3718474   3718323   3717954   3717364  
  4740.000000   3716528   3715456   3714134   3712589   3710820  
  4730.000000   3708864   3706733   3704471   3702089   3699618  
  4720.000000   3697055   3694414   3691679   3688858   3685938  
  4710.000000   3682937   3679854   3676713   3673523   3670308  
  4700.000000   3667075   3663843   3660618   3657411   3654222  
  4690.000000   3651057   3647907   3644769   3641636   3638502  
  4680.000000   3635363   3632214   3629053   3625869   3622656  
  4670.000000   3619397   3616090   3612732   3609341   3605942  
  4660.000000   3602584   3599308   3596167   3593191   3590405  
  4650.000000   3587808   3585395   3583140   3581030   3579039  
  4640.000000   3577164   3575394   3573741   3572200   3570783  
  4630.000000   3569476   3568272   3567140   3566055   3564979  
  4620.000000   3563892   3562770   3561618   3560438   3559252  
  4610.000000   3558073   3556925   3555816   3554761   3553763  
  4600.000000   3552832   3551971   3551185   3550467   3549808  
  4590.000000   3549191   3548595   3548003   3547400   3546784  
  4580.000000   3546155   3545521   3544887   3544256   3543621  
  4570.000000   3542974   3542295   3541565   3540760   3539862  
  4560.000000   3538855   3537736   3536511   3535199   3533828  
  4550.000000   3532428   3531023   3529624   3528231   3526829  
  4540.000000   3525408   3523956   3522487   3521015   3519587  
  4530.000000   3518232   3517005   3515922   3515030   3514327  
  4520.000000   3513856   3513608   3513631   3513907   3514485  
  4510.000000   3515339   3516528   3518038   3519960   3522304  
  4500.000000   3525182   3528602   3532658   3537322   3542652  
  4490.000000   3548595   3555201   3562423   3570325   3578868  
  4480.000000   3588110   3597992   3608542   3619675   3631396  
  4470.000000   3643618   3656340   3669480   3683029   3696902  
  4460.000000   3711075   3725465   3740038   3754723   3769483  
  4450.000000   3784257   3799001   3813660   3828187   3842550  
  4440.000000   3856716   3870691   3884461   3898057   3911458  
  4430.000000   3924692   3937703   3950504   3963009   3975224  
  4420.000000   3987047   3998487   4009430   4019884   4029720  
  4410.000000   4038935   4047390   4055072   4061845   4067707  
  4400.000000   4072552   4076415   4079247   4081133   4082092  
  4390.000000   4082254   4081687   4080541   4078905   4076924  
  4380.000000   4074689   4072329   4069942   4067650   4065566  
  4370.000000   4063811   4062501   4061732   4061598   4062139  
  4360.000000   4063395   4065344   4067972   4071210   4075006  
  4350.000000   4079276   4083965   4089008   4094378   4100048  
  4340.000000   4106014   4112245   4118690   4125226   4131674  
  4330.000000   4137785   4143288   4147924   4151507   4153977  
  4320.000000   4155407   4156022   4156114   4156038   4156072  
  4310.000000   4156450   4157244   4158469   4160011   4161773  
  4300.000000   4163602   4165418   4167124   4168684   4170049  
  4290.000000   4171194   4172090   4172729   4173111   4173268  
  4280.000000   4173239   4173093   4172877   4172670   4172503  
  4270.000000   4172437   4172472   4172621   4172826   4173017  
  4260.000000   4173056   4172804   4172105   4170853   4168989  
  4250.000000   4166548   4163630   4160399   4157032   4153709  
  4240.000000   4150555   4147662   4145055   4142735   4140664  
  4230.000000   4138804   4137101   4135501   4133943   4132363  
  4220.000000   4130712   4128944   4127056   4125056   4123001  
  4210.000000   4120940   4118954   4117089   4115399   4113902  
  4200.000000   4112623   4111552   4110700   4110044   4109586  
  4190.000000   4109288   4109151   4109128   4109238   4109447  
  4180.000000   4109805   4110300   4111005   4111925   4113150  
  4170.000000   4114704   4116699   4119179   4122265   4125986  
  4160.000000   4130428   4135557   4141393   4147840   4154879  
  4150.000000   4162400   4170398   4178785   4187587   4196742  
  4140.000000   4206299   4216214   4226552   4237282   4248472  
  4130.000000   4260093   4272195   4284730   4297724   4311122  
  4120.000000   4324945   4339158   4353802   4368864   4384388  
  4110.000000   4400353   4416774   4433592   4450777   4468243  
  4100.000000   4485940   4503790   4521765   4539828   4557992  
  4090.000000   4576260   4594659   4613199   4631887   4650722  
  4080.000000   4669686   4688780   4707982   4727297   4746689  
  4070.000000   4766145   4785584   4804967   4824188   4843217  
  4060.000000   4861966   4880443   4898574   4916376   4933755  
  4050.000000   4950720   4967168   4983133   4998529   5013420  
  4040.000000   5027706   5041427   5054430   5066722   5078133  
  4030.000000   5088695   5098278   5106949   5114608   5121301  
  4020.000000   5126883   5131396   5134772   5137097   5138314  
  4010.000000   5138614   5138113   5136898   5134770   5131860  
  4000.000000   5128558  
##END= 
