##TITLE= Sample 020 By ssteindl date Dienstag, November 20 2018
##JCAMP-DX= 4.24
##DATA TYPE= INFRARED SPECTRUM
##ORIGIN= Exported PE Spectrum Data File
##OWNER= Sandra Steindl
##DATE= 18/11/20
##TIME= 16:28:20.00
##SPECTROMETER/DATA SYSTEM= PERKIN-ELMER Frontier FT-IR/NIR IR
##INSTRUMENT PARAMETERS=
  APODIZATION=stark
  DETECTOR=INGAAS
##RESOLUTION= 16.000000
##DELTAX= -2.000000
##XUNITS= 1/CM
##YUNITS= A
##XFACTOR= 1.00
##YFACTOR= 0.00000011920928955078
##FIRSTX= 10000.00
##LASTX= 4000.00
##NPOINTS= 3001
##FIRSTY= 0.237994
##MAXY= 0.657369
##MINY= 0.199320
##XYDATA= (X++(Y..Y))
 10000.000000   1996440   2001098   2005046   2007144   2006730  
  9990.000000   2003712   1998215   1990680   1982008   1973445  
  9980.000000   1966096   1960733   1957640   1956687   1957299  
  9970.000000   1958753   1960279   1961273   1961343   1960359  
  9960.000000   1958518   1956210   1954045   1952540   1952059  
  9950.000000   1952510   1953458   1954165   1954012   1952760  
  9940.000000   1950809   1949117   1948861   1950999   1955744  
  9930.000000   1962509   1969942   1976531   1981052   1983099  
  9920.000000   1983126   1982217   1981565   1981890   1983160  
  9910.000000   1984533   1984774   1982673   1977557   1969510  
  9900.000000   1959323   1948327   1937943   1929530   1924020  
  9890.000000   1921976   1923395   1927810   1934238   1941335  
  9880.000000   1947589   1951635   1952574   1950179   1944993  
  9870.000000   1938075   1930817   1924398   1919683   1916898  
  9860.000000   1915824   1915852   1916244   1916344   1915671  
  9850.000000   1914116   1911869   1909492   1907729   1907373  
  9840.000000   1909003   1912738   1918134   1924176   1929555  
  9830.000000   1933018   1933766   1931727   1927541   1922375  
  9820.000000   1917485   1913855   1911915   1911499   1911993  
  9810.000000   1912555   1912390   1910903   1907841   1903259  
  9800.000000   1897523   1891194   1884978   1879575   1875605  
  9790.000000   1873451   1873216   1874700   1877485   1881118  
  9780.000000   1885204   1889561   1894123   1898885   1903745  
  9770.000000   1908432   1912550   1915647   1917389   1917599  
  9760.000000   1916313   1913703   1910050   1905665   1900913  
  9750.000000   1896171   1891830   1888207   1885417   1883325  
  9740.000000   1881492   1879385   1876566   1873008   1869188  
  9730.000000   1866056   1864703   1865950   1869959   1876088  
  9720.000000   1883066   1889393   1893851   1895844   1895535  
  9710.000000   1893648   1891152   1888856   1887203   1886187  
  9700.000000   1885549   1884916   1884045   1882808   1881189  
  9690.000000   1879185   1876743   1873872   1870648   1867421  
  9680.000000   1864684   1863074   1863069   1864896   1868360  
  9670.000000   1872942   1877913   1882505   1886078   1888132  
  9660.000000   1888389   1886696   1883102   1877819   1871272  
  9650.000000   1864115   1857110   1851082   1846687   1844359  
  9640.000000   1844190   1845977   1849221   1853206   1857032  
  9630.000000   1859714   1860344   1858281   1853435   1846353  
  9620.000000   1838277   1830832   1825657   1823873   1825718  
  9610.000000   1830438   1836518   1842197   1846046   1847377  
  9600.000000   1846382   1843882   1840958   1838445   1836740  
  9590.000000   1835703   1834969   1834163   1833228   1832416  
  9580.000000   1832187   1832985   1834947   1837946   1841501  
  9570.000000   1845130   1848380   1851063   1853176   1854852  
  9560.000000   1856238   1857373   1858161   1858340   1857554  
  9550.000000   1855427   1851691   1846280   1839416   1831641  
  9540.000000   1823731   1816609   1811077   1807686   1806496  
  9530.000000   1807134   1808837   1810753   1812163   1812685  
  9520.000000   1812335   1811378   1810221   1809118   1808201  
  9510.000000   1807340   1806395   1805206   1803780   1802252  
  9500.000000   1800846   1799839   1799440   1799853   1801195  
  9490.000000   1803563   1806938   1811129   1815704   1819976  
  9480.000000   1823149   1824485   1823561   1820386   1815453  
  9470.000000   1809604   1803830   1799022   1795773   1794294  
  9460.000000   1794410   1795689   1797518   1799287   1800440  
  9450.000000   1800609   1799645   1797671   1795080   1792432  
  9440.000000   1790357   1789305   1789455   1790584   1792206  
  9430.000000   1793718   1794658   1794852   1794461   1793892  
  9420.000000   1793617   1793984   1795073   1796698   1798479  
  9410.000000   1800039   1801116   1801679   1801862   1801943  
  9400.000000   1802161   1802706   1803561   1804574   1805402  
  9390.000000   1805641   1804889   1802857   1799472   1794876  
  9380.000000   1789451   1783681   1778066   1772924   1768339  
  9370.000000   1764151   1760109   1756071   1752141   1748740  
  9360.000000   1746454   1745891   1747398   1750938   1755998  
  9350.000000   1761735   1767197   1771585   1774454   1775722  
  9340.000000   1775640   1774578   1772948   1771017   1768943  
  9330.000000   1766711   1764260   1761469   1758272   1754640  
  9320.000000   1750638   1746448   1742355   1738775   1736114  
  9310.000000   1734736   1734786   1736209   1738722   1741945  
  9300.000000   1745486   1749051   1752468   1755633   1758456  
  9290.000000   1760765   1762346   1762941   1762408   1760739  
  9280.000000   1758166   1755057   1751854   1748917   1746431  
  9270.000000   1744416   1742750   1741307   1739993   1738844  
  9260.000000   1737974   1737546   1737671   1738382   1739595  
  9250.000000   1741138   1742764   1744228   1745328   1745975  
  9240.000000   1746187   1746095   1745893   1745799   1745979  
  9230.000000   1746435   1746985   1747247   1746792   1745233  
  9220.000000   1742371   1738253   1733196   1727751   1722581  
  9210.000000   1718326   1715456   1714225   1714635   1716456  
  9200.000000   1719236   1722399   1725350   1727598   1728855  
  9190.000000   1729090   1728558   1727693   1726989   1726783  
  9180.000000   1727180   1728014   1728966   1729672   1729862  
  9170.000000   1729446   1728518   1727297   1725995   1724732  
  9160.000000   1723514   1722268   1720938   1719528   1718131  
  9150.000000   1716880   1715885   1715217   1714882   1714898  
  9140.000000   1715293   1716173   1717647   1719779   1722470  
  9130.000000   1725415   1728133   1730090   1730887   1730354  
  9120.000000   1728636   1726094   1723203   1720357   1717771  
  9110.000000   1715471   1713384   1711449   1709699   1708283  
  9100.000000   1707398   1707194   1707629   1708493   1709428  
  9090.000000   1710115   1710365   1710239   1710000   1710026  
  9080.000000   1710644   1711977   1713882   1715959   1717697  
  9070.000000   1718558   1718179   1716406   1713385   1709439  
  9060.000000   1705017   1700583   1696573   1693338   1691082  
  9050.000000   1689918   1689842   1690805   1692642   1695160  
  9040.000000   1698108   1701248   1704326   1707107   1709397  
  9030.000000   1711026   1711884   1711889   1711041   1709397  
  9020.000000   1707110   1704402   1701549   1698837   1696486  
  9010.000000   1694615   1693178   1692022   1690918   1689660  
  9000.000000   1688123   1686312   1684361   1682476   1680863  
  8990.000000   1679647   1678873   1678491   1678447   1678686  
  8980.000000   1679217   1680046   1681165   1682472   1683791  
  8970.000000   1684886   1685582   1685807   1685684   1685466  
  8960.000000   1685486   1685986   1687014   1688399   1689799  
  8950.000000   1690857   1691318   1691165   1690617   1690062  
  8940.000000   1689886   1690314   1691310   1692563   1693598  
  8930.000000   1693915   1693183   1691337   1688627   1685557  
  8920.000000   1682757   1680819   1680130   1680805   1682653  
  8910.000000   1685252   1688054   1690538   1692350   1693374  
  8900.000000   1693734   1693724   1693687   1693900   1694481  
  8890.000000   1695356   1696317   1697100   1697507   1697464  
  8880.000000   1697052   1696440   1695810   1695277   1694830  
  8870.000000   1694361   1693696   1692729   1691476   1690136  
  8860.000000   1689037   1688568   1689033   1690539   1692904  
  8850.000000   1695682   1698276   1700063   1700602   1699720  
  8840.000000   1697619   1694777   1691848   1689437   1687974  
  8830.000000   1687609   1688240   1689578   1691269   1693020  
  8820.000000   1694654   1696133   1697473   1698716   1699865  
  8810.000000   1700906   1701843   1702710   1703610   1704631  
  8800.000000   1705828   1707136   1708377   1709291   1709627  
  8790.000000   1709254   1708235   1706838   1705461   1704505  
  8780.000000   1704235   1704721   1705811   1707230   1708659  
  8770.000000   1709873   1710797   1711521   1712228   1713109  
  8760.000000   1714271   1715689   1717211   1718602   1719627  
  8750.000000   1720111   1720016   1719427   1718546   1717615  
  8740.000000   1716850   1716381   1716223   1716299   1716494  
  8730.000000   1716714   1716942   1717228   1717665   1718318  
  8720.000000   1719180   1720142   1721047   1721747   1722220  
  8710.000000   1722578   1723089   1724050   1725690   1728041  
  8700.000000   1730910   1733930   1736687   1738876   1740403  
  8690.000000   1741422   1742262   1743289   1744763   1746732  
  8680.000000   1749031   1751344   1753329   1754728   1755452  
  8670.000000   1755567   1755275   1754831   1754496   1754478  
  8660.000000   1754907   1755822   1757178   1758860   1760711  
  8650.000000   1762575   1764332   1765959   1767523   1769174  
  8640.000000   1771068   1773310   1775883   1778635   1781324  
  8630.000000   1783686   1785531   1786780   1787485   1787777  
  8620.000000   1787819   1787739   1787600   1787413   1787174  
  8610.000000   1786915   1786709   1786680   1786956   1787639  
  8600.000000   1788767   1790305   1792154   1794168   1796174  
  8590.000000   1797995   1799483   1800554   1801223   1801625  
  8580.000000   1802002   1802662   1803887   1805832   1808446  
  8570.000000   1811449   1814399   1816794   1818233   1818522  
  8560.000000   1817755   1816265   1814527   1813016   1812092  
  8550.000000   1811923   1812471   1813568   1814976   1816504  
  8540.000000   1818009   1819461   1820869   1822285   1823735  
  8530.000000   1825218   1826703   1828101   1829312   1830206  
  8520.000000   1830696   1830710   1830249   1829369   1828215  
  8510.000000   1826980   1825887   1825142   1824912   1825294  
  8500.000000   1826301   1827866   1829858   1832102   1834412  
  8490.000000   1836625   1838633   1840408   1842004   1843538  
  8480.000000   1845161   1846994   1849077   1851347   1853651  
  8470.000000   1855776   1857523   1858753   1859444   1859671  
  8460.000000   1859579   1859324   1859028   1858756   1858515  
  8450.000000   1858294   1858098   1857998   1858106   1858574  
  8440.000000   1859505   1860944   1862821   1864984   1867219  
  8430.000000   1869316   1871127   1872576   1873673   1874456  
  8420.000000   1874990   1875313   1875449   1875414   1875254  
  8410.000000   1875059   1874961   1875111   1875616   1876524  
  8400.000000   1877773   1879234   1880716   1882064   1883170  
  8390.000000   1884023   1884671   1885201   1885688   1886173  
  8380.000000   1886647   1887071   1887400   1887611   1887708  
  8370.000000   1887706   1887610   1887414   1887084   1886600  
  8360.000000   1885946   1885165   1884331   1883566   1882972  
  8350.000000   1882632   1882565   1882746   1883103   1883544  
  8340.000000   1883958   1884229   1884246   1883902   1883125  
  8330.000000   1881884   1880238   1878334   1876404   1874706  
  8320.000000   1873473   1872854   1872881   1873463   1874414  
  8310.000000   1875498   1876494   1877234   1877622   1877636  
  8300.000000   1877325   1876798   1876213   1875749   1875576  
  8290.000000   1875809   1876479   1877512   1878724   1879874  
  8280.000000   1880707   1881045   1880821   1880105   1879061  
  8270.000000   1877895   1876797   1875883   1875172   1874602  
  8260.000000   1874062   1873454   1872721   1871883   1871011  
  8250.000000   1870228   1869660   1869402   1869474   1869801  
  8240.000000   1870223   1870535   1870544   1870136   1869320  
  8230.000000   1868249   1867179   1866402   1866129   1866422  
  8220.000000   1867149   1868033   1868723   1868914   1868433  
  8210.000000   1867295   1865679   1863865   1862118   1860621  
  8200.000000   1859419   1858443   1857552   1856596   1855467  
  8190.000000   1854127   1852597   1850952   1849273   1847645  
  8180.000000   1846134   1844788   1843629   1842652   1841820  
  8170.000000   1841070   1840322   1839508   1838587   1837559  
  8160.000000   1836456   1835325   1834202   1833095   1831987  
  8150.000000   1830844   1829640   1828370   1827061   1825744  
  8140.000000   1824447   1823168   1821877   1820535   1819119  
  8130.000000   1817649   1816190   1814849   1813728   1812905  
  8120.000000   1812394   1812151   1812075   1812044   1811935  
  8110.000000   1811652   1811134   1810351   1809309   1808038  
  8100.000000   1806595   1805051   1803484   1801959   1800510  
  8090.000000   1799137   1797810   1796495   1795177   1793881  
  8080.000000   1792657   1791567   1790639   1789854   1789131  
  8070.000000   1788371   1787490   1786468   1785370   1784322  
  8060.000000   1783467   1782890   1782575   1782389   1782123  
  8050.000000   1781566   1780585   1779182   1777490   1775734  
  8040.000000   1774141   1772871   1771966   1771349   1770869  
  8030.000000   1770354   1769677   1768772   1767638   1766312  
  8020.000000   1764842   1763275   1761660   1760073   1758621  
  8010.000000   1757444   1756675   1756401   1756617   1757210  
  8000.000000   1757975   1758665   1759057   1759001   1758464  
  7990.000000   1757509   1756284   1754952   1753667   1752531  
  7980.000000   1751598   1750889   1750404   1750141   1750093  
  7970.000000   1750244   1750543   1750913   1751238   1751396  
  7960.000000   1751282   1750835   1750067   1749051   1747915  
  7950.000000   1746809   1745866   1745180   1744781   1744640  
  7940.000000   1744680   1744802   1744898   1744877   1744671  
  7930.000000   1744240   1743571   1742687   1741650   1740551  
  7920.000000   1739512   1738655   1738081   1737830   1737875  
  7910.000000   1738109   1738384   1738547   1738491   1738182  
  7900.000000   1737660   1737026   1736392   1735860   1735487  
  7890.000000   1735301   1735310   1735519   1735938   1736557  
  7880.000000   1737317   1738089   1738671   1738838   1738403  
  7870.000000   1737300   1735634   1733664   1731751   1730243  
  7860.000000   1729360   1729132   1729383   1729812   1730091  
  7850.000000   1729990   1729440   1728543   1727511   1726577  
  7840.000000   1725906   1725554   1725470   1725542   1725659  
  7830.000000   1725746   1725782   1725775   1725729   1725630  
  7820.000000   1725432   1725086   1724570   1723904   1723159  
  7810.000000   1722423   1721769   1721230   1720780   1720363  
  7800.000000   1719913   1719401   1718837   1718270   1717748  
  7790.000000   1717298   1716888   1716445   1715879   1715124  
  7780.000000   1714175   1713089   1711971   1710924   1710007  
  7770.000000   1709209   1708450   1707619   1706624   1705432  
  7760.000000   1704095   1702723   1701450   1700377   1699538  
  7750.000000   1698893   1698352   1697825   1697260   1696674  
  7740.000000   1696135   1695726   1695500   1695436   1695448  
  7730.000000   1695396   1695155   1694643   1693866   1692890  
  7720.000000   1691822   1690753   1689735   1688775   1687856  
  7710.000000   1686979   1686180   1685541   1685150   1685065  
  7700.000000   1685261   1685635   1686007   1686193   1686053  
  7690.000000   1685549   1684749   1683803   1682887   1682137  
  7680.000000   1681608   1681256   1680971   1680609   1680049  
  7670.000000   1679221   1678127   1676836   1675469   1674172  
  7660.000000   1673095   1672355   1672017   1672065   1672411  
  7650.000000   1672901   1673362   1673644   1673664   1673429  
  7640.000000   1673028   1672603   1672303   1672237   1672448  
  7630.000000   1672903   1673518   1674181   1674790   1675265  
  7620.000000   1675561   1675667   1675595   1675384   1675097  
  7610.000000   1674803   1674579   1674470   1674491   1674602  
  7600.000000   1674744   1674844   1674864   1674809   1674738  
  7590.000000   1674739   1674899   1675271   1675853   1676593  
  7580.000000   1677418   1678258   1679079   1679879   1680685  
  7570.000000   1681521   1682398   1683293   1684170   1684986  
  7560.000000   1685722   1686377   1686981   1687564   1688161  
  7550.000000   1688780   1689420   1690061   1690687   1691283  
  7540.000000   1691849   1692394   1692948   1693550   1694258  
  7530.000000   1695126   1696205   1697506   1699004   1700621  
  7520.000000   1702260   1703809   1705202   1706413   1707495  
  7510.000000   1708531   1709626   1710853   1712257   1713827  
  7500.000000   1715536   1717337   1719205   1721112   1723049  
  7490.000000   1724991   1726910   1728770   1730555   1732273  
  7480.000000   1733977   1735734   1737621   1739681   1741918  
  7470.000000   1744291   1746734   1749179   1751589   1753948  
  7460.000000   1756274   1758582   1760884   1763167   1765417  
  7450.000000   1767616   1769776   1771920   1774098   1776350  
  7440.000000   1778702   1781154   1783683   1786258   1788850  
  7430.000000   1791443   1794031   1796615   1799200   1801785  
  7420.000000   1804376   1806981   1809615   1812292   1815011  
  7410.000000   1817748   1820459   1823084   1825575   1827908  
  7400.000000   1830103   1832209   1834293   1836406   1838570  
  7390.000000   1840778   1842998   1845206   1847396   1849597  
  7380.000000   1851856   1854222   1856718   1859330   1862015  
  7370.000000   1864708   1867355   1869916   1872382   1874766  
  7360.000000   1877093   1879391   1881689   1884013   1886391  
  7350.000000   1888845   1891389   1894022   1896716   1899428  
  7340.000000   1902104   1904705   1907207   1909610   1911929  
  7330.000000   1914181   1916372   1918497   1920541   1922491  
  7320.000000   1924343   1926114   1927824   1929511   1931196  
  7310.000000   1932906   1934647   1936435   1938263   1940138  
  7300.000000   1942042   1943961   1945850   1947666   1949357  
  7290.000000   1950884   1952215   1953337   1954246   1954949  
  7280.000000   1955458   1955799   1956012   1956158   1956306  
  7270.000000   1956524   1956861   1957343   1957971   1958727  
  7260.000000   1959601   1960589   1961703   1962949   1964326  
  7250.000000   1965797   1967316   1968818   1970281   1971713  
  7240.000000   1973193   1974815   1976690   1978863   1981332  
  7230.000000   1984005   1986772   1989500   1992119   1994594  
  7220.000000   1996968   1999296   2001670   2004149   2006809  
  7210.000000   2009687   2012834   2016260   2019969   2023908  
  7200.000000   2028013   2032179   2036336   2040431   2044488  
  7190.000000   2048552   2052715   2057024   2061510   2066125  
  7180.000000   2070811   2075493   2080158   2084827   2089591  
  7170.000000   2094530   2099718   2105148   2110774   2116490  
  7160.000000   2122218   2127893   2133536   2139188   2144943  
  7150.000000   2150858   2156991   2163332   2169872   2176559  
  7140.000000   2183372   2190276   2197278   2204373   2211589  
  7130.000000   2218930   2226427   2234079   2241904   2249871  
  7120.000000   2257964   2266119   2274301   2282459   2290592  
  7110.000000   2298706   2306851   2315070   2323421   2331929  
  7100.000000   2340626   2349506   2358570   2367787   2377127  
  7090.000000   2386533   2395952   2405324   2414621   2423831  
  7080.000000   2432987   2442125   2451287   2460484   2469707  
  7070.000000   2478926   2488123   2497308   2506533   2515867  
  7060.000000   2525368   2535045   2544837   2554632   2564294  
  7050.000000   2573724   2582889   2591843   2600690   2609547  
  7040.000000   2618478   2627485   2636499   2645428   2654184  
  7030.000000   2662737   2671094   2679310   2687424   2695467  
  7020.000000   2703423   2711279   2719010   2726637   2734187  
  7010.000000   2741711   2749227   2756733   2764171   2771487  
  7000.000000   2778606   2785506   2792171   2798635   2804915  
  6990.000000   2811043   2817021   2822869   2828586   2834210  
  6980.000000   2839759   2845269   2850729   2856135   2861436  
  6970.000000   2866613   2871632   2876505   2881229   2885819  
  6960.000000   2890250   2894504   2898540   2902357   2905966  
  6950.000000   2909433   2912811   2916156   2919463   2922703  
  6940.000000   2925806   2928732   2931460   2934037   2936524  
  6930.000000   2939001   2941496   2944008   2946480   2948860  
  6920.000000   2951100   2953210   2955222   2957197   2959171  
  6910.000000   2961161   2963141   2965075   2966920   2968652  
  6900.000000   2970252   2971708   2973002   2974124   2975075  
  6890.000000   2975906   2976705   2977603   2978714   2980103  
  6880.000000   2981739   2983506   2985233   2986760   2987992  
  6870.000000   2988943   2989720   2990476   2991345   2992389  
  6860.000000   2993582   2994832   2996025   2997081   2997973  
  6850.000000   2998745   2999470   3000228   3001064   3001994  
  6840.000000   3002995   3004029   3005049   3006012   3006873  
  6830.000000   3007595   3008150   3008534   3008769   3008917  
  6820.000000   3009052   3009256   3009577   3010033   3010594  
  6810.000000   3011215   3011835   3012411   3012906   3013300  
  6800.000000   3013569   3013698   3013671   3013504   3013229  
  6790.000000   3012915   3012624   3012409   3012267   3012154  
  6780.000000   3011982   3011663   3011127   3010365   3009409  
  6770.000000   3008339   3007231   3006158   3005154   3004244  
  6760.000000   3003427   3002708   3002078   3001528   3001019  
  6750.000000   3000504   2999917   2999209   2998350   2997345  
  6740.000000   2996224   2995025   2993775   2992487   2991154  
  6730.000000   2989778   2988371   2986975   2985638   2984413  
  6720.000000   2983317   2982341   2981433   2980532   2979572  
  6710.000000   2978513   2977331   2976021   2974585   2973031  
  6700.000000   2971374   2969647   2967898   2966195   2964588  
  6690.000000   2963110   2961743   2960436   2959105   2957683  
  6680.000000   2956127   2954441   2952658   2950824   2948969  
  6670.000000   2947099   2945193   2943232   2941206   2939139  
  6660.000000   2937069   2935047   2933098   2931234   2929429  
  6650.000000   2927660   2925901   2924146   2922387   2920621  
  6640.000000   2918815   2916928   2914908   2912727   2910392  
  6630.000000   2907955   2905495   2903089   2900782   2898577  
  6620.000000   2896429   2894279   2892071   2889788   2887440  
  6610.000000   2885068   2882711   2880399   2878138   2875919  
  6600.000000   2873726   2871542   2869352   2867137   2864874  
  6590.000000   2862536   2860110   2857607   2855079   2852600  
  6580.000000   2850256   2848108   2846171   2844405   2842737  
  6570.000000   2841086   2839396   2837653   2835884   2834128  
  6560.000000   2832419   2830757   2829117   2827453   2825735  
  6550.000000   2823952   2822134   2820316   2818542   2816828  
  6540.000000   2815176   2813570   2812002   2810475   2809014  
  6530.000000   2807644   2806385   2805231   2804157   2803123  
  6520.000000   2802096   2801058   2800012   2798969   2797943  
  6510.000000   2796931   2795921   2794892   2793827   2792726  
  6500.000000   2791599   2790463   2789331   2788206   2787081  
  6490.000000   2785950   2784813   2783686   2782592   2781550  
  6480.000000   2780565   2779619   2778681   2777718   2776713  
  6470.000000   2775666   2774599   2773539   2772503   2771495  
  6460.000000   2770503   2769511   2768510   2767507   2766519  
  6450.000000   2765566   2764653   2763773   2762900   2762006  
  6440.000000   2761075   2760105   2759110   2758111   2757119  
  6430.000000   2756129   2755122   2754076   2752972   2751809  
  6420.000000   2750605   2749384   2748177   2747007   2745889  
  6410.000000   2744832   2743844   2742926   2742078   2741284  
  6400.000000   2740523   2739769   2739004   2738226   2737457  
  6390.000000   2736725   2736063   2735476   2734946   2734429  
  6380.000000   2733875   2733246   2732535   2731766   2730983  
  6370.000000   2730226   2729511   2728827   2728141   2727422  
  6360.000000   2726651   2725837   2725001   2724170   2723352  
  6350.000000   2722538   2721702   2720826   2719907   2718972  
  6340.000000   2718056   2717193   2716389   2715624   2714849  
  6330.000000   2714012   2713074   2712029   2710891   2709695  
  6320.000000   2708464   2707216   2705941   2704633   2703281  
  6310.000000   2701896   2700485   2699063   2697618   2696134  
  6300.000000   2694569   2692901   2691114   2689231   2687284  
  6290.000000   2685313   2683334   2681345   2679317   2677226  
  6280.000000   2675055   2672819   2670545   2668273   2666018  
  6270.000000   2663782   2661534   2659245   2656885   2654455  
  6260.000000   2651968   2649456   2646933   2644402   2641837  
  6250.000000   2639214   2636509   2633730   2630899   2628057  
  6240.000000   2625237   2622462   2619726   2617019   2614319  
  6230.000000   2611619   2608912   2606201   2603479   2600734  
  6220.000000   2597945   2595096   2592187   2589236   2586279  
  6210.000000   2583349   2580469   2577636   2574827   2572014  
  6200.000000   2569178   2566328   2563498   2560740   2558099  
  6190.000000   2555597   2553224   2550937   2548681   2546400  
  6180.000000   2544057   2541640   2539160   2536641   2534116  
  6170.000000   2531611   2529149   2526743   2524400   2522117  
  6160.000000   2519887   2517697   2515532   2513380   2511234  
  6150.000000   2509092   2506955   2504823   2502698   2500578  
  6140.000000   2498468   2496374   2494311   2492292   2490327  
  6130.000000   2488414   2486543   2484697   2482864   2481042  
  6120.000000   2479249   2477508   2475852   2474295   2472840  
  6110.000000   2471464   2470142   2468839   2467540   2466232  
  6100.000000   2464923   2463618   2462329   2461058   2459818  
  6090.000000   2458614   2457468   2456390   2455396   2454478  
  6080.000000   2453631   2452830   2452066   2451338   2450672  
  6070.000000   2450093   2449638   2449313   2449116   2449010  
  6060.000000   2448968   2448957   2448978   2449036   2449163  
  6050.000000   2449365   2449652   2449997   2450383   2450785  
  6040.000000   2451210   2451674   2452216   2452861   2453627  
  6030.000000   2454501   2455465   2456493   2457578   2458719  
  6020.000000   2459929   2461206   2462537   2463880   2465187  
  6010.000000   2466409   2467528   2468550   2469520   2470482  
  6000.000000   2471480   2472526   2473616   2474722   2475825  
  5990.000000   2476912   2477998   2479105   2480269   2481512  
  5980.000000   2482854   2484299   2485852   2487512   2489284  
  5970.000000   2491158   2493118   2495130   2497159   2499169  
  5960.000000   2501147   2503094   2505038   2507008   2509033  
  5950.000000   2511117   2513253   2515413   2517577   2519723  
  5940.000000   2521851   2523966   2526085   2528220   2530386  
  5930.000000   2532593   2534856   2537186   2539596   2542086  
  5920.000000   2544640   2547225   2549801   2552327   2554774  
  5910.000000   2557133   2559409   2561614   2563760   2565850  
  5900.000000   2567887   2569879   2571848   2573831   2575874  
  5890.000000   2578018   2580281   2582651   2585088   2587540  
  5880.000000   2589957   2592309   2594589   2596806   2598978  
  5870.000000   2601110   2603202   2605240   2607219   2609140  
  5860.000000   2611031   2612920   2614853   2616857   2618958  
  5850.000000   2621162   2623479   2625914   2628479   2631179  
  5840.000000   2634017   2636976   2640030   2643141   2646271  
  5830.000000   2649394   2652491   2655555   2658576   2661546  
  5820.000000   2664442   2667244   2669924   2672472   2674871  
  5810.000000   2677128   2679231   2681190   2682989   2684645  
  5800.000000   2686153   2687551   2688846   2690075   2691224  
  5790.000000   2692290   2693217   2693971   2694488   2694748  
  5780.000000   2694721   2694417   2693840   2693017   2691971  
  5770.000000   2690748   2689395   2687979   2686563   2685207  
  5760.000000   2683944   2682790   2681735   2680765   2679869  
  5750.000000   2679049   2678321   2677703   2677213   2676847  
  5740.000000   2676598   2676439   2676356   2676330   2676361  
  5730.000000   2676439   2676563   2676715   2676889   2677069  
  5720.000000   2677268   2677499   2677797   2678182   2678669  
  5710.000000   2679240   2679868   2680514   2681157   2681791  
  5700.000000   2682441   2683138   2683918   2684796   2685767  
  5690.000000   2686805   2687872   2688933   2689956   2690922  
  5680.000000   2691812   2692614   2693309   2693889   2694347  
  5670.000000   2694693   2694932   2695081   2695136   2695095  
  5660.000000   2694940   2694665   2694271   2693787   2693251  
  5650.000000   2692712   2692203   2691745   2691324   2690922  
  5640.000000   2690503   2690047   2689539   2688979   2688371  
  5630.000000   2687725   2687051   2686369   2685701   2685080  
  5620.000000   2684532   2684074   2683695   2683363   2683029  
  5610.000000   2682642   2682167   2681600   2680958   2680282  
  5600.000000   2679604   2678947   2678306   2677665   2676998  
  5590.000000   2676288   2675523   2674707   2673837   2672914  
  5580.000000   2671922   2670853   2669693   2668450   2667135  
  5570.000000   2665774   2664387   2662990   2661585   2660170  
  5560.000000   2658739   2657294   2655841   2654389   2652947  
  5550.000000   2651519   2650108   2648715   2647349   2646023  
  5540.000000   2644749   2643536   2642376   2641245   2640112  
  5530.000000   2638947   2637733   2636472   2635182   2633888  
  5520.000000   2632611   2631360   2630131   2628916   2627704  
  5510.000000   2626492   2625282   2624075   2622866   2621645  
  5500.000000   2620393   2619103   2617774   2616423   2615072  
  5490.000000   2613743   2612436   2611140   2609816   2608436  
  5480.000000   2606970   2605417   2603784   2602093   2600355  
  5470.000000   2598579   2596753   2594870   2592920   2590912  
  5460.000000   2588853   2586758   2584624   2582446   2580203  
  5450.000000   2577887   2575499   2573067   2570628   2568225  
  5440.000000   2565884   2563610   2561396   2559222   2557081  
  5430.000000   2554973   2552915   2550914   2548978   2547092  
  5420.000000   2545254   2543453   2541718   2540080   2538599  
  5410.000000   2537301   2536213   2535306   2534562   2533941  
  5400.000000   2533448   2533085   2532895   2532887   2533078  
  5390.000000   2533428   2533912   2534478   2535138   2535900  
  5380.000000   2536835   2537979   2539386   2541028   2542891  
  5370.000000   2544899   2547036   2549254   2551596   2554058  
  5360.000000   2556713   2559556   2562651   2565990   2569656  
  5350.000000   2573666   2578136   2583083   2588596   2594633  
  5340.000000   2601227   2608292   2615865   2623884   2632426  
  5330.000000   2641448   2651027   2661098   2671722   2682830  
  5320.000000   2694518   2706766   2719726   2733398   2747930  
  5310.000000   2763274   2779514   2796546   2814429   2833075  
  5300.000000   2852588   2872936   2894276   2916606   2940072  
  5290.000000   2964634   2990349   3017076   3044759   3073191  
  5280.000000   3102302   3131964   3162227   3193109   3224750  
  5270.000000   3257180   3290410   3324282   3358563   3392961  
  5260.000000   3427216   3461185   3494812   3528173   3561295  
  5250.000000   3594220   3626799   3658889   3690180   3720529  
  5240.000000   3749729   3777853   3804888   3831056   3856380  
  5230.000000   3881027   3904898   3928019   3950181   3971372  
  5220.000000   3991422   4010423   4028330   4045348   4061495  
  5210.000000   4076963   4091687   4105729   4118893   4131167  
  5200.000000   4142371   4152591   4161791   4170175   4177770  
  5190.000000   4184749   4191053   4196741   4201675   4205887  
  5180.000000   4209275   4211939   4213845   4215116   4215714  
  5170.000000   4215725   4215092   4213895   4212106   4209834  
  5160.000000   4207073   4203914   4200313   4196309   4191835  
  5150.000000   4186936   4181588   4175884   4169837   4163536  
  5140.000000   4156968   4150173   4143111   4135814   4128272  
  5130.000000   4120547   4112659   4104672   4096585   4088424  
  5120.000000   4080163   4071820   4063389   4054917   4046423  
  5110.000000   4037956   4029520   4021128   4012759   4004406  
  5100.000000   3996050   3987695   3979336   3970980   3962616  
  5090.000000   3954242   3945844   3937430   3929007   3920603  
  5080.000000   3912234   3903920   3895655   3887425   3879196  
  5070.000000   3870944   3862638   3854270   3845825   3837305  
  5060.000000   3828702   3820015   3811240   3802386   3793467  
  5050.000000   3784509   3775537   3766578   3757647   3748754  
  5040.000000   3739899   3731087   3722323   3713618   3704983  
  5030.000000   3696424   3687949   3679549   3671224   3662967  
  5020.000000   3654792   3646704   3638736   3630897   3623219  
  5010.000000   3615697   3608353   3601175   3594187   3587381  
  5000.000000   3580791   3574412   3568279   3562377   3556737  
  4990.000000   3551336   3546212   3541350   3536800   3532553  
  4980.000000   3528658   3525095   3521902   3519048   3516570  
  4970.000000   3514440   3512707   3511350   3510419   3509881  
  4960.000000   3509771   3510035   3510698   3511701   3513075  
  4950.000000   3514775   3516845   3519249   3522033   3525161  
  4940.000000   3528675   3532536   3536778   3541359   3546307  
  4930.000000   3551570   3557168   3563051   3569241   3575701  
  4920.000000   3582463   3589501   3596847   3604470   3612385  
  4910.000000   3620550   3628964   3637583   3646404   3655391  
  4900.000000   3664543   3673830   3683250   3692777   3702407  
  4890.000000   3712115   3721890   3731705   3741536   3751351  
  4880.000000   3761121   3770824   3780436   3789948   3799337  
  4870.000000   3808597   3817692   3826606   3835300   3843770  
  4860.000000   3851996   3860003   3867793   3875400   3882822  
  4850.000000   3890078   3897150   3904056   3910780   3917358  
  4840.000000   3923795   3930136   3936378   3942550   3948621  
  4830.000000   3954594   3960423   3966101   3971584   3976872  
  4820.000000   3981933   3986774   3991377   3995764   3999932  
  4810.000000   4003915   4007714   4011358   4014839   4018175  
  4800.000000   4021351   4024391   4027291   4030090   4032795  
  4790.000000   4035438   4038016   4040542   4042997   4045391  
  4780.000000   4047707   4049967   4052161   4054304   4056367  
  4770.000000   4058341   4060176   4061852   4063328   4064605  
  4760.000000   4065667   4066537   4067206   4067691   4067973  
  4750.000000   4068059   4067924   4067584   4067023   4066267  
  4740.000000   4065309   4064177   4062859   4061381   4059732  
  4730.000000   4057935   4055981   4053888   4051643   4049257  
  4720.000000   4046718   4044043   4041237   4038334   4035357  
  4710.000000   4032347   4029324   4026315   4023317   4020340  
  4700.000000   4017369   4014408   4011447   4008488   4005522  
  4690.000000   4002546   3999545   3996508   3993422   3990277  
  4680.000000   3987068   3983789   3980440   3977015   3973514  
  4670.000000   3969934   3966289   3962597   3958897   3955228  
  4660.000000   3951643   3948179   3944875   3941744   3938799  
  4650.000000   3936033   3933450   3931037   3928801   3926730  
  4640.000000   3924828   3923077   3921470   3919980   3918594  
  4630.000000   3917281   3916030   3914818   3913639   3912476  
  4620.000000   3911329   3910183   3909033   3907864   3906668  
  4610.000000   3905430   3904150   3902834   3901503   3900186  
  4600.000000   3898923   3897749   3896686   3895742   3894906  
  4590.000000   3894151   3893442   3892749   3892044   3891312  
  4580.000000   3890543   3889731   3888871   3887956   3886980  
  4570.000000   3885942   3884844   3883695   3882503   3881279  
  4560.000000   3880022   3878734   3877405   3876029   3874601  
  4550.000000   3873120   3871586   3869998   3868355   3866651  
  4540.000000   3864893   3863082   3861250   3859420   3857643  
  4530.000000   3855942   3854367   3852920   3851639   3850514  
  4520.000000   3849594   3848875   3848428   3848255   3848432  
  4510.000000   3848948   3849875   3851194   3852989   3855258  
  4500.000000   3858111   3861559   3865715   3870572   3876215  
  4490.000000   3882603   3889790   3897709   3906395   3915769  
  4480.000000   3925846   3936529   3947814   3959592   3971855  
  4470.000000   3984502   3997534   4010874   4024533   4038455  
  4460.000000   4052649   4067068   4081711   4096526   4111491  
  4450.000000   4126547   4141653   4156755   4171811   4186795  
  4440.000000   4201678   4216464   4231129   4245688   4260099  
  4430.000000   4274371   4288439   4302310   4315900   4329217  
  4420.000000   4342159   4354730   4366803   4378369   4389279  
  4410.000000   4399510   4408902   4417427   4424934   4431415  
  4400.000000   4436764   4441027   4444169   4446305   4447468  
  4390.000000   4447808   4447394   4446375   4444826   4442883  
  4380.000000   4440628   4438198   4435694   4433262   4431028  
  4370.000000   4429129   4427690   4426812   4426584   4427044  
  4360.000000   4428227   4430105   4432659   4435817   4439527  
  4350.000000   4443707   4448303   4453254   4458531   4464101  
  4340.000000   4469945   4476017   4482251   4488519   4494654  
  4330.000000   4500431   4505620   4510003   4513432   4515862  
  4320.000000   4517365   4518139   4518440   4518578   4518797  
  4310.000000   4519305   4520169   4521409   4522925   4524633  
  4300.000000   4526399   4528150   4529801   4531319   4532657  
  4290.000000   4533798   4534708   4535382   4535817   4536043  
  4280.000000   4536095   4536038   4535915   4535794   4535694  
  4270.000000   4535652   4535647   4535668   4535642   4535500  
  4260.000000   4535122   4534407   4533243   4531570   4529367  
  4250.000000   4526684   4523615   4520305   4516898   4513541  
  4240.000000   4510339   4507372   4504668   4502235   4500044  
  4230.000000   4498063   4496239   4494517   4492836   4491132  
  4220.000000   4489360   4487478   4485487   4483396   4481263  
  4210.000000   4479141   4477115   4475242   4473591   4472188  
  4200.000000   4471059   4470180   4469535   4469058   4468711  
  4190.000000   4468420   4468165   4467901   4467663   4467451  
  4180.000000   4467352   4467393   4467679   4468236   4469163  
  4170.000000   4470482   4472292   4474611   4477540   4481082  
  4160.000000   4485314   4490200   4495777   4501973   4508802  
  4150.000000   4516177   4524117   4532539   4541472   4550848  
  4140.000000   4560715   4571028   4581854   4593165   4605025  
  4130.000000   4617388   4630282   4643627   4657420   4671573  
  4120.000000   4686094   4700933   4716132   4731675   4747615  
  4110.000000   4763938   4780677   4797796   4815299   4833133  
  4100.000000   4851281   4869683   4888312   4907117   4926077  
  4090.000000   4945163   4964369   4983690   5003127   5022690  
  4080.000000   5042378   5062204   5082150   5102217   5122348  
  4070.000000   5142511   5162602   5182568   5202292   5221749  
  4060.000000   5240855   5259631   5278009   5296019   5313568  
  4050.000000   5330672   5347223   5363259   5378684   5393560  
  4040.000000   5407783   5421396   5434250   5446364   5457581  
  4030.000000   5467945   5477327   5485788   5493209   5499619  
  4020.000000   5504854   5508955   5511863   5513690   5514407  
  4010.000000   5514234   5513299   5511691   5509189   5505905  
  4000.000000   5502224  
##END= 
