##TITLE= Sample 027 By ssteindl date Dienstag, November 20 2018
##JCAMP-DX= 4.24
##DATA TYPE= INFRARED SPECTRUM
##ORIGIN= Exported PE Spectrum Data File
##OWNER= Sandra Steindl
##DATE= 18/11/20
##TIME= 16:36:44.00
##SPECTROMETER/DATA SYSTEM= PERKIN-ELMER Frontier FT-IR/NIR IR
##INSTRUMENT PARAMETERS=
  APODIZATION=stark
  DETECTOR=INGAAS
##RESOLUTION= 16.000000
##DELTAX= -2.000000
##XUNITS= 1/CM
##YUNITS= A
##XFACTOR= 1.00
##YFACTOR= 0.00000011920928955078
##FIRSTX= 10000.00
##LASTX= 4000.00
##NPOINTS= 3001
##FIRSTY= 0.220581
##MAXY= 0.661939
##MINY= 0.182218
##XYDATA= (X++(Y..Y))
 10000.000000   1850366   1853696   1857255   1860738   1862797  
  9990.000000   1861844   1857196   1849342   1839509   1829244  
  9980.000000   1820112   1813236   1808938   1806882   1806383  
  9970.000000   1806841   1807772   1808982   1810367   1811896  
  9960.000000   1813513   1815239   1817205   1819619   1822639  
  9950.000000   1826097   1829453   1831751   1832050   1829723  
  9940.000000   1824927   1818557   1812026   1806677   1803264  
  9930.000000   1801665   1801020   1800217   1798491   1795859  
  9920.000000   1793113   1791495   1792032   1795096   1800165  
  9910.000000   1806123   1811724   1816132   1819162   1821190  
  9900.000000   1822786   1824312   1825691   1826487   1826213  
  9890.000000   1824649   1822033   1818912   1815857   1813106  
  9880.000000   1810404   1807199   1802897   1797403   1791139  
  9870.000000   1785147   1780517   1778117   1778111   1780013  
  9860.000000   1782866   1785605   1787446   1787880   1786751  
  9850.000000   1783895   1779194   1772447   1763719   1753459  
  9840.000000   1742741   1733076   1726107   1723124   1724626  
  9830.000000   1730229   1738693   1748415   1757790   1765660  
  9820.000000   1771481   1775235   1777313   1778128   1778079  
  9810.000000   1777298   1775847   1773660   1770790   1767392  
  9800.000000   1763790   1760461   1757858   1756451   1756422  
  9790.000000   1757786   1760177   1763092   1765903   1768133  
  9780.000000   1769499   1769999   1769772   1768979   1767661  
  9770.000000   1765694   1762920   1759233   1754784   1749926  
  9760.000000   1745148   1740845   1737141   1733857   1730609  
  9750.000000   1727075   1723226   1719452   1716461   1714988  
  9740.000000   1715452   1717701   1721032   1724413   1726910  
  9730.000000   1728008   1727805   1726894   1726078   1726010  
  9720.000000   1726937   1728655   1730668   1732407   1733497  
  9710.000000   1733777   1733317   1732216   1730510   1728121  
  9700.000000   1724913   1720872   1716197   1711382   1707120  
  9690.000000   1704137   1702975   1703842   1706516   1710420  
  9680.000000   1714709   1718500   1721050   1721929   1721127  
  9670.000000   1719015   1716279   1713674   1711853   1711129  
  9660.000000   1711440   1712362   1713296   1713686   1713178  
  9650.000000   1711753   1709665   1707358   1705307   1703867  
  9640.000000   1703238   1703396   1704156   1705184   1706039  
  9630.000000   1706295   1705610   1703961   1701669   1699501  
  9620.000000   1698402   1699271   1702517   1707830   1714131  
  9610.000000   1719802   1723218   1723182   1719395   1712424  
  9600.000000   1703565   1694322   1685981   1679286   1674377  
  9590.000000   1671048   1668987   1668120   1668556   1670562  
  9580.000000   1674208   1679268   1685101   1690817   1695519  
  9570.000000   1698473   1699357   1698125   1695076   1690611  
  9560.000000   1685273   1679660   1674434   1670287   1667775  
  9550.000000   1667216   1668492   1671099   1674208   1676955  
  9540.000000   1678640   1678940   1677896   1675817   1673103  
  9530.000000   1670089   1667032   1664148   1661706   1660055  
  9520.000000   1659504   1660215   1661974   1664266   1666315  
  9510.000000   1667435   1667198   1665626   1663084   1660083  
  9500.000000   1657024   1653987   1650781   1647035   1642530  
  9490.000000   1637302   1631749   1626412   1621762   1618002  
  9480.000000   1614997   1612469   1610170   1608132   1606676  
  9470.000000   1606313   1607497   1610357   1614584   1619424  
  9460.000000   1623940   1627212   1628674   1628136   1625864  
  9450.000000   1622352   1618244   1614141   1610556   1607871  
  9440.000000   1606300   1605888   1606469   1607724   1609227  
  9430.000000   1610569   1611450   1611747   1611497   1610818  
  9420.000000   1609832   1608583   1607100   1605444   1603836  
  9410.000000   1602637   1602269   1603050   1605017   1607869  
  9400.000000   1611022   1613797   1615644   1616321   1615938  
  9390.000000   1614860   1613520   1612237   1611143   1610208  
  9380.000000   1609364   1608607   1608037   1607797   1607952  
  9370.000000   1608395   1608821   1608852   1608193   1606788  
  9360.000000   1604871   1602885   1601334   1600573   1600682  
  9350.000000   1601463   1602542   1603557   1604285   1604699  
  9340.000000   1604928   1605164   1605567   1606191   1606950  
  9330.000000   1607665   1608110   1608107   1607567   1606523  
  9320.000000   1605144   1603731   1602652   1602244   1602639  
  9310.000000   1603690   1604938   1605755   1605551   1603996  
  9300.000000   1601200   1597705   1594331   1591860   1590723  
  9290.000000   1590866   1591777   1592752   1593166   1592755  
  9280.000000   1591681   1590448   1589623   1589564   1590241  
  9270.000000   1591270   1592111   1592255   1591433   1589638  
  9260.000000   1587119   1584234   1581328   1578655   1576383  
  9250.000000   1574648   1573585   1573301   1573818   1574986  
  9240.000000   1576486   1577891   1578790   1578924   1578266  
  9230.000000   1577043   1575655   1574519   1573934   1573997  
  9220.000000   1574636   1575647   1576792   1577812   1578497  
  9210.000000   1578669   1578213   1577070   1575244   1572861  
  9200.000000   1570153   1567473   1565198   1563680   1563165  
  9190.000000   1563779   1565474   1568000   1570901   1573574  
  9180.000000   1575402   1575854   1574674   1571927   1568100  
  9170.000000   1563949   1560323   1557892   1556960   1557429  
  9160.000000   1558866   1560761   1562675   1564461   1566196  
  9150.000000   1568117   1570372   1572871   1575240   1576905  
  9140.000000   1577353   1576262   1573688   1569994   1565775  
  9130.000000   1561656   1558115   1555439   1553680   1552815  
  9120.000000   1552726   1553317   1554430   1555878   1557403  
  9110.000000   1558702   1559481   1559492   1558646   1556950  
  9100.000000   1554573   1551697   1548585   1545501   1542766  
  9090.000000   1540698   1539558   1539505   1540507   1542378  
  9080.000000   1544757   1547281   1549653   1551765   1553658  
  9070.000000   1555446   1557203   1558844   1560157   1560802  
  9060.000000   1560512   1559151   1556844   1553899   1550719  
  9050.000000   1547694   1545100   1543114   1541794   1541197  
  9040.000000   1541345   1542262   1543862   1545929   1548095  
  9030.000000   1549929   1551063   1551298   1550679   1549453  
  9020.000000   1547993   1546648   1545648   1545067   1544857  
  9010.000000   1544915   1545123   1545396   1545648   1545771  
  9000.000000   1545603   1544978   1543810   1542141   1540178  
  8990.000000   1538220   1536585   1535467   1534884   1534693  
  8980.000000   1534686   1534718   1534771   1535003   1535642  
  8970.000000   1536875   1538691   1540862   1542995   1544647  
  8960.000000   1545487   1545367   1544408   1542861   1541041  
  8950.000000   1539172   1537380   1535671   1534000   1532352  
  8940.000000   1530798   1529512   1528696   1528555   1529185  
  8930.000000   1530585   1532592   1534975   1537457   1539780  
  8920.000000   1541742   1543206   1544139   1544553   1544512  
  8910.000000   1544070   1543297   1542227   1540904   1539367  
  8900.000000   1537690   1535982   1534360   1532970   1531925  
  8890.000000   1531336   1531246   1531677   1532589   1533904  
  8880.000000   1535472   1537087   1538517   1539534   1539993  
  8870.000000   1539859   1539259   1538415   1537601   1537023  
  8860.000000   1536787   1536842   1537054   1537247   1537328  
  8850.000000   1537296   1537243   1537289   1537517   1537934  
  8840.000000   1538473   1539069   1539727   1540572   1541818  
  8830.000000   1543682   1546271   1549484   1553008   1556368  
  8820.000000   1559085   1560793   1561380   1560955   1559836  
  8810.000000   1558385   1556951   1555769   1554975   1554632  
  8800.000000   1554757   1555377   1556478   1558053   1560024  
  8790.000000   1562318   1564831   1567494   1570252   1573043  
  8780.000000   1575784   1578289   1580328   1581615   1581956  
  8770.000000   1581286   1579755   1577700   1575584   1573892  
  8760.000000   1573004   1573142   1574308   1576352   1578987  
  8750.000000   1581885   1584706   1587156   1589030   1590221  
  8740.000000   1590771   1590819   1590611   1590387   1590351  
  8730.000000   1590595   1591116   1591852   1592735   1593782  
  8720.000000   1595059   1596694   1598747   1601178   1603780  
  8710.000000   1606230   1608190   1609377   1609690   1609180  
  8700.000000   1608057   1606569   1604958   1603408   1602073  
  8690.000000   1601102   1600666   1600958   1602129   1604217  
  8680.000000   1607080   1610401   1613776   1616797   1619203  
  8670.000000   1620907   1622044   1622863   1623663   1624684  
  8660.000000   1626081   1627921   1630205   1632919   1636013  
  8650.000000   1639401   1642914   1646306   1649299   1651628  
  8640.000000   1653131   1653759   1653618   1652891   1651806  
  8630.000000   1650578   1649398   1648475   1648030   1648322  
  8620.000000   1649551   1651837   1655095   1659049   1663235  
  8610.000000   1667136   1670321   1672543   1673819   1674337  
  8600.000000   1674423   1674356   1674340   1674447   1674699  
  8590.000000   1675116   1675763   1676772   1678271   1680359  
  8580.000000   1682990   1686023   1689204   1692288   1695066  
  8570.000000   1697426   1699347   1700852   1701985   1702770  
  8560.000000   1703231   1703398   1703330   1703121   1702877  
  8550.000000   1702690   1702603   1702610   1702674   1702766  
  8540.000000   1702889   1703083   1703403   1703878   1704497  
  8530.000000   1705201   1705927   1706655   1707454   1708468  
  8520.000000   1709885   1711839   1714348   1717267   1720310  
  8510.000000   1723130   1725438   1727080   1728092   1728665  
  8500.000000   1729079   1729592   1730357   1731382   1732555  
  8490.000000   1733705   1734675   1735389   1735878   1736268  
  8480.000000   1736731   1737420   1738422   1739720   1741206  
  8470.000000   1742708   1744062   1745158   1746000   1746704  
  8460.000000   1747475   1748542   1750085   1752170   1754728  
  8450.000000   1757566   1760430   1763070   1765308   1767070  
  8440.000000   1768380   1769339   1770064   1770674   1771256  
  8430.000000   1771883   1772609   1773482   1774521   1775706  
  8420.000000   1776945   1778100   1779003   1779526   1779609  
  8410.000000   1779307   1778776   1778237   1777895   1777895  
  8400.000000   1778272   1778978   1779885   1780872   1781828  
  8390.000000   1782704   1783491   1784198   1784826   1785340  
  8380.000000   1785680   1785764   1785522   1784910   1783944  
  8370.000000   1782717   1781402   1780231   1779449   1779272  
  8360.000000   1779805   1781021   1782715   1784568   1786221  
  8350.000000   1787384   1787920   1787873   1787450   1786914  
  8340.000000   1786492   1786271   1786192   1786078   1785746  
  8330.000000   1785095   1784174   1783181   1782370   1781982  
  8320.000000   1782115   1782726   1783629   1784589   1785405  
  8310.000000   1785965   1786267   1786367   1786339   1786207  
  8300.000000   1785944   1785491   1784810   1783928   1782950  
  8290.000000   1782043   1781367   1781049   1781112   1781517  
  8280.000000   1782140   1782844   1783485   1783942   1784111  
  8270.000000   1783900   1783231   1782044   1780326   1778134  
  8260.000000   1775603   1772947   1770404   1768211   1766538  
  8250.000000   1765474   1764996   1764994   1765282   1765641  
  8240.000000   1765853   1765740   1765196   1764195   1762809  
  8230.000000   1761176   1759496   1757963   1756750   1755943  
  8220.000000   1755548   1755480   1755589   1755697   1755623  
  8210.000000   1755239   1754485   1753407   1752130   1750852  
  8200.000000   1749776   1749070   1748802   1748918   1749235  
  8190.000000   1749493   1749424   1748843   1747699   1746088  
  8180.000000   1744204   1742279   1740483   1738891   1737457  
  8170.000000   1736070   1734610   1733033   1731392   1729833  
  8160.000000   1728520   1727562   1726947   1726534   1726083  
  8150.000000   1725332   1724092   1722305   1720084   1717665  
  8140.000000   1715340   1713370   1711904   1710961   1710431  
  8130.000000   1710133   1709869   1709485   1708901   1708101  
  8120.000000   1707120   1705991   1704736   1703337   1701773  
  8110.000000   1700026   1698128   1696158   1694244   1692535  
  8100.000000   1691152   1690175   1689602   1689373   1689377  
  8090.000000   1689491   1689600   1689608   1689444   1689047  
  8080.000000   1688381   1687428   1686222   1684849   1683452  
  8070.000000   1682195   1681225   1680624   1680372   1680358  
  8060.000000   1680394   1680293   1679906   1679186   1678171  
  8050.000000   1676977   1675736   1674552   1673476   1672502  
  8040.000000   1671592   1670696   1669783   1668835   1667847  
  8030.000000   1666808   1665707   1664534   1663304   1662069  
  8020.000000   1660912   1659932   1659203   1658749   1658529  
  8010.000000   1658453   1658418   1658348   1658218   1658053  
  8000.000000   1657895   1657758   1657607   1657345   1656856  
  7990.000000   1656043   1654892   1653475   1651953   1650513  
  7980.000000   1649309   1648421   1647824   1647432   1647128  
  7970.000000   1646831   1646513   1646205   1645957   1645808  
  7960.000000   1645750   1645724   1645652   1645454   1645095  
  7950.000000   1644575   1643937   1643218   1642452   1641643  
  7940.000000   1640789   1639900   1639020   1638229   1637620  
  7930.000000   1637276   1637224   1637436   1637827   1638291  
  7920.000000   1638740   1639122   1639431   1639674   1639854  
  7910.000000   1639935   1639858   1639553   1638995   1638215  
  7900.000000   1637328   1636490   1635859   1635539   1635546  
  7890.000000   1635809   1636195   1636569   1636835   1636969  
  7880.000000   1637009   1637038   1637133   1637348   1637693  
  7870.000000   1638140   1638645   1639152   1639619   1639997  
  7860.000000   1640245   1640317   1640175   1639808   1639239  
  7850.000000   1638539   1637808   1637169   1636722   1636535  
  7840.000000   1636616   1636919   1637346   1637776   1638071  
  7830.000000   1638119   1637839   1637216   1636302   1635220  
  7820.000000   1634133   1633207   1632557   1632212   1632100  
  7810.000000   1632066   1631922   1631514   1630769   1629726  
  7800.000000   1628508   1627286   1626209   1625370   1624783  
  7790.000000   1624406   1624173   1624021   1623910   1623806  
  7780.000000   1623672   1623447   1623059   1622439   1621571  
  7770.000000   1620497   1619340   1618251   1617381   1616822  
  7760.000000   1616580   1616589   1616736   1616919   1617071  
  7750.000000   1617192   1617314   1617480   1617703   1617944  
  7740.000000   1618118   1618113   1617837   1617231   1616304  
  7730.000000   1615121   1613796   1612469   1611280   1610347  
  7720.000000   1609741   1609476   1609495   1609691   1609920  
  7710.000000   1610043   1609960   1609632   1609087   1608404  
  7700.000000   1607686   1607022   1606475   1606068   1605802  
  7690.000000   1605658   1605618   1605659   1605747   1605837  
  7680.000000   1605869   1605796   1605593   1605287   1604948  
  7670.000000   1604672   1604540   1604582   1604758   1604956  
  7660.000000   1605037   1604878   1604418   1603683   1602779  
  7650.000000   1601847   1601031   1600420   1600044   1599870  
  7640.000000   1599832   1599858   1599898   1599932   1599975  
  7630.000000   1600060   1600221   1600484   1600857   1601324  
  7620.000000   1601863   1602440   1603032   1603624   1604220  
  7610.000000   1604832   1605469   1606123   1606761   1607323  
  7600.000000   1607744   1607973   1607995   1607847   1607609  
  7590.000000   1607384   1607266   1607313   1607534   1607891  
  7580.000000   1608326   1608785   1609235   1609665   1610085  
  7570.000000   1610493   1610884   1611239   1611548   1611820  
  7560.000000   1612103   1612462   1612971   1613674   1614575  
  7550.000000   1615626   1616752   1617869   1618929   1619917  
  7540.000000   1620867   1621819   1622820   1623876   1624976  
  7530.000000   1626079   1627156   1628189   1629203   1630238  
  7520.000000   1631352   1632586   1633960   1635460   1637052  
  7510.000000   1638692   1640346   1641995   1643647   1645318  
  7500.000000   1647031   1648786   1650568   1652329   1654024  
  7490.000000   1655606   1657068   1658435   1659780   1661185  
  7480.000000   1662727   1664441   1666314   1668284   1670280  
  7470.000000   1672243   1674160   1676056   1677984   1679987  
  7460.000000   1682071   1684187   1686262   1688225   1690066  
  7450.000000   1691832   1693633   1695584   1697761   1700157  
  7440.000000   1702676   1705175   1707530   1709688   1711700  
  7430.000000   1713693   1715828   1718215   1720867   1723687  
  7420.000000   1726513   1729176   1731574   1733699   1735644  
  7410.000000   1737546   1739536   1741682   1743983   1746381  
  7400.000000   1748800   1751193   1753556   1755929   1758372  
  7390.000000   1760926   1763591   1766322   1769036   1771636  
  7380.000000   1774038   1776191   1778094   1779790   1781367  
  7370.000000   1782933   1784603   1786474   1788594   1790957  
  7360.000000   1793496   1796104   1798658   1801061   1803268  
  7350.000000   1805293   1807203   1809082   1811005   1813011  
  7340.000000   1815097   1817230   1819370   1821493   1823597  
  7330.000000   1825704   1827839   1830024   1832260   1834536  
  7320.000000   1836818   1839071   1841252   1843322   1845246  
  7310.000000   1847002   1848583   1850013   1851334   1852608  
  7300.000000   1853887   1855207   1856563   1857926   1859239  
  7290.000000   1860458   1861554   1862545   1863474   1864402  
  7280.000000   1865380   1866435   1867562   1868733   1869909  
  7270.000000   1871058   1872168   1873246   1874317   1875403  
  7260.000000   1876525   1877676   1878849   1880010   1881144  
  7250.000000   1882229   1883285   1884337   1885451   1886689  
  7240.000000   1888130   1889816   1891772   1893975   1896393  
  7230.000000   1898969   1901678   1904491   1907427   1910483  
  7220.000000   1913673   1916959   1920305   1923636   1926916  
  7210.000000   1930115   1933276   1936458   1939758   1943241  
  7200.000000   1946948   1950853   1954913   1959047   1963206  
  7190.000000   1967348   1971480   1975610   1979772   1983970  
  7180.000000   1988218   1992502   1996829   2001200   2005649  
  7170.000000   2010198   2014891   2019738   2024757   2029918  
  7160.000000   2035205   2040560   2045952   2051328   2056680  
  7150.000000   2062006   2067362   2072818   2078488   2084467  
  7140.000000   2090832   2097585   2104682   2112006   2119449  
  7130.000000   2126884   2134251   2141502   2148652   2155702  
  7120.000000   2162681   2169586   2176444   2183273   2190138  
  7110.000000   2197108   2204278   2211715   2219464   2227512  
  7100.000000   2235812   2244273   2252809   2261324   2269760  
  7090.000000   2278067   2286241   2294289   2302261   2310221  
  7080.000000   2318259   2326452   2334864   2343504   2352338  
  7070.000000   2361280   2370230   2379084   2387772   2396255  
  7060.000000   2404531   2412612   2420533   2428336   2436083  
  7050.000000   2443856   2451743   2459827   2468145   2476685  
  7040.000000   2485363   2494072   2502691   2511144   2519403  
  7030.000000   2527494   2535457   2543329   2551102   2558742  
  7020.000000   2566196   2573444   2580498   2587425   2594294  
  7010.000000   2601167   2608043   2614884   2621609   2628169  
  7000.000000   2634540   2640776   2646943   2653123   2659334  
  6990.000000   2665561   2671721   2677752   2683600   2689283  
  6980.000000   2694841   2700343   2705805   2711216   2716495  
  6970.000000   2721570   2726369   2730889   2735159   2739258  
  6960.000000   2743241   2747163   2751025   2754835   2758581  
  6950.000000   2762287   2765967   2769646   2773298   2776883  
  6940.000000   2780315   2783535   2786507   2789263   2791869  
  6930.000000   2794428   2797009   2799652   2802335   2805015  
  6920.000000   2807635   2810168   2812603   2814961   2817253  
  6910.000000   2819488   2821652   2823736   2825733   2827664  
  6900.000000   2829552   2831425   2833280   2835095   2836823  
  6890.000000   2838434   2839922   2841330   2842726   2844180  
  6880.000000   2845725   2847342   2848965   2850511   2851913  
  6870.000000   2853161   2854301   2855426   2856627   2857972  
  6860.000000   2859474   2861100   2862780   2864443   2866023  
  6850.000000   2867484   2868805   2869983   2871019   2871928  
  6840.000000   2872729   2873459   2874152   2874842   2875547  
  6830.000000   2876270   2876998   2877721   2878427   2879123  
  6820.000000   2879810   2880487   2881131   2881709   2882178  
  6810.000000   2882518   2882728   2882847   2882921   2883002  
  6800.000000   2883110   2883247   2883380   2883484   2883535  
  6790.000000   2883538   2883502   2883442   2883344   2883186  
  6780.000000   2882929   2882550   2882051   2881474   2880875  
  6770.000000   2880318   2879829   2879406   2879012   2878603  
  6760.000000   2878139   2877615   2877035   2876422   2875782  
  6750.000000   2875115   2874406   2873649   2872854   2872056  
  6740.000000   2871293   2870589   2869937   2869294   2868595  
  6730.000000   2867788   2866849   2865806   2864719   2863661  
  6720.000000   2862681   2861795   2860978   2860197   2859422  
  6710.000000   2858658   2857926   2857261   2856672   2856141  
  6700.000000   2855610   2855016   2854301   2853446   2852460  
  6690.000000   2851375   2850218   2849000   2847703   2846304  
  6680.000000   2844784   2843158   2841463   2839766   2838123  
  6670.000000   2836575   2835124   2833751   2832414   2831079  
  6660.000000   2829716   2828315   2826869   2825381   2823855  
  6650.000000   2822298   2820721   2819136   2817548   2815950  
  6640.000000   2814314   2812605   2810792   2808867   2806858  
  6630.000000   2804827   2802847   2800985   2799270   2797694  
  6620.000000   2796209   2794760   2793297   2791798   2790262  
  6610.000000   2788697   2787103   2785458   2783728   2781876  
  6600.000000   2779885   2777769   2775574   2773359   2771185  
  6590.000000   2769091   2767096   2765203   2763406   2761698  
  6580.000000   2760073   2758516   2757005   2755506   2753987  
  6570.000000   2752429   2750838   2749240   2747676   2746176  
  6560.000000   2744751   2743376   2742016   2740626   2739188  
  6550.000000   2737706   2736207   2734717   2733253   2731801  
  6540.000000   2730334   2728826   2727272   2725697   2724153  
  6530.000000   2722698   2721371   2720177   2719094   2718074  
  6520.000000   2717077   2716077   2715074   2714077   2713100  
  6510.000000   2712137   2711178   2710203   2709209   2708209  
  6500.000000   2707236   2706323   2705494   2704747   2704053  
  6490.000000   2703371   2702665   2701922   2701152   2700381  
  6480.000000   2699640   2698938   2698265   2697587   2696860  
  6470.000000   2696045   2695118   2694075   2692930   2691715  
  6460.000000   2690468   2689241   2688081   2687033   2686123  
  6450.000000   2685350   2684683   2684068   2683446   2682766  
  6440.000000   2682011   2681187   2680329   2679472   2678645  
  6430.000000   2677851   2677084   2676333   2675605   2674923  
  6420.000000   2674328   2673857   2673530   2673333   2673221  
  6410.000000   2673131   2673004   2672793   2672483   2672074  
  6400.000000   2671585   2671041   2670471   2669909   2669396  
  6390.000000   2668973   2668678   2668529   2668511   2668583  
  6380.000000   2668682   2668740   2668708   2668566   2668323  
  6370.000000   2668010   2667660   2667297   2666927   2666545  
  6360.000000   2666137   2665697   2665223   2664726   2664213  
  6350.000000   2663699   2663186   2662687   2662205   2661750  
  6340.000000   2661319   2660904   2660481   2660022   2659498  
  6330.000000   2658898   2658223   2657496   2656736   2655962  
  6320.000000   2655168   2654335   2653434   2652450   2651382  
  6310.000000   2650257   2649107   2647973   2646866   2645790  
  6300.000000   2644725   2643661   2642590   2641529   2640486  
  6290.000000   2639469   2638451   2637392   2636232   2634925  
  6280.000000   2633449   2631826   2630100   2628334   2626574  
  6270.000000   2624847   2623145   2621453   2619745   2618014  
  6260.000000   2616256   2614481   2612688   2610872   2609017  
  6250.000000   2607113   2605162   2603186   2601217   2599290  
  6240.000000   2597419   2595603   2593815   2592026   2590210  
  6230.000000   2588367   2586508   2584659   2582837   2581047  
  6220.000000   2579276   2577504   2575707   2573873   2571999  
  6210.000000   2570089   2568148   2566174   2564165   2562116  
  6200.000000   2560033   2557928   2555820   2553727   2551659  
  6190.000000   2549615   2547591   2545589   2543620   2541706  
  6180.000000   2539870   2538123   2536455   2534832   2533208  
  6170.000000   2531542   2529815   2528038   2526251   2524506  
  6160.000000   2522847   2521297   2519851   2518483   2517155  
  6150.000000   2515833   2514490   2513109   2511684   2510213  
  6140.000000   2508700   2507156   2505604   2504067   2502572  
  6130.000000   2501129   2499734   2498367   2497003   2495624  
  6120.000000   2494232   2492849   2491512   2490255   2489100  
  6110.000000   2488038   2487042   2486068   2485082   2484058  
  6100.000000   2482998   2481914   2480833   2479777   2478771  
  6090.000000   2477828   2476968   2476194   2475515   2474913  
  6080.000000   2474369   2473844   2473309   2472743   2472158  
  6070.000000   2471585   2471079   2470686   2470439   2470329  
  6060.000000   2470331   2470389   2470460   2470503   2470514  
  6050.000000   2470498   2470484   2470494   2470558   2470692  
  6040.000000   2470918   2471248   2471699   2472271   2472965  
  6030.000000   2473753   2474613   2475507   2476416   2477323  
  6020.000000   2478232   2479143   2480068   2481001   2481946  
  6010.000000   2482896   2483859   2484841   2485865   2486941  
  6000.000000   2488080   2489271   2490507   2491768   2493053  
  5990.000000   2494363   2495716   2497124   2498599   2500134  
  5980.000000   2501722   2503342   2504996   2506686   2508441  
  5970.000000   2510281   2512237   2514305   2516483   2518744  
  5960.000000   2521073   2523450   2525882   2528372   2530935  
  5950.000000   2533571   2536283   2539056   2541887   2544771  
  5940.000000   2547720   2550742   2553852   2557047   2560315  
  5930.000000   2563626   2566944   2570231   2573459   2576608  
  5920.000000   2579670   2582645   2585541   2588369   2591141  
  5910.000000   2593869   2596563   2599227   2601861   2604464  
  5900.000000   2607037   2609596   2612161   2614769   2617450  
  5890.000000   2620226   2623094   2626028   2628985   2631915  
  5880.000000   2634775   2637541   2640204   2642771   2645253  
  5870.000000   2647657   2649991   2652255   2654459   2656614  
  5860.000000   2658739   2660852   2662964   2665082   2667208  
  5850.000000   2669346   2671511   2673729   2676030   2678440  
  5840.000000   2680969   2683606   2686320   2689071   2691822  
  5830.000000   2694544   2697226   2699862   2702455   2705003  
  5820.000000   2707503   2709953   2712360   2714742   2717118  
  5810.000000   2719515   2721933   2724368   2726783   2729149  
  5800.000000   2731423   2733598   2735661   2737643   2739543  
  5790.000000   2741385   2743146   2744812   2746329   2747657  
  5780.000000   2748724   2749483   2749869   2749852   2749409  
  5770.000000   2748568   2747382   2745954   2744392   2742816  
  5760.000000   2741308   2739932   2738704   2737628   2736690  
  5750.000000   2735889   2735221   2734692   2734294   2734005  
  5740.000000   2733793   2733614   2733442   2733256   2733068  
  5730.000000   2732890   2732755   2732674   2732664   2732718  
  5720.000000   2732839   2733019   2733265   2733577   2733963  
  5710.000000   2734415   2734928   2735487   2736085   2736713  
  5700.000000   2737369   2738048   2738741   2739435   2740110  
  5690.000000   2740754   2741357   2741927   2742463   2742977  
  5680.000000   2743452   2743874   2744205   2744417   2744480  
  5670.000000   2744387   2744131   2743721   2743149   2742417  
  5660.000000   2741515   2740454   2739248   2737946   2736593  
  5650.000000   2735243   2733927   2732661   2731430   2730223  
  5640.000000   2729024   2727840   2726683   2725577   2724536  
  5630.000000   2723561   2722639   2721748   2720873   2720007  
  5620.000000   2719155   2718329   2717540   2716787   2716059  
  5610.000000   2715342   2714622   2713893   2713157   2712418  
  5600.000000   2711674   2710919   2710137   2709313   2708439  
  5590.000000   2707520   2706565   2705589   2704598   2703592  
  5580.000000   2702561   2701502   2700412   2699307   2698198  
  5570.000000   2697098   2696002   2694891   2693735   2692507  
  5560.000000   2691197   2689817   2688399   2686982   2685601  
  5550.000000   2684272   2682994   2681753   2680536   2679335  
  5540.000000   2678154   2677001   2675882   2674795   2673733  
  5530.000000   2672683   2671638   2670601   2669577   2668572  
  5520.000000   2667581   2666590   2665573   2664510   2663386  
  5510.000000   2662207   2660984   2659738   2658477   2657203  
  5500.000000   2655904   2654574   2653213   2651838   2650472  
  5490.000000   2649140   2647843   2646567   2645272   2643920  
  5480.000000   2642475   2640929   2639292   2637596   2635871  
  5470.000000   2634147   2632431   2630731   2629038   2627351  
  5460.000000   2625665   2623973   2622261   2620508   2618690  
  5450.000000   2616791   2614808   2612762   2610686   2608620  
  5440.000000   2606600   2604646   2602772   2600980   2599277  
  5430.000000   2597665   2596146   2594700   2593305   2591918  
  5420.000000   2590519   2589090   2587667   2586297   2585060  
  5410.000000   2584005   2583171   2582532   2582059   2581692  
  5400.000000   2581406   2581176   2581026   2580959   2581007  
  5390.000000   2581162   2581442   2581836   2582380   2583089  
  5380.000000   2584018   2585171   2586562   2588137   2589866  
  5370.000000   2591677   2593572   2595534   2597630   2599880  
  5360.000000   2602363   2605076   2608068   2611316   2614877  
  5350.000000   2618745   2623007   2627661   2632776   2638307  
  5340.000000   2644290   2650659   2657473   2664700   2672434  
  5330.000000   2680651   2689425   2698687   2708479   2718717  
  5320.000000   2729474   2740723   2752602   2765116   2778414  
  5310.000000   2792461   2807353   2823002   2839477   2856699  
  5300.000000   2874765   2893641   2913456   2934194   2955975  
  5290.000000   2978748   3002564   3027295   3052903   3079206  
  5280.000000   3106154   3133632   3161690   3190341   3219715  
  5270.000000   3249839   3280734   3312258   3344212   3376334  
  5260.000000   3408403   3440292   3471974   3503526   3534999  
  5250.000000   3566432   3597697   3628645   3658981   3688546  
  5240.000000   3717145   3744832   3771614   3797701   3823134  
  5230.000000   3848063   3872393   3896121   3919030   3941078  
  5220.000000   3962092   3982145   4001203   4019457   4036937  
  5210.000000   4053823   4070058   4085691   4100535   4114558  
  5200.000000   4127579   4139652   4150726   4160975   4170418  
  5190.000000   4179222   4187346   4194872   4201692   4207857  
  5180.000000   4213276   4218039   4222095   4225541   4228318  
  5170.000000   4230493   4231997   4232906   4233187   4232948  
  5160.000000   4232178   4230968   4229271   4227133   4224487  
  5150.000000   4221381   4217789   4213800   4209422   4204742  
  5140.000000   4199744   4194476   4188900   4183058   4176936  
  5130.000000   4170598   4164051   4157354   4150496   4143505  
  5120.000000   4136355   4129073   4121655   4114144   4106551  
  5110.000000   4098906   4091198   4083430   4075578   4067654  
  5100.000000   4059662   4051646   4043636   4035670   4027756  
  5090.000000   4019897   4012066   4004251   3996426   3988593  
  5080.000000   3980743   3972885   3965009   3957117   3949196  
  5070.000000   3941249   3933275   3925287   3917287   3909278  
  5060.000000   3901246   3893176   3885046   3876848   3868579  
  5050.000000   3860259   3851909   3843557   3835217   3826900  
  5040.000000   3818601   3810316   3802040   3793773   3785523  
  5030.000000   3777301   3769125   3761005   3752961   3745001  
  5020.000000   3737145   3729399   3721780   3714287   3706934  
  5010.000000   3699712   3692639   3685706   3678939   3672335  
  5000.000000   3665922   3659691   3653664   3647819   3642175  
  4990.000000   3636710   3631452   3626387   3621554   3616941  
  4980.000000   3612589   3608478   3604647   3601077   3597815  
  4970.000000   3594847   3592229   3589949   3588057   3586526  
  4960.000000   3585398   3584635   3584272   3584272   3584672  
  4950.000000   3585433   3586590   3588098   3589988   3592214  
  4940.000000   3594812   3597746   3601059   3604714   3608744  
  4930.000000   3613097   3617793   3622774   3628062   3633619  
  4920.000000   3639484   3645636   3652116   3658900   3666012  
  4910.000000   3673413   3681112   3689066   3697281   3705715  
  4900.000000   3714364   3723188   3732173   3741282   3750505  
  4890.000000   3759822   3769228   3778710   3788250   3797817  
  4880.000000   3807361   3816834   3826172   3835336   3844275  
  4870.000000   3852973   3861395   3869544   3877390   3884946  
  4860.000000   3892188   3899136   3905772   3912120   3918161  
  4850.000000   3923920   3929381   3934582   3939521   3944254  
  4840.000000   3948791   3953188   3957447   3961602   3965637  
  4830.000000   3969566   3973368   3977057   3980615   3984060  
  4820.000000   3987377   3990579   3993656   3996624   3999483  
  4810.000000   4002259   4004958   4007603   4010194   4012741  
  4800.000000   4015236   4017689   4020099   4022483   4024846  
  4790.000000   4027200   4029535   4031844   4034100   4036294  
  4780.000000   4038413   4040471   4042475   4044446   4046380  
  4770.000000   4048275   4050093   4051805   4053369   4054772  
  4760.000000   4056003   4057088   4058039   4058894   4059656  
  4750.000000   4060340   4060922   4061400   4061742   4061946  
  4740.000000   4061995   4061901   4061658   4061288   4060787  
  4730.000000   4060171   4059435   4058586   4057611   4056515  
  4720.000000   4055283   4053923   4052435   4050838   4049152  
  4710.000000   4047414   4045654   4043912   4042213   4040579  
  4700.000000   4039015   4037520   4036077   4034670   4033283  
  4690.000000   4031906   4030538   4029191   4027880   4026619  
  4680.000000   4025418   4024265   4023141   4022007   4020828  
  4670.000000   4019568   4018219   4016785   4015306   4013824  
  4660.000000   4012401   4011080   4009902   4008878   4008013  
  4650.000000   4007292   4006702   4006227   4005866   4005619  
  4640.000000   4005497   4005507   4005654   4005928   4006311  
  4630.000000   4006765   4007248   4007709   4008109   4008414  
  4620.000000   4008607   4008685   4008655   4008524   4008299  
  4610.000000   4007984   4007576   4007083   4006511   4005889  
  4600.000000   4005247   4004627   4004056   4003559   4003132  
  4590.000000   4002763   4002416   4002062   4001658   4001182  
  4580.000000   4000608   3999930   3999136   3998230   3997210  
  4570.000000   3996088   3994867   3993563   3992175   3990712  
  4560.000000   3989166   3987540   3985825   3984032   3982164  
  4550.000000   3980240   3978271   3976270   3974236   3972165  
  4540.000000   3970049   3967882   3965667   3963415   3961149  
  4530.000000   3958890   3956669   3954495   3952393   3950361  
  4520.000000   3948426   3946579   3944858   3943254   3941815  
  4510.000000   3940534   3939477   3938652   3938158   3938023  
  4500.000000   3938368   3939216   3940672   3942721   3945431  
  4490.000000   3948757   3952757   3957389   3962729   3968746  
  4480.000000   3975520   3983010   3991271   4000237   4009938  
  4470.000000   4020291   4031314   4042922   4055115   4067795  
  4460.000000   4080940   4094437   4108240   4122236   4136378  
  4450.000000   4150568   4164774   4178932   4193030   4207045  
  4440.000000   4220984   4234861   4248694   4262515   4276330  
  4430.000000   4290174   4304021   4317884   4331686   4345406  
  4420.000000   4358914   4372156   4384978   4397327   4409062  
  4410.000000   4420161   4430511   4440115   4448874   4456795  
  4400.000000   4463789   4469882   4475022   4479287   4482695  
  4390.000000   4485383   4487427   4488986   4490143   4491032  
  4380.000000   4491706   4492256   4492719   4493169   4493655  
  4370.000000   4494261   4495065   4496157   4497618   4499515  
  4360.000000   4501905   4504811   4508241   4512175   4516568  
  4350.000000   4521367   4526488   4531873   4537442   4543159  
  4340.000000   4548969   4554840   4560683   4566376   4571701  
  4330.000000   4576382   4580083   4582498   4583391   4582700  
  4320.000000   4580538   4577228   4573204   4568986   4565009  
  4310.000000   4561633   4559012   4557194   4556064   4555492  
  4300.000000   4555306   4555391   4555652   4556037   4556508  
  4290.000000   4557025   4557564   4558087   4558599   4559110  
  4280.000000   4559666   4560320   4561124   4562123   4563326  
  4270.000000   4564737   4566308   4567985   4569651   4571170  
  4260.000000   4572346   4572981   4572871   4571880   4569948  
  4250.000000   4567147   4563647   4559719   4555649   4551728  
  4240.000000   4548156   4545063   4542453   4540277   4538403  
  4230.000000   4536707   4535051   4533331   4531472   4529422  
  4220.000000   4527176   4524741   4522175   4519536   4516930  
  4210.000000   4514434   4512154   4510138   4508442   4507064  
  4200.000000   4506009   4505238   4504739   4504468   4504425  
  4190.000000   4504570   4504921   4505443   4506167   4507062  
  4180.000000   4508167   4509453   4510968   4512690   4514687  
  4170.000000   4516961   4519609   4522656   4526207   4530273  
  4160.000000   4534926   4540128   4545900   4552163   4558924  
  4150.000000   4566106   4573734   4581755   4590217   4599078  
  4140.000000   4608398   4618142   4628378   4639076   4650303  
  4130.000000   4662021   4674277   4687014   4700253   4713936  
  4120.000000   4728090   4742681   4757760   4773316   4789401  
  4110.000000   4805989   4823096   4840658   4858642   4876952  
  4100.000000   4895534   4914294   4933192   4952174   4971238  
  4090.000000   4990375   5009608   5028951   5048420   5068029  
  4080.000000   5087771   5107659   5127663   5147787   5167969  
  4070.000000   5188180   5208309   5228300   5248022   5267437  
  4060.000000   5286440   5305037   5323144   5340784   5357862  
  4050.000000   5374407   5390330   5405698   5420446   5434668  
  4040.000000   5448278   5461330   5473674   5485322   5496107  
  4030.000000   5506068   5515086   5523237   5530427   5536707  
  4020.000000   5541932   5546141   5549272   5551411   5552505  
  4010.000000   5552746   5552255   5551102   5549052   5546207  
  4000.000000   5542959  
##END= 
