##TITLE= Sample 013 By ssteindl date Donnerstag, November 22 2018
##JCAMP-DX= 4.24
##DATA TYPE= INFRARED SPECTRUM
##ORIGIN= Exported PE Spectrum Data File
##OWNER= Sandra Steindl
##DATE= 18/11/22
##TIME= 13:22:31.00
##SPECTROMETER/DATA SYSTEM= PERKIN-ELMER Frontier FT-IR/NIR IR
##INSTRUMENT PARAMETERS=
  APODIZATION=stark
  DETECTOR=INGAAS
##RESOLUTION= 16.000000
##DELTAX= -2.000000
##XUNITS= 1/CM
##YUNITS= A
##XFACTOR= 1.00
##YFACTOR= 0.00000011920928955078
##FIRSTX= 10000.00
##LASTX= 4000.00
##NPOINTS= 3001
##FIRSTY= 0.231861
##MAXY= 0.663313
##MINY= 0.193789
##XYDATA= (X++(Y..Y))
 10000.000000   1944989   1937613   1932330   1931384   1934018  
  9990.000000   1937506   1939857   1940487   1939494   1937449  
  9980.000000   1935707   1935592   1937571   1940884   1944204  
  9970.000000   1946000   1945239   1941677   1936045   1929655  
  9960.000000   1923926   1920015   1918452   1919341   1922354  
  9950.000000   1927098   1933084   1939801   1946618   1952757  
  9940.000000   1957373   1959685   1959186   1955714   1949540  
  9930.000000   1941230   1931644   1921734   1912544   1905041  
  9920.000000   1900007   1897881   1898552   1901380   1905217  
  9910.000000   1908799   1911030   1911418   1910170   1908143  
  9900.000000   1906522   1906358   1908259   1912105   1917201  
  9890.000000   1922414   1926609   1928884   1928800   1926395  
  9880.000000   1922100   1916631   1910836   1905599   1901680  
  9870.000000   1899566   1899326   1900581   1902584   1904477  
  9860.000000   1905484   1905225   1903704   1901365   1898839  
  9850.000000   1896770   1895606   1895483   1896251   1897506  
  9840.000000   1898742   1899418   1899074   1897382   1894243  
  9830.000000   1889844   1884693   1879519   1875124   1872093  
  9820.000000   1870669   1870605   1871351   1872216   1872655  
  9810.000000   1872448   1871704   1870823   1870272   1870479  
  9800.000000   1871715   1874110   1877667   1882272   1887613  
  9790.000000   1893131   1897984   1901214   1902005   1900015  
  9780.000000   1895590   1889704   1883683   1878695   1875335  
  9770.000000   1873388   1871962   1869921   1866370   1861146  
  9760.000000   1854830   1848632   1843802   1841261   1841228  
  9750.000000   1843284   1846615   1850306   1853645   1856089  
  9740.000000   1857310   1856989   1854949   1851142   1845936  
  9730.000000   1840073   1834660   1830802   1829265   1830201  
  9720.000000   1833047   1836855   1840586   1843656   1846011  
  9710.000000   1848151   1850694   1854001   1857859   1861465  
  9700.000000   1863757   1863759   1861068   1855888   1849048  
  9690.000000   1841598   1834523   1828479   1823686   1820103  
  9680.000000   1817507   1815765   1814813   1814721   1815539  
  9670.000000   1817277   1819786   1822810   1825958   1828780  
  9660.000000   1830817   1831650   1831071   1829087   1826068  
  9650.000000   1822611   1819424   1817054   1815667   1814972  
  9640.000000   1814323   1813000   1810548   1806988   1802869  
  9630.000000   1799009   1796206   1794844   1794809   1795509  
  9620.000000   1796225   1796399   1795920   1795145   1794730  
  9610.000000   1795385   1797563   1801389   1806582   1812632  
  9600.000000   1818901   1824784   1829785   1833522   1835731  
  9590.000000   1836239   1834987   1832078   1827777   1822529  
  9580.000000   1816847   1811266   1806190   1801936   1798615  
  9570.000000   1796260   1794699   1793678   1792797   1791635  
  9560.000000   1789837   1787187   1783726   1779651   1775331  
  9550.000000   1771083   1767191   1763772   1760925   1758748  
  9540.000000   1757436   1757269   1758471   1761128   1765026  
  9530.000000   1769713   1774592   1779135   1783024   1786184  
  9520.000000   1788677   1790499   1791465   1791186   1789275  
  9510.000000   1785582   1780402   1774481   1768776   1764144  
  9500.000000   1760967   1759062   1757762   1756258   1753977  
  9490.000000   1750823   1747199   1743736   1740957   1739010  
  9480.000000   1737658   1736473   1735185   1733895   1733151  
  9470.000000   1733699   1736127   1740483   1746149   1752005  
  9460.000000   1756849   1759834   1760762   1760050   1758488  
  9450.000000   1756834   1755537   1754614   1753793   1752735  
  9440.000000   1751299   1749597   1747930   1746546   1745456  
  9430.000000   1744413   1743033   1741072   1738595   1736069  
  9420.000000   1734187   1733657   1734850   1737727   1741760  
  9410.000000   1746252   1750495   1754054   1756786   1758746  
  9400.000000   1760065   1760719   1760522   1759066   1755946  
  9390.000000   1750885   1743984   1735738   1727006   1718816  
  9380.000000   1712139   1707728   1705927   1706669   1709430  
  9370.000000   1713423   1717735   1721605   1724547   1726445  
  9360.000000   1727482   1728028   1728496   1729187   1730243  
  9350.000000   1731593   1733035   1734259   1734941   1734754  
  9340.000000   1733448   1730869   1727046   1722193   1716701  
  9330.000000   1711045   1705651   1700830   1696668   1693151  
  9320.000000   1690200   1687920   1686584   1686671   1688572  
  9310.000000   1692360   1697569   1703198   1707995   1710727  
  9300.000000   1710681   1707759   1702640   1696406   1690267  
  9290.000000   1685109   1681361   1679004   1677773   1677429  
  9280.000000   1677843   1679091   1681211   1684142   1687519  
  9270.000000   1690794   1693381   1694854   1695144   1694423  
  9260.000000   1693094   1691445   1689634   1687562   1685066  
  9250.000000   1682047   1678640   1675298   1672654   1671370  
  9240.000000   1671812   1674006   1677558   1681861   1686201  
  9230.000000   1689981   1692815   1694537   1695182   1694862  
  9220.000000   1693752   1692005   1689800   1687303   1684689  
  9210.000000   1682119   1679722   1677612   1675847   1674499  
  9200.000000   1673584   1673118   1673039   1673232   1673522  
  9190.000000   1673696   1673571   1673028   1672060   1670754  
  9180.000000   1669268   1667783   1666481   1665526   1665047  
  9170.000000   1665124   1665739   1666779   1668014   1669130  
  9160.000000   1669763   1669624   1668578   1666707   1664280  
  9150.000000   1661672   1659257   1657293   1655868   1654888  
  9140.000000   1654148   1653409   1652488   1651287   1649805  
  9130.000000   1648132   1646420   1644844   1643554   1642664  
  9120.000000   1642244   1642302   1642797   1643627   1644703  
  9110.000000   1645934   1647265   1648609   1649842   1650773  
  9100.000000   1651194   1650918   1649902   1648305   1646524  
  9090.000000   1645075   1644420   1644829   1646258   1648370  
  9080.000000   1650609   1652431   1653482   1653718   1653356  
  9070.000000   1652752   1652226   1651926   1651792   1651602  
  9060.000000   1651115   1650205   1648915   1647457   1646088  
  9050.000000   1645064   1644517   1644484   1644857   1645494  
  9040.000000   1646216   1646849   1647202   1647083   1646345  
  9030.000000   1644922   1642873   1640372   1637685   1635079  
  9020.000000   1632773   1630860   1629358   1628208   1627362  
  9010.000000   1626782   1626432   1626261   1626169   1626050  
  9000.000000   1625853   1625637   1625618   1626108   1627408  
  8990.000000   1629623   1632559   1635710   1638418   1640086  
  8980.000000   1640406   1639481   1637802   1636036   1634782  
  8970.000000   1634322   1634561   1635084   1635372   1635025  
  8960.000000   1633923   1632267   1630449   1628920   1627998  
  8950.000000   1627839   1628403   1629564   1631161   1633039  
  8940.000000   1635041   1636975   1638609   1639699   1640070  
  8930.000000   1639674   1638647   1637250   1635795   1634523  
  8920.000000   1633546   1632829   1632248   1631681   1631078  
  8910.000000   1630491   1630037   1629830   1629913   1630227  
  8900.000000   1630634   1630979   1631156   1631149   1631052  
  8890.000000   1631021   1631245   1631882   1633026   1634671  
  8880.000000   1636692   1638870   1640914   1642523   1643458  
  8870.000000   1643612   1643083   1642124   1641102   1640338  
  8860.000000   1640034   1640159   1640500   1640744   1640632  
  8850.000000   1640089   1639260   1638504   1638250   1638878  
  8840.000000   1640557   1643218   1646560   1650155   1653546  
  8830.000000   1656343   1658295   1659310   1659464   1658953  
  8820.000000   1658059   1657092   1656318   1655907   1655870  
  8810.000000   1656086   1656355   1656482   1656365   1656032  
  8800.000000   1655618   1655293   1655161   1655202   1655277  
  8790.000000   1655207   1654887   1654380   1653953   1653992  
  8780.000000   1654864   1656762   1659595   1662983   1666359  
  8770.000000   1669132   1670877   1671448   1671020   1669992  
  8760.000000   1668867   1668085   1667913   1668398   1669371  
  8750.000000   1670544   1671595   1672285   1672503   1672302  
  8740.000000   1671857   1671404   1671164   1671248   1671643  
  8730.000000   1672196   1672700   1672963   1672898   1672570  
  8720.000000   1672179   1672016   1672362   1673407   1675188  
  8710.000000   1677562   1680246   1682859   1685026   1686427  
  8700.000000   1686887   1686401   1685173   1683569   1682062  
  8690.000000   1681101   1681001   1681842   1683461   1685485  
  8680.000000   1687467   1689018   1689948   1690296   1690301  
  8670.000000   1690268   1690468   1691025   1691949   1693156  
  8660.000000   1694593   1696257   1698232   1700615   1703442  
  8650.000000   1706636   1709987   1713236   1716170   1718696  
  8640.000000   1720870   1722826   1724704   1726537   1728236  
  8630.000000   1729633   1730585   1731079   1731266   1731447  
  8620.000000   1731944   1732993   1734622   1736665   1738813  
  8610.000000   1740753   1742259   1743273   1743872   1744229  
  8600.000000   1744513   1744856   1745337   1746008   1746929  
  8590.000000   1748152   1749712   1751550   1753501   1755298  
  8580.000000   1756639   1757305   1757238   1756609   1755788  
  8570.000000   1755257   1755469   1756710   1759010   1762130  
  8560.000000   1765610   1768895   1771464   1772966   1773316  
  8550.000000   1772705   1771570   1770459   1769892   1770187  
  8540.000000   1771371   1773172   1775127   1776763   1777779  
  8530.000000   1778168   1778224   1778423   1779225   1780876  
  8520.000000   1783282   1786051   1788635   1790567   1791645  
  8510.000000   1792022   1792137   1792551   1793706   1795761  
  8500.000000   1798518   1801511   1804184   1806060   1806899  
  8490.000000   1806716   1805767   1804407   1802989   1801791  
  8480.000000   1800998   1800726   1801034   1801951   1803463  
  8470.000000   1805509   1807943   1810580   1813215   1815694  
  8460.000000   1817929   1819906   1821664   1823228   1824591  
  8450.000000   1825690   1826450   1826826   1826855   1826662  
  8440.000000   1826440   1826390   1826648   1827238   1828058  
  8430.000000   1828927   1829651   1830093   1830214   1830103  
  8420.000000   1829933   1829930   1830273   1831090   1832407  
  8410.000000   1834181   1836290   1838570   1840830   1842881  
  8400.000000   1844545   1845674   1846181   1846046   1845349  
  8390.000000   1844237   1842907   1841549   1840309   1839274  
  8380.000000   1838451   1837831   1837384   1837150   1837187  
  8370.000000   1837595   1838417   1839619   1841052   1842467  
  8360.000000   1843586   1844153   1844036   1843243   1841935  
  8350.000000   1840362   1838789   1837455   1836523   1836098  
  8340.000000   1836213   1836856   1837954   1839380   1840925  
  8330.000000   1842314   1843247   1843472   1842878   1841525  
  8320.000000   1839656   1837609   1835737   1834295   1833387  
  8310.000000   1832970   1832906   1833068   1833378   1833857  
  8300.000000   1834548   1835481   1836579   1837655   1838451  
  8290.000000   1838717   1838322   1837298   1835846   1834263  
  8280.000000   1832849   1831816   1831225   1831011   1831018  
  8270.000000   1831095   1831121   1831045   1830838   1830495  
  8260.000000   1829983   1829267   1828321   1827166   1825891  
  8250.000000   1824629   1823516   1822631   1821958   1821392  
  8240.000000   1820774   1819964   1818895   1817600   1816202  
  8230.000000   1814857   1813688   1812740   1811965   1811267  
  8220.000000   1810543   1809759   1808949   1808232   1807737  
  8210.000000   1807570   1807736   1808136   1808566   1808785  
  8200.000000   1808566   1807758   1806317   1804306   1801883  
  8190.000000   1799250   1796606   1794110   1791853   1789864  
  8180.000000   1788116   1786560   1785146   1783856   1782697  
  8170.000000   1781701   1780889   1780255   1779738   1779238  
  8160.000000   1778639   1777853   1776857   1775705   1774515  
  8150.000000   1773426   1772548   1771909   1771443   1770999  
  8140.000000   1770394   1769470   1768150   1766451   1764487  
  8130.000000   1762410   1760379   1758506   1756848   1755405  
  8120.000000   1754136   1752995   1751933   1750933   1749994  
  8110.000000   1749154   1748462   1747981   1747759   1747798  
  8100.000000   1748039   1748333   1748474   1748222   1747391  
  8090.000000   1745902   1743844   1741461   1739096   1737093  
  8080.000000   1735691   1734962   1734784   1734910   1735042  
  8070.000000   1734948   1734503   1733726   1732719   1731620  
  8060.000000   1730532   1729497   1728502   1727509   1726501  
  8050.000000   1725479   1724471   1723490   1722511   1721475  
  8040.000000   1720301   1718945   1717431   1715867   1714417  
  8030.000000   1713243   1712438   1711982   1711741   1711519  
  8020.000000   1711130   1710471   1709554   1708496   1707464  
  8010.000000   1706601   1705974   1705551   1705223   1704849  
  8000.000000   1704316   1703571   1702636   1701582   1700503  
  7990.000000   1699480   1698564   1697769   1697085   1696486  
  7980.000000   1695947   1695450   1694991   1694585   1694262  
  7970.000000   1694065   1694027   1694158   1694419   1694721  
  7960.000000   1694945   1694961   1694686   1694098   1693257  
  7950.000000   1692268   1691253   1690293   1689418   1688601  
  7940.000000   1687801   1687004   1686249   1685644   1685309  
  7930.000000   1685346   1685765   1686486   1687346   1688158  
  7920.000000   1688774   1689116   1689200   1689082   1688829  
  7910.000000   1688460   1687947   1687230   1686278   1685125  
  7900.000000   1683894   1682775   1681962   1681595   1681700  
  7890.000000   1682186   1682871   1683546   1684039   1684263  
  7880.000000   1684226   1684011   1683729   1683489   1683366  
  7870.000000   1683395   1683579   1683893   1684294   1684713  
  7860.000000   1685060   1685231   1685123   1684671   1683870  
  7850.000000   1682797   1681598   1680462   1679571   1679049  
  7840.000000   1678923   1679119   1679476   1679806   1679935  
  7830.000000   1679763   1679286   1678592   1677830   1677159  
  7820.000000   1676690   1676453   1676389   1676372   1676262  
  7810.000000   1675958   1675440   1674779   1674107   1673570  
  7800.000000   1673259   1673180   1673241   1673291   1673181  
  7790.000000   1672822   1672214   1671450   1670664   1669982  
  7780.000000   1669466   1669100   1668803   1668467   1668007  
  7770.000000   1667380   1666598   1665694   1664701   1663630  
  7760.000000   1662466   1661197   1659838   1658454   1657156  
  7750.000000   1656076   1655323   1654950   1654923   1655141  
  7740.000000   1655452   1655701   1655769   1655587   1655151  
  7730.000000   1654505   1653728   1652915   1652157   1651528  
  7720.000000   1651069   1650784   1650634   1650553   1650463  
  7710.000000   1650296   1650011   1649604   1649089   1648498  
  7700.000000   1647847   1647144   1646389   1645591   1644784  
  7690.000000   1644023   1643378   1642892   1642561   1642316  
  7680.000000   1642041   1641614   1640958   1640086   1639103  
  7670.000000   1638179   1637492   1637157   1637196   1637514  
  7660.000000   1637946   1638300   1638436   1638289   1637894  
  7650.000000   1637351   1636797   1636351   1636098   1636071  
  7640.000000   1636267   1636650   1637174   1637776   1638385  
  7630.000000   1638924   1639319   1639509   1639473   1639230  
  7620.000000   1638844   1638406   1638016   1637754   1637665  
  7610.000000   1637756   1637995   1638335   1638720   1639102  
  7600.000000   1639451   1639738   1639944   1640043   1640013  
  7590.000000   1639828   1639490   1639020   1638484   1637977  
  7580.000000   1637619   1637520   1637761   1638368   1639302  
  7570.000000   1640463   1641713   1642901   1643906   1644650  
  7560.000000   1645122   1645359   1645450   1645493   1645605  
  7550.000000   1645873   1646367   1647105   1648068   1649192  
  7540.000000   1650387   1651556   1652625   1653554   1654361  
  7530.000000   1655103   1655871   1656746   1657781   1658978  
  7520.000000   1660309   1661714   1663149   1664578   1666003  
  7510.000000   1667428   1668858   1670265   1671606   1672809  
  7500.000000   1673828   1674646   1675316   1675939   1676656  
  7490.000000   1677598   1678867   1680497   1682455   1684642  
  7480.000000   1686931   1689190   1691328   1693300   1695129  
  7470.000000   1696882   1698661   1700554   1702620   1704851  
  7460.000000   1707199   1709564   1711856   1714006   1716010  
  7450.000000   1717913   1719795   1721731   1723767   1725898  
  7440.000000   1728084   1730275   1732451   1734634   1736898  
  7430.000000   1739328   1741995   1744902   1747987   1751121  
  7420.000000   1754164   1756998   1759574   1761914   1764104  
  7410.000000   1766259   1768484   1770854   1773399   1776118  
  7400.000000   1778977   1781932   1784923   1787881   1790718  
  7390.000000   1793348   1795697   1797733   1799476   1801001  
  7380.000000   1802428   1803887   1805485   1807282   1809278  
  7370.000000   1811434   1813687   1815985   1818295   1820614  
  7360.000000   1822955   1825337   1827768   1830246   1832754  
  7350.000000   1835277   1837803   1840330   1842863   1845404  
  7340.000000   1847941   1850449   1852885   1855206   1857376  
  7330.000000   1859383   1861239   1862977   1864641   1866270  
  7320.000000   1867882   1869483   1871061   1872624   1874190  
  7310.000000   1875810   1877537   1879421   1881458   1883602  
  7300.000000   1885745   1887766   1889551   1891047   1892269  
  7290.000000   1893299   1894245   1895207   1896232   1897312  
  7280.000000   1898395   1899412   1900321   1901115   1901828  
  7270.000000   1902515   1903218   1903960   1904741   1905551  
  7260.000000   1906401   1907325   1908388   1909648   1911144  
  7250.000000   1912852   1914703   1916586   1918405   1920091  
  7240.000000   1921657   1923157   1924698   1926365   1928227  
  7230.000000   1930284   1932519   1934865   1937282   1939721  
  7220.000000   1942172   1944620   1947082   1949568   1952123  
  7210.000000   1954789   1957633   1960703   1964038   1967627  
  7200.000000   1971436   1975391   1979430   1983492   1987558  
  7190.000000   1991612   1995663   1999688   2003669   2007552  
  7180.000000   2011311   2014927   2018435   2021890   2025384  
  7170.000000   2028992   2032785   2036789   2041027   2045481  
  7160.000000   2050141   2054967   2059928   2064961   2070020  
  7150.000000   2075048   2080043   2085027   2090100   2095358  
  7140.000000   2100919   2106821   2113062   2119545   2126172  
  7130.000000   2132825   2139460   2146064   2152697   2159413  
  7120.000000   2166280   2173306   2180486   2187767   2195111  
  7110.000000   2202466   2209819   2217146   2224452   2231729  
  7100.000000   2239005   2246316   2253736   2261337   2269189  
  7090.000000   2277302   2285648   2294127   2302634   2311060  
  7080.000000   2319362   2327534   2335635   2343725   2351861  
  7070.000000   2360056   2368302   2376572   2384863   2393194  
  7060.000000   2401613   2410164   2418862   2427680   2436543  
  7050.000000   2445356   2454028   2462507   2470780   2478871  
  7040.000000   2486815   2494653   2502412   2510125   2517825  
  7030.000000   2525561   2533372   2541275   2549233   2557169  
  7020.000000   2564959   2572495   2579698   2586576   2593202  
  7010.000000   2599709   2606223   2612850   2619616   2626507  
  7000.000000   2633445   2640363   2647188   2653893   2660449  
  6990.000000   2666862   2673113   2679205   2685113   2690845  
  6980.000000   2696397   2701796   2707051   2712184   2717183  
  6970.000000   2722052   2726759   2731307   2735674   2739878  
  6960.000000   2743919   2747829   2751619   2755326   2758959  
  6950.000000   2762538   2766043   2769462   2772745   2775868  
  6940.000000   2778806   2781578   2784218   2786787   2789322  
  6930.000000   2791848   2794337   2796754   2799050   2801219  
  6920.000000   2803279   2805303   2807356   2809503   2811745  
  6910.000000   2814047   2816328   2818512   2820535   2822381  
  6900.000000   2824061   2825615   2827076   2828476   2829828  
  6890.000000   2831149   2832455   2833776   2835129   2836524  
  6880.000000   2837938   2839336   2840668   2841907   2843047  
  6870.000000   2844121   2845175   2846257   2847389   2848574  
  6860.000000   2849787   2851006   2852210   2853394   2854549  
  6850.000000   2855666   2856715   2857665   2858490   2859194  
  6840.000000   2859809   2860396   2861007   2861669   2862359  
  6830.000000   2863024   2863596   2864043   2864375   2864664  
  6820.000000   2865000   2865468   2866094   2866852   2867658  
  6810.000000   2868420   2869060   2869546   2869879   2870084  
  6800.000000   2870177   2870160   2870020   2869760   2869405  
  6790.000000   2869021   2868690   2868486   2868435   2868513  
  6780.000000   2868637   2868714   2868661   2868446   2868086  
  6770.000000   2867638   2867169   2866730   2866343   2866006  
  6760.000000   2865698   2865404   2865108   2864808   2864498  
  6750.000000   2864178   2863850   2863529   2863238   2863008  
  6740.000000   2862856   2862774   2862719   2862622   2862411  
  6730.000000   2862046   2861534   2860936   2860340   2859829  
  6720.000000   2859442   2859161   2858917   2858627   2858220  
  6710.000000   2857672   2857002   2856260   2855492   2854733  
  6700.000000   2853982   2853233   2852469   2851699   2850934  
  6690.000000   2850195   2849482   2848781   2848047   2847242  
  6680.000000   2846332   2845317   2844213   2843053   2841856  
  6670.000000   2840628   2839353   2838014   2836599   2835127  
  6660.000000   2833626   2832139   2830687   2829281   2827900  
  6650.000000   2826526   2825137   2823737   2822333   2820941  
  6640.000000   2819556   2818159   2816714   2815189   2813567  
  6630.000000   2811867   2810124   2808385   2806680   2805020  
  6620.000000   2803382   2801735   2800047   2798307   2796523  
  6610.000000   2794718   2792915   2791128   2789357   2787590  
  6600.000000   2785814   2784021   2782209   2780381   2778541  
  6590.000000   2776695   2774854   2773038   2771278   2769605  
  6580.000000   2768040   2766576   2765179   2763792   2762353  
  6570.000000   2760819   2759179   2757456   2755697   2753948  
  6560.000000   2752244   2750596   2749005   2747469   2745997  
  6550.000000   2744607   2743313   2742108   2740957   2739799  
  6540.000000   2738570   2737228   2735774   2734253   2732733  
  6530.000000   2731276   2729911   2728625   2727374   2726115  
  6520.000000   2724830   2723536   2722280   2721110   2720043  
  6510.000000   2719055   2718082   2717049   2715905   2714639  
  6500.000000   2713291   2711926   2710609   2709374   2708220  
  6490.000000   2707118   2706034   2704952   2703882   2702851  
  6480.000000   2701886   2700992   2700145   2699293   2698379  
  6470.000000   2697358   2696218   2694973   2693665   2692341  
  6460.000000   2691045   2689811   2688662   2687613   2686671  
  6450.000000   2685834   2685085   2684395   2683726   2683036  
  6440.000000   2682298   2681497   2680636   2679728   2678792  
  6430.000000   2677844   2676904   2675997   2675156   2674420  
  6420.000000   2673824   2673381   2673074   2672852   2672642  
  6410.000000   2672368   2671978   2671452   2670814   2670114  
  6400.000000   2669410   2668752   2668172   2667679   2667267  
  6390.000000   2666920   2666622   2666351   2666083   2665794  
  6380.000000   2665463   2665081   2664652   2664197   2663744  
  6370.000000   2663320   2662933   2662574   2662218   2661840  
  6360.000000   2661418   2660950   2660447   2659927   2659400  
  6350.000000   2658865   2658309   2657714   2657067   2656364  
  6340.000000   2655613   2654829   2654022   2653205   2652383  
  6330.000000   2651570   2650778   2650031   2649344   2648727  
  6320.000000   2648162   2647622   2647058   2646429   2645698  
  6310.000000   2644854   2643891   2642818   2641635   2640345  
  6300.000000   2638943   2637445   2635870   2634263   2632660  
  6290.000000   2631097   2629576   2628083   2626576   2625022  
  6280.000000   2623388   2621676   2619894   2618066   2616201  
  6270.000000   2614302   2612351   2610336   2608244   2606087  
  6260.000000   2603883   2601665   2599454   2597266   2595100  
  6250.000000   2592954   2590820   2588703   2586604   2584527  
  6240.000000   2582463   2580399   2578314   2576194   2574039  
  6230.000000   2571864   2569690   2567535   2565404   2563282  
  6220.000000   2561142   2558959   2556723   2554446   2552161  
  6210.000000   2549910   2547726   2545623   2543591   2541598  
  6200.000000   2539605   2537581   2535508   2533392   2531253  
  6190.000000   2529127   2527053   2525064   2523184   2521415  
  6180.000000   2519736   2518105   2516467   2514765   2512962  
  6170.000000   2511045   2509039   2506988   2504951   2502977  
  6160.000000   2501097   2499314   2497616   2495980   2494388  
  6150.000000   2492826   2491290   2489775   2488274   2486773  
  6140.000000   2485265   2483743   2482216   2480700   2479216  
  6130.000000   2477773   2476377   2475015   2473678   2472357  
  6120.000000   2471060   2469796   2468582   2467416   2466292  
  6110.000000   2465180   2464061   2462918   2461767   2460638  
  6100.000000   2459581   2458636   2457832   2457163   2456609  
  6090.000000   2456132   2455706   2455306   2454932   2454583  
  6080.000000   2454269   2453989   2453749   2453548   2453400  
  6070.000000   2453314   2453311   2453391   2453557   2453784  
  6060.000000   2454057   2454352   2454673   2455027   2455445  
  6050.000000   2455943   2456545   2457243   2458037   2458908  
  6040.000000   2459863   2460900   2462044   2463300   2464680  
  6030.000000   2466166   2467738   2469363   2471022   2472700  
  6020.000000   2474407   2476147   2477938   2479775   2481657  
  6010.000000   2483564   2485486   2487408   2489330   2491246  
  6000.000000   2493161   2495067   2496966   2498852   2500736  
  5990.000000   2502628   2504555   2506538   2508607   2510773  
  5980.000000   2513053   2515443   2517943   2520537   2523213  
  5970.000000   2525942   2528706   2531479   2534258   2537044  
  5960.000000   2539868   2542756   2545744   2548840   2552045  
  5950.000000   2555325   2558649   2561979   2565302   2568620  
  5940.000000   2571959   2575348   2578817   2582379   2586032  
  5930.000000   2589756   2593522   2597296   2601040   2604716  
  5920.000000   2608287   2611720   2614994   2618106   2621071  
  5910.000000   2623917   2626678   2629381   2632040   2634662  
  5900.000000   2637244   2639800   2642345   2644919   2647554  
  5890.000000   2650283   2653104   2656004   2658941   2661879  
  5880.000000   2664778   2667621   2670393   2673082   2675668  
  5870.000000   2678123   2680416   2682530   2684473   2686282  
  5860.000000   2688017   2689743   2691516   2693367   2695306  
  5850.000000   2697333   2699442   2701637   2703930   2706330  
  5840.000000   2708835   2711422   2714058   2716698   2719312  
  5830.000000   2721883   2724420   2726939   2729458   2731987  
  5820.000000   2734518   2737037   2739525   2741973   2744372  
  5810.000000   2746727   2749025   2751264   2753414   2755472  
  5800.000000   2757419   2759281   2761066   2762818   2764534  
  5790.000000   2766220   2767819   2769286   2770527   2771478  
  5780.000000   2772058   2772227   2771941   2771204   2770031  
  5770.000000   2768488   2766654   2764648   2762575   2760544  
  5760.000000   2758611   2756817   2755159   2753634   2752230  
  5750.000000   2750957   2749822   2748837   2747994   2747261  
  5740.000000   2746593   2745936   2745257   2744540   2743807  
  5730.000000   2743084   2742412   2741809   2741284   2740819  
  5720.000000   2740397   2739991   2739590   2739177   2738751  
  5710.000000   2738303   2737835   2737352   2736873   2736423  
  5700.000000   2736034   2735730   2735520   2735397   2735336  
  5690.000000   2735313   2735303   2735298   2735288   2735271  
  5680.000000   2735231   2735148   2734988   2734726   2734339  
  5670.000000   2733824   2733176   2732403   2731492   2730433  
  5660.000000   2729203   2727802   2726238   2724552   2722796  
  5650.000000   2721032   2719299   2717626   2716013   2714454  
  5640.000000   2712937   2711462   2710028   2708636   2707281  
  5630.000000   2705945   2704610   2703263   2701909   2700571  
  5620.000000   2699285   2698080   2696973   2695953   2694993  
  5610.000000   2694053   2693107   2692145   2691178   2690227  
  5600.000000   2689313   2688444   2687609   2686790   2685964  
  5590.000000   2685114   2684232   2683311   2682344   2681320  
  5580.000000   2680226   2679052   2677801   2676493   2675157  
  5570.000000   2673824   2672519   2671252   2670020   2668819  
  5560.000000   2667642   2666490   2665366   2664272   2663200  
  5550.000000   2662133   2661049   2659934   2658789   2657631  
  5540.000000   2656490   2655390   2654344   2653346   2652374  
  5530.000000   2651403   2650414   2649405   2648381   2647351  
  5520.000000   2646318   2645272   2644199   2643088   2641939  
  5510.000000   2640767   2639597   2638451   2637332   2636228  
  5500.000000   2635105   2633935   2632695   2631391   2630041  
  5490.000000   2628681   2627329   2625996   2624667   2623325  
  5480.000000   2621944   2620516   2619032   2617497   2615902  
  5470.000000   2614239   2612489   2610647   2608713   2606710  
  5460.000000   2604659   2602583   2600483   2598347   2596148  
  5450.000000   2593868   2591504   2589082   2586645   2584244  
  5440.000000   2581918   2579684   2577546   2575497   2573538  
  5430.000000   2571667   2569893   2568202   2566573   2564963  
  5420.000000   2563342   2561691   2560042   2558448   2556998  
  5410.000000   2555750   2554742   2553939   2553293   2552724  
  5400.000000   2552194   2551677   2551203   2550794   2550499  
  5390.000000   2550319   2550268   2550329   2550524   2550870  
  5380.000000   2551429   2552229   2553306   2554624   2556147  
  5370.000000   2557785   2559501   2561237   2563023   2564857  
  5360.000000   2566810   2568892   2571174   2573658   2576428  
  5350.000000   2579506   2582996   2586918   2591353   2596263  
  5340.000000   2601674   2607505   2613782   2620446   2627560  
  5330.000000   2635086   2643093   2651525   2660438   2669770  
  5320.000000   2679609   2689934   2700886   2712467   2724819  
  5310.000000   2737906   2751816   2766458   2781891   2798031  
  5300.000000   2814969   2832672   2851280   2870800   2891378  
  5290.000000   2912987   2935691   2959356   2983920   3009166  
  5280.000000   3035008   3061302   3088095   3115407   3143397  
  5270.000000   3172119   3201621   3231774   3262385   3293187  
  5260.000000   3323956   3354571   3385020   3415396   3445765  
  5250.000000   3476167   3506461   3536467   3565866   3594469  
  5240.000000   3622074   3648738   3674485   3699538   3723955  
  5230.000000   3747888   3771243   3794002   3815942   3837008  
  5220.000000   3857027   3876069   3894105   3911334   3927792  
  5210.000000   3943667   3958914   3973590   3987518   4000669  
  5200.000000   4012869   4024175   4034540   4044140   4052996  
  5190.000000   4061270   4068912   4075984   4082361   4088073  
  5180.000000   4093024   4097297   4100854   4103799   4106085  
  5170.000000   4107782   4108821   4109268   4109090   4108393  
  5160.000000   4107179   4105553   4103488   4101036   4098136  
  5150.000000   4094824   4091064   4086928   4082418   4077612  
  5140.000000   4072501   4067132   4061479   4055581   4049435  
  5130.000000   4043105   4036609   4030005   4023290   4016485  
  5120.000000   4009560   4002532   3995395   3988194   3980957  
  5110.000000   3973730   3966526   3959355   3952196   3945041  
  5100.000000   3937874   3930707   3923554   3916438   3909370  
  5090.000000   3902358   3895390   3888463   3881564   3874696  
  5080.000000   3867854   3861038   3854231   3847412   3840546  
  5070.000000   3833614   3826596   3819502   3812347   3805162  
  5060.000000   3797969   3790786   3783610   3776435   3769244  
  5050.000000   3762028   3754778   3747494   3740177   3732834  
  5040.000000   3725467   3718086   3710701   3703327   3695985  
  5030.000000   3688688   3681454   3674285   3667185   3660150  
  5020.000000   3653187   3646299   3639514   3632844   3626325  
  5010.000000   3619963   3613780   3607762   3601919   3596224  
  5000.000000   3590691   3585303   3580089   3575044   3570216  
  4990.000000   3565603   3561259   3557178   3553408   3549931  
  4980.000000   3546783   3543930   3541400   3539152   3537226  
  4970.000000   3535593   3534312   3533371   3532841   3532708  
  4960.000000   3533032   3533785   3535014   3536677   3538813  
  4950.000000   3541372   3544383   3547787   3551604   3555768  
  4940.000000   3560305   3565162   3570385   3575941   3581885  
  4930.000000   3588190   3594900   3601977   3609447   3617262  
  4920.000000   3625440   3633931   3642749   3651847   3661237  
  4910.000000   3670881   3680791   3690940   3701338   3711957  
  4900.000000   3722791   3733804   3744969   3756249   3767613  
  4890.000000   3779031   3790471   3801905   3813275   3824538  
  4880.000000   3835613   3846453   3856984   3867187   3877011  
  4870.000000   3886464   3895500   3904127   3912288   3919988  
  4860.000000   3927176   3933884   3940095   3945876   3951237  
  4850.000000   3956255   3960941   3965362   3969517   3973459  
  4840.000000   3977182   3980730   3984098   3987325   3990411  
  4830.000000   3993399   3996298   3999153   4001976   4004797  
  4820.000000   4007611   4010417   4013186   4015899   4018524  
  4810.000000   4021049   4023463   4025773   4027988   4030132  
  4800.000000   4032226   4034299   4036374   4038480   4040629  
  4790.000000   4042835   4045093   4047395   4049719   4052051  
  4780.000000   4054368   4056661   4058910   4061107   4063225  
  4770.000000   4065250   4067153   4068923   4070544   4072028  
  4760.000000   4073374   4074603   4075713   4076714   4077593  
  4750.000000   4078357   4078994   4079526   4079956   4080317  
  4740.000000   4080614   4080866   4081061   4081198   4081253  
  4730.000000   4081219   4081077   4080828   4080463   4079987  
  4720.000000   4079400   4078714   4077944   4077116   4076264  
  4710.000000   4075428   4074650   4073962   4073389   4072941  
  4700.000000   4072616   4072407   4072301   4072288   4072357  
  4690.000000   4072501   4072713   4072983   4073302   4073653  
  4680.000000   4074021   4074378   4074703   4074958   4075122  
  4670.000000   4075166   4075085   4074877   4074571   4074201  
  4660.000000   4073829   4073510   4073315   4073299   4073511  
  4650.000000   4073979   4074714   4075705   4076924   4078328  
  4640.000000   4079868   4081494   4083161   4084839   4086506  
  4630.000000   4088151   4089766   4091338   4092850   4094274  
  4620.000000   4095569   4096698   4097617   4098302   4098732  
  4610.000000   4098922   4098888   4098686   4098361   4097985  
  4600.000000   4097595   4097239   4096916   4096629   4096335  
  4590.000000   4096007   4095593   4095069   4094402   4093591  
  4580.000000   4092622   4091507   4090240   4088833   4087284  
  4570.000000   4085608   4083809   4081911   4079922   4077865  
  4560.000000   4075742   4073569   4071339   4069060   4066727  
  4550.000000   4064348   4061922   4059456   4056951   4054411  
  4540.000000   4051845   4049262   4046685   4044134   4041643  
  4530.000000   4039226   4036910   4034688   4032572   4030541  
  4520.000000   4028618   4026790   4025114   4023597   4022321  
  4510.000000   4021300   4020622   4020291   4020392   4020917  
  4500.000000   4021952   4023479   4025585   4028243   4031542  
  4490.000000   4035454   4040073   4045373   4051449   4058267  
  4480.000000   4065907   4074311   4083533   4093499   4104243  
  4470.000000   4115684   4127846   4140642   4154077   4168047  
  4460.000000   4182530   4197410   4212646   4228128   4243815  
  4450.000000   4259620   4275519   4291459   4307432   4323417  
  4440.000000   4339405   4355386   4371329   4387218   4402995  
  4430.000000   4418647   4434101   4449359   4464340   4479050  
  4420.000000   4493385   4507333   4520762   4533642   4545828  
  4410.000000   4557295   4567908   4577663   4586452   4594302  
  4400.000000   4601146   4607059   4612033   4616195   4619589  
  4390.000000   4622371   4624607   4626445   4627944   4629225  
  4380.000000   4630334   4631367   4632369   4633425   4634588  
  4370.000000   4635937   4637531   4639433   4641690   4644340  
  4360.000000   4647402   4650882   4654766   4659031   4663624  
  4350.000000   4668500   4673576   4678802   4684093   4689423  
  4340.000000   4694728   4699992   4705128   4710037   4714513  
  4330.000000   4718305   4721085   4722557   4722483   4720801  
  4320.000000   4717618   4713263   4708179   4702895   4697869  
  4310.000000   4693475   4689889   4687171   4685225   4683928  
  4300.000000   4683116   4682673   4682504   4682550   4682773  
  4290.000000   4683131   4683608   4684177   4684846   4685617  
  4280.000000   4686513   4687543   4688701   4689974   4691317  
  4270.000000   4692707   4694082   4695402   4696562   4697448  
  4260.000000   4697868   4697627   4696510   4694378   4691172  
  4250.000000   4686979   4681984   4676481   4670773   4665167  
  4240.000000   4659869   4655025   4650657   4646749   4643213  
  4230.000000   4639970   4636927   4634010   4631156   4628305  
  4220.000000   4625431   4622503   4619548   4616584   4613697  
  4210.000000   4610943   4608423   4606183   4604285   4602732  
  4200.000000   4601533   4600645   4600046   4599669   4599482  
  4190.000000   4599412   4599436   4599495   4599597   4599711  
  4180.000000   4599887   4600123   4600499   4601032   4601819  
  4170.000000   4602890   4604354   4606246   4608666   4611627  
  4160.000000   4615193   4619330   4624063   4629325   4635137  
  4150.000000   4641436   4648260   4655555   4663360   4671607  
  4140.000000   4680323   4689429   4698959   4708852   4719170  
  4130.000000   4729884   4741073   4752713   4764871   4777513  
  4120.000000   4790688   4804358   4818567   4833287   4848563  
  4110.000000   4864365   4880720   4897578   4914928   4932693  
  4100.000000   4950833   4969261   4987938   5006804   5025839  
  4090.000000   5045018   5064331   5083758   5103270   5122839  
  4080.000000   5142417   5161987   5181504   5200969   5220328  
  4070.000000   5239570   5258596   5277362   5295738   5313688  
  4060.000000   5331105   5348005   5364317   5380093   5395270  
  4050.000000   5409913   5423960   5437495   5450462   5462950  
  4040.000000   5474873   5486282   5497039   5507166   5516523  
  4030.000000   5525159   5532968   5540018   5546213   5551586  
  4020.000000   5555993   5559470   5561969   5563582   5564268  
  4010.000000   5564205   5563497   5562180   5559998   5557031  
  4000.000000   5553667  
##END= 
