##TITLE= Sample 001 By ssteindl date Dienstag, November 20 2018
##JCAMP-DX= 4.24
##DATA TYPE= INFRARED SPECTRUM
##ORIGIN= Exported PE Spectrum Data File
##OWNER= Sandra Steindl
##DATE= 18/11/20
##TIME= 16:05:57.00
##SPECTROMETER/DATA SYSTEM= PERKIN-ELMER Frontier FT-IR/NIR IR
##INSTRUMENT PARAMETERS=
  APODIZATION=stark
  DETECTOR=INGAAS
##RESOLUTION= 16.000000
##DELTAX= -2.000000
##XUNITS= 1/CM
##YUNITS= A
##XFACTOR= 1.00
##YFACTOR= 0.00000011920928955078
##FIRSTX= 10000.00
##LASTX= 4000.00
##NPOINTS= 3001
##FIRSTY= 0.340474
##MAXY= 0.610502
##MINY= 0.231917
##XYDATA= (X++(Y..Y))
 10000.000000   2856103   2853819   2851204   2848073   2844878  
  9990.000000   2842222   2840248   2838748   2837659   2837127  
  9980.000000   2837193   2837654   2838109   2837983   2836734  
  9970.000000   2834055   2830220   2825947   2822174   2819591  
  9960.000000   2818307   2817824   2817231   2815775   2813189  
  9950.000000   2810003   2807296   2806303   2807818   2811774  
  9940.000000   2817191   2822398   2825634   2825508   2821469  
  9930.000000   2813811   2803602   2792282   2781419   2772398  
  9920.000000   2766307   2763767   2764840   2768942   2774872  
  9910.000000   2781065   2785944   2788431   2788276   2786176  
  9900.000000   2783537   2781931   2782547   2785696   2790758  
  9890.000000   2796398   2801141   2803905   2804374   2803030  
  9880.000000   2800807   2798708   2797302   2796652   2796263  
  9870.000000   2795472   2793693   2790733   2786833   2782559  
  9860.000000   2778549   2775253   2772766   2770779   2768758  
  9850.000000   2766078   2762356   2757483   2751785   2745881  
  9840.000000   2740569   2736645   2734690   2735013   2737587  
  9830.000000   2742151   2748281   2755490   2763230   2770907  
  9820.000000   2777807   2783167   2786264   2786644   2784352  
  9810.000000   2779991   2774655   2769541   2765567   2762994  
  9800.000000   2761344   2759608   2756640   2751672   2744608  
  9790.000000   2736156   2727519   2720034   2714637   2711675  
  9780.000000   2710859   2711554   2713091   2715020   2717187  
  9770.000000   2719585   2722191   2724770   2726939   2728225  
  9760.000000   2728382   2727393   2725628   2723542   2721595  
  9750.000000   2719986   2718663   2717433   2716115   2714789  
  9740.000000   2713762   2713559   2714604   2717077   2720694  
  9730.000000   2724808   2728547   2731121   2732034   2731201  
  9720.000000   2728897   2725609   2721847   2718028   2714393  
  9710.000000   2711057   2708048   2705381   2703061   2701059  
  9700.000000   2699269   2697483   2695428   2692843   2689597  
  9690.000000   2685742   2681565   2677502   2674089   2671798  
  9680.000000   2670963   2671655   2673685   2676642   2680004  
  9670.000000   2683272   2686065   2688172   2689546   2690269  
  9660.000000   2690509   2690465   2690325   2690207   2690136  
  9650.000000   2690033   2689727   2689002   2687638   2685506  
  9640.000000   2682601   2679107   2675318   2671594   2668196  
  9630.000000   2665264   2662754   2660556   2658540   2656705  
  9620.000000   2655142   2654036   2653489   2653466   2653698  
  9610.000000   2653768   2653252   2651853   2649549   2646545  
  9600.000000   2643206   2639838   2636599   2633404   2630086  
  9590.000000   2626481   2622668   2618923   2615704   2613384  
  9580.000000   2612100   2611653   2611595   2611466   2611022  
  9570.000000   2610418   2610182   2611029   2613562   2617985  
  9560.000000   2623961   2630645   2636922   2641686   2644188  
  9550.000000   2644150   2641869   2638017   2633483   2629110  
  9540.000000   2625503   2622979   2621469   2620711   2620248  
  9530.000000   2619742   2618989   2618126   2617458   2617395  
  9520.000000   2618112   2619409   2620638   2620844   2619164  
  9510.000000   2615081   2608789   2601065   2593144   2586231  
  9500.000000   2581173   2578195   2576926   2576657   2576680  
  9490.000000   2576643   2576603   2576990   2578256   2580679  
  9480.000000   2584171   2588337   2592647   2596574   2599777  
  9470.000000   2602014   2603135   2602926   2601155   2597667  
  9460.000000   2592574   2586399   2580020   2574480   2570605  
  9450.000000   2568761   2568646   2569473   2570174   2569853  
  9440.000000   2568044   2564886   2561000   2557191   2554135  
  9430.000000   2552118   2551039   2550497   2550040   2549289  
  9420.000000   2548116   2546600   2545028   2543737   2543016  
  9410.000000   2543007   2543668   2544795   2546075   2547142  
  9400.000000   2547710   2547648   2547074   2546350   2545929  
  9390.000000   2546192   2547218   2548769   2550336   2551361  
  9380.000000   2551435   2550445   2548609   2546365   2544164  
  9370.000000   2542259   2540565   2538765   2536459   2533465  
  9360.000000   2529887   2526182   2522919   2520645   2519615  
  9350.000000   2519756   2520671   2521760   2522439   2522191  
  9340.000000   2520757   2518004   2514030   2509009   2503293  
  9330.000000   2497356   2491810   2487328   2484510   2483780  
  9320.000000   2485277   2488880   2494201   2500687   2507642  
  9310.000000   2514332   2520027   2524079   2526058   2525800  
  9300.000000   2523596   2520077   2516192   2512827   2510596  
  9290.000000   2509614   2509484   2509511   2508928   2507317  
  9280.000000   2504723   2501780   2499374   2498339   2499033  
  9270.000000   2501262   2504322   2507259   2509167   2509466  
  9260.000000   2508087   2505397   2502051   2498719   2495943  
  9250.000000   2493997   2492892   2492387   2492082   2491555  
  9240.000000   2490444   2488600   2486076   2483254   2480718  
  9230.000000   2479174   2479159   2480829   2483843   2487391  
  9220.000000   2490428   2491904   2491120   2487931   2482858  
  9210.000000   2476856   2471038   2466331   2463311   2462076  
  9200.000000   2462322   2463470   2464905   2466142   2466889  
  9190.000000   2467083   2466800   2466264   2465754   2465567  
  9180.000000   2465956   2467058   2468909   2471332   2473974  
  9170.000000   2476321   2477833   2478095   2476909   2474391  
  9160.000000   2470920   2467110   2463625   2461025   2459589  
  9150.000000   2459297   2459849   2460771   2461490   2461544  
  9140.000000   2460621   2458669   2455787   2452280   2448555  
  9130.000000   2445093   2442319   2440520   2439768   2439872  
  9120.000000   2440366   2440584   2439812   2437519   2433570  
  9110.000000   2428272   2422347   2416656   2412002   2408798  
  9100.000000   2406993   2406070   2405326   2404151   2402302  
  9090.000000   2400006   2397856   2396596   2396797   2398643  
  9080.000000   2401850   2405757   2409595   2412677   2414621  
  9070.000000   2415327   2414955   2413756   2411992   2409873  
  9060.000000   2407607   2405438   2403664   2402561   2402241  
  9050.000000   2402609   2403279   2403755   2403513   2402289  
  9040.000000   2400149   2397519   2395000   2393105   2392074  
  9030.000000   2391720   2391561   2390934   2389319   2386491  
  9020.000000   2382661   2378360   2374267   2371029   2369084  
  9010.000000   2368623   2369554   2371643   2374576   2378027  
  9000.000000   2381650   2385098   2388044   2390197   2391352  
  8990.000000   2391418   2390494   2388776   2386546   2384043  
  8980.000000   2381474   2378955   2376539   2374290   2372291  
  8970.000000   2370703   2369652   2369237   2369428   2370073  
  8960.000000   2370902   2371605   2371940   2371774   2371138  
  8950.000000   2370164   2369068   2368041   2367227   2366706  
  8940.000000   2366523   2366722   2367325   2368361   2369789  
  8930.000000   2371501   2373243   2374712   2375597   2375702  
  8920.000000   2374999   2373638   2371900   2370057   2368261  
  8910.000000   2366469   2364478   2362031   2358953   2355303  
  8900.000000   2351391   2347725   2344814   2343026   2342431  
  8890.000000   2342796   2343642   2344424   2344721   2344341  
  8880.000000   2343350   2341982   2340539   2339256   2338254  
  8870.000000   2337526   2336996   2336566   2336169   2335763  
  8860.000000   2335317   2334796   2334139   2333298   2332244  
  8850.000000   2330997   2329619   2328180   2326753   2325350  
  8840.000000   2323967   2322556   2321097   2319595   2318082  
  8830.000000   2316610   2315231   2314003   2313003   2312348  
  8820.000000   2312204   2312729   2314006   2315948   2318275  
  8810.000000   2320519   2322173   2322812   2322296   2320805  
  8800.000000   2318840   2317031   2315939   2315860   2316737  
  8790.000000   2318228   2319842   2321162   2321956   2322267  
  8780.000000   2322316   2322399   2322700   2323238   2323844  
  8770.000000   2324259   2324255   2323718   2322690   2321326  
  8760.000000   2319815   2318328   2316944   2315691   2314535  
  8750.000000   2313469   2312503   2311689   2311074   2310669  
  8740.000000   2310424   2310224   2309933   2309404   2308546  
  8730.000000   2307310   2305735   2303921   2302047   2300342  
  8720.000000   2299048   2298389   2298500   2299413   2301021  
  8710.000000   2303103   2305357   2307470   2309167   2310253  
  8700.000000   2310626   2310267   2309241   2307674   2305759  
  8690.000000   2303721   2301805   2300232   2299140   2298553  
  8680.000000   2298342   2298280   2298096   2297590   2296686  
  8670.000000   2295464   2294123   2292883   2291903   2291214  
  8660.000000   2290725   2290276   2289742   2289099   2288463  
  8650.000000   2288036   2288024   2288525   2289476   2290635  
  8640.000000   2291671   2292249   2292177   2291431   2290194  
  8630.000000   2288761   2287476   2286627   2286387   2286795  
  8620.000000   2287754   2289100   2290628   2292153   2293524  
  8610.000000   2294651   2295510   2296120   2296535   2296784  
  8600.000000   2296886   2296781   2296390   2295613   2294425  
  8590.000000   2292896   2291215   2289674   2288589   2288233  
  8580.000000   2288722   2290019   2291923   2294159   2296416  
  8570.000000   2298458   2300130   2301395   2302272   2302829  
  8560.000000   2303145   2303286   2303296   2303174   2302893  
  8550.000000   2302359   2301441   2299978   2297853   2295052  
  8540.000000   2291712   2288136   2284728   2281922   2280036  
  8530.000000   2279227   2279433   2280443   2281955   2283681  
  8520.000000   2285396   2286973   2288344   2289460   2290275  
  8510.000000   2290728   2290814   2290560   2290094   2289543  
  8500.000000   2289042   2288616   2288195   2287623   2286749  
  8490.000000   2285529   2284076   2282672   2281662   2281360  
  8480.000000   2281895   2283182   2284929   2286752   2288304  
  8470.000000   2289380   2289971   2290208   2290288   2290352  
  8460.000000   2290435   2290457   2290297   2289862   2289152  
  8450.000000   2288276   2287410   2286748   2286408   2286425  
  8440.000000   2286723   2287177   2287638   2287983   2288135  
  8430.000000   2288062   2287775   2287310   2286717   2286059  
  8420.000000   2285398   2284799   2284298   2283923   2283690  
  8410.000000   2283616   2283706   2283964   2284351   2284787  
  8400.000000   2285124   2285171   2284740   2283712   2282103  
  8390.000000   2280074   2277903   2275899   2274314   2273260  
  8380.000000   2272679   2272390   2272169   2271845   2271343  
  8370.000000   2270708   2270041   2269453   2268987   2268611  
  8360.000000   2268245   2267815   2267311   2266779   2266311  
  8350.000000   2265967   2265746   2265550   2265205   2264543  
  8340.000000   2263462   2262003   2260328   2258697   2257367  
  8330.000000   2256538   2256264   2256464   2256916   2257332  
  8320.000000   2257420   2256943   2255763   2253856   2251335  
  8310.000000   2248412   2245368   2242486   2239997   2238044  
  8300.000000   2236652   2235755   2235210   2234883   2234658  
  8290.000000   2234482   2234329   2234185   2234017   2233744  
  8280.000000   2233268   2232465   2231265   2229635   2227636  
  8270.000000   2225366   2222971   2220604   2218423   2216579  
  8260.000000   2215205   2214401   2214203   2214570   2215364  
  8250.000000   2216372   2217341   2218038   2218313   2218128  
  8240.000000   2217561   2216759   2215901   2215129   2214533  
  8230.000000   2214124   2213857   2213644   2213369   2212927  
  8220.000000   2212218   2211188   2209820   2208176   2206380  
  8210.000000   2204608   2203026   2201739   2200737   2199898  
  8200.000000   2199025   2197924   2196475   2194706   2192774  
  8190.000000   2190936   2189439   2188437   2187925   2187750  
  8180.000000   2187662   2187403   2186788   2185741   2184299  
  8170.000000   2182565   2180668   2178719   2176807   2174999  
  8160.000000   2173367   2171977   2170879   2170079   2169511  
  8150.000000   2169049   2168517   2167770   2166726   2165425  
  8140.000000   2164001   2162643   2161519   2160712   2160183  
  8130.000000   2159790   2159332   2158622   2157539   2156074  
  8120.000000   2154301   2152375   2150448   2148659   2147080  
  8110.000000   2145728   2144554   2143467   2142347   2141061  
  8100.000000   2139487   2137531   2135161   2132416   2129421  
  8090.000000   2126363   2123470   2120953   2118971   2117593  
  8080.000000   2116785   2116421   2116317   2116265   2116085  
  8070.000000   2115652   2114926   2113938   2112792   2111613  
  8060.000000   2110527   2109622   2108927   2108413   2108014  
  8050.000000   2107650   2107260   2106811   2106293   2105698  
  8040.000000   2104990   2104097   2102923   2101380   2099449  
  8030.000000   2097203   2094826   2092567   2090675   2089321  
  8020.000000   2088538   2088220   2088155   2088120   2087947  
  8010.000000   2087600   2087154   2086763   2086563   2086613  
  8000.000000   2086849   2087101   2087162   2086847   2086077  
  7990.000000   2084876   2083368   2081708   2080033   2078425  
  7980.000000   2076902   2075455   2074073   2072784   2071642  
  7970.000000   2070716   2070035   2069579   2069254   2068937  
  7960.000000   2068508   2067895   2067105   2066202   2065286  
  7950.000000   2064428   2063646   2062882   2062038   2061019  
  7940.000000   2059789   2058406   2057016   2055815   2054982  
  7930.000000   2054615   2054687   2055051   2055483   2055746  
  7920.000000   2055673   2055194   2054362   2053307   2052185  
  7910.000000   2051125   2050203   2049443   2048851   2048437  
  7900.000000   2048243   2048307   2048640   2049175   2049757  
  7890.000000   2050165   2050186   2049691   2048707   2047428  
  7880.000000   2046163   2045249   2044923   2045261   2046134  
  7870.000000   2047284   2048390   2049189   2049532   2049409  
  7860.000000   2048905   2048138   2047203   2046141   2044955  
  7850.000000   2043633   2042198   2040707   2039241   2037883  
  7840.000000   2036675   2035629   2034727   2033971   2033385  
  7830.000000   2033028   2032955   2033170   2033592   2034047  
  7820.000000   2034316   2034196   2033585   2032509   2031138  
  7810.000000   2029708   2028459   2027547   2027005   2026753  
  7800.000000   2026637   2026495   2026208   2025730   2025075  
  7790.000000   2024299   2023455   2022583   2021702   2020820  
  7780.000000   2019951   2019111   2018322   2017592   2016910  
  7770.000000   2016241   2015536   2014758   2013890   2012949  
  7760.000000   2011976   2011029   2010157   2009391   2008738  
  7750.000000   2008176   2007667   2007159   2006597   2005924  
  7740.000000   2005092   2004075   2002872   2001527   2000114  
  7730.000000   1998738   1997506   1996500   1995756   1995246  
  7720.000000   1994883   1994541   1994086   1993409   1992457  
  7710.000000   1991244   1989849   1988401   1987043   1985907  
  7700.000000   1985081   1984600   1984433   1984508   1984717  
  7690.000000   1984950   1985102   1985087   1984845   1984329  
  7680.000000   1983524   1982420   1981049   1979460   1977743  
  7670.000000   1976005   1974370   1972953   1971836   1971066  
  7660.000000   1970633   1970498   1970580   1970797   1971063  
  7650.000000   1971304   1971464   1971498   1971375   1971069  
  7640.000000   1970567   1969858   1968953   1967875   1966675  
  7630.000000   1965427   1964217   1963136   1962251   1961600  
  7620.000000   1961163   1960879   1960650   1960365   1959929  
  7610.000000   1959287   1958439   1957434   1956364   1955331  
  7600.000000   1954436   1953747   1953299   1953088   1953080  
  7590.000000   1953214   1953419   1953624   1953770   1953822  
  7580.000000   1953766   1953613   1953386   1953110   1952805  
  7570.000000   1952474   1952115   1951715   1951273   1950789  
  7560.000000   1950280   1949762   1949249   1948747   1948253  
  7550.000000   1947759   1947267   1946784   1946333   1945945  
  7540.000000   1945653   1945485   1945463   1945595   1945880  
  7530.000000   1946299   1946817   1947379   1947920   1948378  
  7520.000000   1948711   1948909   1949003   1949042   1949081  
  7510.000000   1949141   1949209   1949225   1949128   1948875  
  7500.000000   1948479   1948018   1947609   1947373   1947385  
  7490.000000   1947658   1948143   1948762   1949449   1950171  
  7480.000000   1950942   1951782   1952694   1953615   1954439  
  7470.000000   1955027   1955286   1955200   1954868   1954467  
  7460.000000   1954206   1954250   1954677   1955459   1956486  
  7450.000000   1957618   1958738   1959774   1960699   1961503  
  7440.000000   1962179   1962706   1963069   1963273   1963378  
  7430.000000   1963482   1963710   1964158   1964860   1965769  
  7420.000000   1966776   1967753   1968601   1969284   1969828  
  7410.000000   1970303   1970778   1971292   1971849   1972425  
  7400.000000   1973009   1973607   1974261   1975017   1975904  
  7390.000000   1976899   1977935   1978916   1979757   1980423  
  7380.000000   1980945   1981415   1981949   1982652   1983576  
  7370.000000   1984717   1986021   1987407   1988794   1990117  
  7360.000000   1991334   1992424   1993381   1994212   1994933  
  7350.000000   1995571   1996157   1996719   1997273   1997815  
  7340.000000   1998326   1998787   1999191   1999563   1999945  
  7330.000000   2000395   2000956   2001636   2002398   2003172  
  7320.000000   2003873   2004439   2004849   2005136   2005376  
  7310.000000   2005667   2006099   2006722   2007539   2008502  
  7300.000000   2009531   2010536   2011437   2012183   2012766  
  7290.000000   2013216   2013591   2013957   2014373   2014866  
  7280.000000   2015433   2016035   2016618   2017131   2017548  
  7270.000000   2017880   2018176   2018509   2018959   2019587  
  7260.000000   2020421   2021441   2022598   2023804   2024976  
  7250.000000   2026028   2026914   2027611   2028149   2028581  
  7240.000000   2029002   2029498   2030162   2031045   2032188  
  7230.000000   2033584   2035219   2037056   2039067   2041215  
  7220.000000   2043474   2045806   2048186   2050576   2052960  
  7210.000000   2055315   2057650   2059964   2062276   2064577  
  7200.000000   2066870   2069129   2071352   2073537   2075726  
  7190.000000   2077973   2080363   2082969   2085849   2089013  
  7180.000000   2092432   2096029   2099715   2103386   2106972  
  7170.000000   2110417   2113723   2116910   2120049   2123194  
  7160.000000   2126414   2129727   2133140   2136618   2140141  
  7150.000000   2143691   2147300   2151024   2154950   2159146  
  7140.000000   2163646   2168410   2173358   2178365   2183343  
  7130.000000   2188228   2193039   2197819   2202657   2207596  
  7120.000000   2212662   2217811   2222997   2228153   2233265  
  7110.000000   2238342   2243443   2248625   2253949   2259440  
  7100.000000   2265110   2270947   2276939   2283063   2289298  
  7090.000000   2295602   2301923   2308196   2314369   2320407  
  7080.000000   2326313   2332107   2337819   2343458   2349011  
  7070.000000   2354443   2359729   2364874   2369935   2375011  
  7060.000000   2380206   2385598   2391200   2396956   2402758  
  7050.000000   2408494   2414081   2419496   2424769   2429963  
  7040.000000   2435133   2440306   2445476   2450619   2455718  
  7030.000000   2460783   2465840   2470930   2476070   2481250  
  7020.000000   2486416   2491506   2496455   2501234   2505833  
  7010.000000   2510272   2514569   2518746   2522808   2526777  
  7000.000000   2530679   2534572   2538507   2542535   2546650  
  6990.000000   2550819   2554948   2558953   2562753   2566331  
  6980.000000   2569705   2572941   2576097   2579223   2582320  
  6970.000000   2585371   2588331   2591171   2593862   2596404  
  6960.000000   2598791   2601041   2603160   2605186   2607157  
  6950.000000   2609147   2611209   2613393   2615687   2618035  
  6940.000000   2620327   2622443   2624276   2625779   2626961  
  6930.000000   2627898   2628694   2629462   2630287   2631224  
  6920.000000   2632283   2633452   2634687   2635951   2637198  
  6910.000000   2638409   2639571   2640704   2641835   2643001  
  6900.000000   2644216   2645475   2646734   2647932   2649005  
  6890.000000   2649910   2650640   2651227   2651724   2652185  
  6880.000000   2652644   2653115   2653588   2654052   2654502  
  6870.000000   2654949   2655404   2655876   2656355   2656822  
  6860.000000   2657255   2657654   2658044   2658473   2658992  
  6850.000000   2659633   2660383   2661195   2661995   2662719  
  6840.000000   2663330   2663834   2664257   2664634   2664973  
  6830.000000   2665258   2665452   2665527   2665478   2665339  
  6820.000000   2665166   2665021   2664931   2664896   2664876  
  6810.000000   2664833   2664735   2664591   2664426   2664281  
  6800.000000   2664172   2664098   2664025   2663925   2663777  
  6790.000000   2663591   2663388   2663186   2662976   2662717  
  6780.000000   2662347   2661812   2661097   2660239   2659313  
  6770.000000   2658409   2657591   2656875   2656231   2655608  
  6760.000000   2654967   2654309   2653676   2653132   2652729  
  6750.000000   2652472   2652314   2652171   2651954   2651607  
  6740.000000   2651128   2650565   2649993   2649485   2649076  
  6730.000000   2648767   2648515   2648268   2647968   2647579  
  6720.000000   2647078   2646460   2645725   2644884   2643950  
  6710.000000   2642945   2641894   2640822   2639744   2638671  
  6700.000000   2637606   2636556   2635537   2634579   2633715  
  6690.000000   2632974   2632359   2631851   2631402   2630957  
  6680.000000   2630459   2629875   2629185   2628392   2627495  
  6670.000000   2626497   2625394   2624189   2622890   2621522  
  6660.000000   2620112   2618692   2617266   2615828   2614347  
  6650.000000   2612799   2611162   2609448   2607679   2605897  
  6640.000000   2604129   2602397   2600695   2599018   2597353  
  6630.000000   2595706   2594082   2592498   2590951   2589433  
  6620.000000   2587912   2586359   2584751   2583085   2581371  
  6610.000000   2579637   2577902   2576174   2574446   2572698  
  6600.000000   2570903   2569041   2567101   2565079   2562979  
  6590.000000   2560811   2558598   2556371   2554176   2552063  
  6580.000000   2550075   2548236   2546542   2544962   2543450  
  6570.000000   2541963   2540470   2538963   2537448   2535934  
  6560.000000   2534424   2532908   2531373   2529808   2528219  
  6550.000000   2526625   2525053   2523520   2522021   2520529  
  6540.000000   2519000   2517399   2515713   2513963   2512196  
  6530.000000   2510467   2508818   2507263   2505783   2504341  
  6520.000000   2502899   2501431   2499934   2498420   2496910  
  6510.000000   2495421   2493961   2492530   2491123   2489742  
  6500.000000   2488388   2487062   2485760   2484474   2483188  
  6490.000000   2481889   2480569   2479230   2477879   2476518  
  6480.000000   2475144   2473743   2472301   2470808   2469272  
  6470.000000   2467712   2466162   2464649   2463193   2461797  
  6460.000000   2460453   2459150   2457881   2456644   2455441  
  6450.000000   2454269   2453116   2451965   2450805   2449632  
  6440.000000   2448464   2447330   2446260   2445262   2444325  
  6430.000000   2443406   2442455   2441431   2440328   2439172  
  6420.000000   2438019   2436931   2435956   2435107   2434371  
  6410.000000   2433708   2433082   2432462   2431835   2431198  
  6400.000000   2430550   2429891   2429216   2428529   2427844  
  6390.000000   2427190   2426596   2426088   2425667   2425311  
  6380.000000   2424976   2424614   2424183   2423663   2423055  
  6370.000000   2422370   2421619   2420809   2419938   2419008  
  6360.000000   2418035   2417046   2416081   2415177   2414351  
  6350.000000   2413598   2412891   2412194   2411476   2410727  
  6340.000000   2409951   2409167   2408386   2407615   2406840  
  6330.000000   2406047   2405220   2404360   2403474   2402584  
  6320.000000   2401699   2400824   2399946   2399045   2398097  
  6310.000000   2397090   2396011   2394861   2393639   2392345  
  6300.000000   2390978   2389550   2388078   2386595   2385133  
  6290.000000   2383719   2382357   2381032   2379706   2378342  
  6280.000000   2376907   2375395   2373815   2372197   2370569  
  6270.000000   2368960   2367382   2365841   2364333   2362855  
  6260.000000   2361396   2359942   2358468   2356947   2355353  
  6250.000000   2353675   2351922   2350125   2348332   2346590  
  6240.000000   2344931   2343363   2341871   2340426   2338995  
  6230.000000   2337555   2336093   2334607   2333098   2331565  
  6220.000000   2330006   2328417   2326798   2325158   2323510  
  6210.000000   2321866   2320237   2318627   2317039   2315477  
  6200.000000   2313950   2312470   2311050   2309687   2308366  
  6190.000000   2307057   2305731   2304367   2302974   2301579  
  6180.000000   2300230   2298970   2297821   2296774   2295795  
  6170.000000   2294833   2293847   2292811   2291731   2290627  
  6160.000000   2289524   2288438   2287370   2286306   2285230  
  6150.000000   2284136   2283034   2281947   2280901   2279914  
  6140.000000   2278987   2278100   2277227   2276335   2275408  
  6130.000000   2274440   2273442   2272430   2271419   2270414  
  6120.000000   2269420   2268429   2267444   2266473   2265538  
  6110.000000   2264665   2263890   2263234   2262708   2262298  
  6100.000000   2261977   2261697   2261417   2261101   2260740  
  6090.000000   2260341   2259943   2259580   2259294   2259102  
  6080.000000   2259012   2259005   2259063   2259163   2259297  
  6070.000000   2259459   2259659   2259896   2260181   2260509  
  6060.000000   2260889   2261322   2261831   2262427   2263136  
  6050.000000   2263956   2264890   2265909   2266995   2268118  
  6040.000000   2269273   2270455   2271687   2272980   2274355  
  6030.000000   2275815   2277358   2278968   2280633   2282332  
  6020.000000   2284054   2285783   2287515   2289244   2290975  
  6010.000000   2292716   2294485   2296294   2298154   2300061  
  6000.000000   2302001   2303945   2305871   2307760   2309616  
  5990.000000   2311453   2313306   2315204   2317178   2319236  
  5980.000000   2321382   2323601   2325884   2328214   2330593  
  5970.000000   2333016   2335494   2338026   2340625   2343283  
  5960.000000   2346006   2348777   2351589   2354417   2357252  
  5950.000000   2360080   2362915   2365775   2368702   2371732  
  5940.000000   2374898   2378210   2381659   2385215   2388839  
  5930.000000   2392495   2396155   2399800   2403410   2406958  
  5920.000000   2410406   2413710   2416827   2419729   2422418  
  5910.000000   2424923   2427289   2429571   2431814   2434053  
  5900.000000   2436301   2438575   2440882   2443246   2445680  
  5890.000000   2448202   2450808   2453482   2456189   2458892  
  5880.000000   2461556   2464158   2466683   2469125   2471476  
  5870.000000   2473724   2475860   2477875   2479780   2481597  
  5860.000000   2483370   2485140   2486950   2488828   2490792  
  5850.000000   2492847   2494995   2497236   2499568   2501984  
  5840.000000   2504475   2507020   2509601   2512198   2514805  
  5830.000000   2517416   2520037   2522662   2525282   2527874  
  5820.000000   2530416   2532892   2535302   2537665   2540011  
  5810.000000   2542372   2544764   2547195   2549637   2552078  
  5800.000000   2554483   2556856   2559187   2561505   2563803  
  5790.000000   2566097   2568343   2570512   2572512   2574266  
  5780.000000   2575647   2576553   2576864   2576521   2575487  
  5770.000000   2573820   2571620   2569063   2566320   2563574  
  5760.000000   2560935   2558483   2556219   2554139   2552205  
  5750.000000   2550411   2548746   2547224   2545839   2544582  
  5740.000000   2543427   2542340   2541301   2540291   2539318  
  5730.000000   2538382   2537495   2536643   2535818   2534998  
  5720.000000   2534182   2533367   2532579   2531837   2531167  
  5710.000000   2530575   2530066   2529629   2529260   2528953  
  5700.000000   2528709   2528523   2528384   2528276   2528175  
  5690.000000   2528069   2527950   2527833   2527730   2527656  
  5680.000000   2527598   2527530   2527396   2527140   2526700  
  5670.000000   2526043   2525140   2523990   2522592   2520959  
  5660.000000   2519108   2517075   2514907   2512673   2510439  
  5650.000000   2508272   2506205   2504255   2502406   2500639  
  5640.000000   2498930   2497272   2495666   2494119   2492635  
  5630.000000   2491209   2489833   2488498   2487208   2485972  
  5620.000000   2484812   2483737   2482747   2481816   2480910  
  5610.000000   2479987   2479023   2478013   2476978   2475947  
  5600.000000   2474955   2474023   2473157   2472350   2471591  
  5590.000000   2470867   2470173   2469504   2468853   2468210  
  5580.000000   2467564   2466905   2466228   2465539   2464844  
  5570.000000   2464146   2463440   2462709   2461932   2461096  
  5560.000000   2460195   2459241   2458253   2457250   2456238  
  5550.000000   2455212   2454156   2453061   2451927   2450776  
  5540.000000   2449640   2448554   2447534   2446580   2445667  
  5530.000000   2444767   2443856   2442927   2441987   2441057  
  5520.000000   2440151   2439271   2438403   2437522   2436600  
  5510.000000   2435618   2434566   2433450   2432281   2431075  
  5500.000000   2429849   2428627   2427428   2426275   2425177  
  5490.000000   2424128   2423096   2422039   2420904   2419660  
  5480.000000   2418295   2416834   2415318   2413803   2412328  
  5470.000000   2410914   2409550   2408213   2406872   2405504  
  5460.000000   2404093   2402635   2401122   2399548   2397905  
  5450.000000   2396192   2394422   2392618   2390821   2389065  
  5440.000000   2387382   2385783   2384269   2382832   2381468  
  5430.000000   2380167   2378928   2377734   2376572   2375415  
  5420.000000   2374257   2373095   2371967   2370915   2370000  
  5410.000000   2369248   2368677   2368252   2367943   2367705  
  5400.000000   2367536   2367432   2367433   2367553   2367821  
  5390.000000   2368219   2368750   2369393   2370176   2371115  
  5380.000000   2372270   2373655   2375296   2377144   2379174  
  5370.000000   2381312   2383555   2385879   2388341   2390954  
  5360.000000   2393792   2396850   2400183   2403770   2407672  
  5350.000000   2411886   2416494   2421489   2426936   2432786  
  5340.000000   2439078   2445750   2452868   2460401   2468441  
  5330.000000   2476954   2486004   2495512   2505516   2515939  
  5320.000000   2526870   2538301   2550396   2563178   2576804  
  5310.000000   2591239   2606567   2622684   2639639   2657339  
  5300.000000   2675870   2695196   2715451   2736624   2758839  
  5290.000000   2782049   2806298   2831447   2857443   2884091  
  5280.000000   2911331   2939047   2967294   2996095   3025590  
  5270.000000   3055813   3086779   3118342   3150290   3182357  
  5260.000000   3214323   3246077   3277609   3309021   3340372  
  5250.000000   3371705   3402872   3433698   3463854   3493155  
  5240.000000   3521391   3548625   3574878   3600386   3625216  
  5230.000000   3649534   3673248   3696344   3718584   3739902  
  5220.000000   3760105   3779261   3797336   3814544   3830936  
  5210.000000   3846725   3861878   3876464   3890308   3903384  
  5200.000000   3915510   3926739   3937020   3946526   3955273  
  5190.000000   3963422   3970924   3977843   3984066   3989633  
  5180.000000   3994463   3998654   4002182   4005160   4007552  
  5170.000000   4009428   4010721   4011488   4011682   4011389  
  5160.000000   4010589   4009366   4007683   4005595   4003057  
  5150.000000   4000129   3996798   3993153   3989195   3984988  
  5140.000000   3980498   3975739   3970653   3965263   3959554  
  5130.000000   3953595   3947415   3941091   3934639   3928099  
  5120.000000   3921464   3914758   3907984   3901180   3894360  
  5110.000000   3887554   3880756   3873965   3867163   3860354  
  5100.000000   3853545   3846769   3840052   3833424   3826883  
  5090.000000   3820417   3813990   3807578   3801154   3794719  
  5080.000000   3788275   3781838   3775408   3768984   3762543  
  5070.000000   3756069   3749538   3742944   3736276   3729544  
  5060.000000   3722744   3715888   3708971   3702002   3694976  
  5050.000000   3687902   3680769   3673577   3666312   3658970  
  5040.000000   3651541   3644041   3636483   3628899   3621317  
  5030.000000   3613760   3606239   3598756   3591304   3583878  
  5020.000000   3576480   3569116   3561802   3554552   3547385  
  5010.000000   3540309   3533339   3526476   3519738   3513123  
  5000.000000   3506650   3500306   3494104   3488023   3482080  
  4990.000000   3476266   3470621   3465155   3459926   3454942  
  4980.000000   3450246   3445823   3441691   3437813   3434207  
  4970.000000   3430842   3427750   3424908   3422353   3420058  
  4960.000000   3418056   3416316   3414880   3413729   3412924  
  4950.000000   3412454   3412376   3412663   3413343   3414363  
  4940.000000   3415734   3417401   3419386   3421652   3424235  
  4930.000000   3427104   3430291   3433757   3437524   3441553  
  4920.000000   3445868   3450440   3455298   3460419   3465829  
  4910.000000   3471501   3477452   3483654   3490111   3496791  
  4900.000000   3503684   3510746   3517942   3525223   3532544  
  4890.000000   3539867   3547154   3554386   3561530   3568573  
  4880.000000   3575468   3582189   3588670   3594874   3600724  
  4870.000000   3606192   3611213   3615786   3619876   3623518  
  4860.000000   3626711   3629517   3631946   3634058   3635850  
  4850.000000   3637365   3638588   3639555   3640262   3640758  
  4840.000000   3641060   3641225   3641273   3641251   3641167  
  4830.000000   3641053   3640916   3640782   3640667   3640594  
  4820.000000   3640579   3640631   3640749   3640924   3641147  
  4810.000000   3641405   3641699   3642030   3642417   3642873  
  4800.000000   3643425   3644081   3644859   3645751   3646755  
  4790.000000   3647848   3649012   3650218   3651453   3652704  
  4780.000000   3653977   3655283   3656641   3658067   3659569  
  4770.000000   3661142   3662767   3664414   3666053   3667658  
  4760.000000   3669205   3670686   3672089   3673412   3674645  
  4750.000000   3675782   3676815   3677747   3678581   3679334  
  4740.000000   3680022   3680664   3681270   3681848   3682394  
  4730.000000   3682909   3683391   3683848   3684292   3684740  
  4720.000000   3685213   3685721   3686276   3686875   3687523  
  4710.000000   3688211   3688951   3689745   3690617   3691579  
  4700.000000   3692659   3693867   3695220   3696718   3698366  
  4690.000000   3700159   3702097   3704168   3706367   3708671  
  4680.000000   3711056   3713475   3715890   3718248   3720520  
  4670.000000   3722676   3724729   3726695   3728624   3730555  
  4660.000000   3732545   3734626   3736834   3739184   3741697  
  4650.000000   3744384   3747261   3750336   3753610   3757068  
  4640.000000   3760679   3764398   3768170   3771945   3775676  
  4630.000000   3779335   3782898   3786358   3789698   3792909  
  4620.000000   3795955   3798810   3801424   3803769   3805806  
  4610.000000   3807537   3808959   3810120   3811052   3811830  
  4600.000000   3812491   3813102   3813678   3814251   3814803  
  4590.000000   3815335   3815805   3816197   3816460   3816575  
  4580.000000   3816494   3816206   3815686   3814945   3813986  
  4570.000000   3812848   3811552   3810143   3808634   3807053  
  4560.000000   3805393   3803664   3801854   3799976   3798026  
  4550.000000   3796027   3793978   3791896   3789770   3787600  
  4540.000000   3785372   3783085   3780739   3778347   3775922  
  4530.000000   3773474   3771011   3768523   3766010   3763456  
  4520.000000   3760877   3758282   3755723   3753231   3750879  
  4510.000000   3748692   3746739   3745026   3743614   3742501  
  4500.000000   3741757   3741380   3741445   3741939   3742934  
  4490.000000   3744402   3746415   3748947   3752080   3755797  
  4480.000000   3760188   3765228   3770990   3777427   3784585  
  4470.000000   3792395   3800880   3809957   3819634   3829815  
  4460.000000   3840494   3851570   3863030   3874782   3886818  
  4450.000000   3899068   3911534   3924169   3936981   3949942  
  4440.000000   3963053   3976290   3989638   4003068   4016539  
  4430.000000   4030016   4043438   4056774   4069953   4082951  
  4420.000000   4095692   4108157   4120261   4131981   4143220  
  4410.000000   4153950   4164071   4173562   4182344   4190425  
  4400.000000   4197774   4204450   4210475   4215956   4220955  
  4390.000000   4225603   4229981   4234219   4238394   4242611  
  4380.000000   4246920   4251384   4256020   4260853   4265885  
  4370.000000   4271131   4276599   4282309   4288273   4294502  
  4360.000000   4300990   4307726   4314665   4321775   4328966  
  4350.000000   4336195   4343336   4350356   4357135   4363684  
  4340.000000   4369933   4375924   4381571   4386808   4391364  
  4330.000000   4394918   4396976   4397087   4394840   4390095  
  4320.000000   4382966   4373931   4363676   4353050   4342828  
  4310.000000   4333655   4325884   4319649   4314840   4311253  
  4300.000000   4308633   4306770   4305520   4304785   4304542  
  4290.000000   4304739   4305386   4306428   4307880   4309694  
  4280.000000   4311884   4314409   4317249   4320354   4323672  
  4270.000000   4327155   4330739   4334361   4337892   4341160  
  4260.000000   4343893   4345783   4346498   4345790   4343524  
  4250.000000   4339773   4334765   4328903   4322621   4316380  
  4240.000000   4310514   4305271   4300722   4296860   4293568  
  4230.000000   4290722   4288168   4285777   4283445   4281090  
  4220.000000   4278684   4276213   4273742   4271327   4269096  
  4210.000000   4267132   4265553   4264392   4263696   4263424  
  4200.000000   4263547   4263977   4264660   4265503   4266471  
  4190.000000   4267500   4268597   4269739   4270976   4272313  
  4180.000000   4273815   4275478   4277350   4279408   4281686  
  4170.000000   4284166   4286901   4289899   4293234   4296920  
  4160.000000   4301021   4305522   4310456   4315783   4321526  
  4150.000000   4327640   4334154   4341022   4348272   4355851  
  4140.000000   4363785   4372023   4380605   4389501   4398764  
  4130.000000   4408369   4418364   4428709   4439440   4450521  
  4120.000000   4461998   4473866   4486199   4499013   4512378  
  4110.000000   4526289   4540770   4555762   4571225   4587050  
  4100.000000   4603161   4619439   4635811   4652198   4668572  
  4090.000000   4684919   4701261   4717626   4734042   4750542  
  4080.000000   4767119   4783782   4800484   4817208   4833868  
  4070.000000   4850422   4866750   4882794   4898431   4913626  
  4060.000000   4928283   4942414   4955955   4968951   4981357  
  4050.000000   4993243   5004583   5015481   5025924   5036012  
  4040.000000   5045692   5055006   5063830   5072160   5079860  
  4030.000000   5086949   5093337   5099081   5104127   5108524  
  4020.000000   5112197   5115199   5117518   5119243   5120358  
  4010.000000   5121004   5121260   5121149   5120480   5119290  
  4000.000000   5117833  
##END= 
