##TITLE= Sample 003 By ssteindl date Donnerstag, November 22 2018
##JCAMP-DX= 4.24
##DATA TYPE= INFRARED SPECTRUM
##ORIGIN= Exported PE Spectrum Data File
##OWNER= Sandra Steindl
##DATE= 18/11/22
##TIME= 13:10:10.00
##SPECTROMETER/DATA SYSTEM= PERKIN-ELMER Frontier FT-IR/NIR IR
##INSTRUMENT PARAMETERS=
  APODIZATION=stark
  DETECTOR=INGAAS
##RESOLUTION= 16.000000
##DELTAX= -2.000000
##XUNITS= 1/CM
##YUNITS= A
##XFACTOR= 1.00
##YFACTOR= 0.00000011920928955078
##FIRSTX= 10000.00
##LASTX= 4000.00
##NPOINTS= 3001
##FIRSTY= 0.243370
##MAXY= 0.666153
##MINY= 0.200215
##XYDATA= (X++(Y..Y))
 10000.000000   2041536   2035909   2030050   2024033   2018626  
  9990.000000   2014562   2011896   2010084   2008766   2007743  
  9980.000000   2006884   2005862   2004375   2002057   1998619  
  9970.000000   1994023   1988736   1983722   1980217   1979386  
  9960.000000   1981899   1987695   1995863   2004898   2012992  
  9950.000000   2018546   2020552   2018815   2013997   2007274  
  9940.000000   2000045   1993407   1987975   1983687   1980003  
  9930.000000   1976157   1971532   1965987   1959900   1954189  
  9920.000000   1949869   1947841   1948441   1951422   1956021  
  9910.000000   1961203   1966038   1969786   1972107   1972856  
  9900.000000   1972128   1970052   1966878   1962924   1958679  
  9890.000000   1954748   1951778   1950313   1950582   1952504  
  9880.000000   1955593   1959271   1962858   1965907   1968079  
  9870.000000   1969263   1969422   1968582   1966828   1964244  
  9860.000000   1960988   1957123   1952675   1947472   1941301  
  9850.000000   1933959   1925495   1916350   1907348   1899622  
  9840.000000   1894219   1891895   1892764   1896372   1901810  
  9830.000000   1908043   1914214   1919719   1924281   1927654  
  9820.000000   1929662   1929983   1928446   1925047   1920233  
  9810.000000   1914799   1909794   1906233   1904789   1905716  
  9800.000000   1908714   1913241   1918502   1923815   1928497  
  9790.000000   1932045   1934043   1934255   1932689   1929583  
  9780.000000   1925426   1920725   1915919   1911104   1906145  
  9770.000000   1900692   1894557   1887859   1881150   1875286  
  9760.000000   1871068   1869007   1869028   1870668   1873256  
  9750.000000   1876368   1880002   1884549   1890487   1897894  
  9740.000000   1906224   1914202   1920288   1923090   1921985  
  9730.000000   1917256   1910090   1902102   1894882   1889543  
  9720.000000   1886524   1885705   1886545   1888442   1890736  
  9710.000000   1892920   1894498   1895173   1894834   1893738  
  9700.000000   1892448   1891690   1892041   1893586   1895810  
  9690.000000   1897669   1898049   1896206   1892173   1886763  
  9680.000000   1881253   1876833   1874119   1872918   1872431  
  9670.000000   1871671   1869994   1867370   1864348   1861767  
  9660.000000   1860304   1860251   1861376   1863214   1865291  
  9650.000000   1867414   1869692   1872332   1875421   1878643  
  9640.000000   1881368   1882780   1882252   1879545   1874916  
  9630.000000   1868980   1862512   1856263   1850866   1846869  
  9620.000000   1844684   1844609   1846594   1850204   1854505  
  9610.000000   1858308   1860483   1860388   1858125   1854507  
  9600.000000   1850742   1847892   1846465   1846207   1846334  
  9590.000000   1845953   1844551   1842250   1839685   1837654  
  9580.000000   1836632   1836524   1836718   1836411   1835063  
  9570.000000   1832636   1829613   1826678   1824346   1822728  
  9560.000000   1821529   1820368   1819072   1817931   1817546  
  9550.000000   1818534   1821076   1824677   1828270   1830569  
  9540.000000   1830659   1828308   1824103   1819062   1814226  
  9530.000000   1810154   1806865   1803975   1801169   1798506  
  9520.000000   1796518   1795968   1797366   1800672   1805124  
  9510.000000   1809637   1813211   1815456   1816708   1817817  
  9500.000000   1819690   1822727   1826625   1830384   1832789  
  9490.000000   1832867   1830338   1825655   1819798   1813854  
  9480.000000   1808649   1804626   1801856   1800303   1799881  
  9470.000000   1800570   1802221   1804528   1806933   1808843  
  9460.000000   1809825   1809844   1809278   1808723   1808692  
  9450.000000   1809268   1810063   1810313   1809300   1806695  
  9440.000000   1802779   1798358   1794403   1791649   1790265  
  9430.000000   1789884   1789829   1789500   1788641   1787413  
  9420.000000   1786222   1785435   1785127   1785051   1784789  
  9410.000000   1784061   1782915   1781753   1781125   1781419  
  9400.000000   1782637   1784318   1785758   1786274   1785560  
  9390.000000   1783716   1781210   1778525   1775972   1773538  
  9380.000000   1771018   1768247   1765306   1762672   1761052  
  9370.000000   1761179   1763407   1767600   1773067   1778850  
  9360.000000   1783988   1787781   1789929   1790425   1789503  
  9350.000000   1787387   1784323   1780497   1776182   1771735  
  9340.000000   1767596   1764212   1761864   1760686   1760548  
  9330.000000   1761296   1762688   1764609   1766932   1769545  
  9320.000000   1772247   1774689   1776434   1776960   1775877  
  9310.000000   1772958   1768326   1762359   1755685   1749039  
  9300.000000   1743159   1738703   1736092   1735492   1736698  
  9290.000000   1739236   1742425   1745577   1748142   1749808  
  9280.000000   1750520   1750379   1749557   1748160   1746278  
  9270.000000   1743956   1741389   1738905   1737006   1736149  
  9260.000000   1736562   1738105   1740221   1742157   1743146  
  9250.000000   1742769   1741062   1738591   1736210   1734758  
  9240.000000   1734730   1736139   1738533   1741144   1743113  
  9230.000000   1743727   1742628   1739850   1735809   1731121  
  9220.000000   1726497   1722560   1719716   1718068   1717369  
  9210.000000   1717167   1716949   1716401   1715531   1714755  
  9200.000000   1714718   1716011   1718839   1722831   1727124  
  9190.000000   1730525   1731987   1730919   1727529   1722682  
  9180.000000   1717643   1713610   1711366   1711084   1712370  
  9170.000000   1714521   1716815   1718777   1720230   1721258  
  9160.000000   1722027   1722687   1723310   1723905   1724486  
  9150.000000   1725071   1725696   1726316   1726787   1726882  
  9140.000000   1726377   1725220   1723572   1721873   1720651  
  9130.000000   1720340   1721038   1722448   1723951   1724791  
  9120.000000   1724345   1722340   1718964   1714764   1710441  
  9110.000000   1706641   1703800   1702104   1701500   1701806  
  9100.000000   1702792   1704237   1705927   1707653   1709191  
  9090.000000   1710355   1711024   1711178   1710908   1710348  
  9080.000000   1709674   1708978   1708323   1707686   1707041  
  9070.000000   1706345   1705553   1704638   1703560   1702329  
  9060.000000   1700990   1699710   1698748   1698422   1698969  
  9050.000000   1700464   1702719   1705294   1707574   1708966  
  9040.000000   1709098   1707914   1705707   1702971   1700278  
  9030.000000   1698041   1696432   1695332   1694454   1693477  
  9020.000000   1692195   1690598   1688878   1687382   1686486  
  9010.000000   1686488   1687486   1689379   1691867   1694523  
  9000.000000   1696898   1698634   1699599   1699887   1699796  
  8990.000000   1699681   1699830   1700316   1700965   1701408  
  8980.000000   1701266   1700312   1698627   1696596   1694777  
  8970.000000   1693706   1693627   1694447   1695716   1696866  
  8960.000000   1697427   1697238   1696514   1695731   1695393  
  8950.000000   1695780   1696797   1698000   1698777   1698601  
  8940.000000   1697267   1694978   1692286   1689862   1688239  
  8930.000000   1687641   1687922   1688684   1689432   1689777  
  8920.000000   1689553   1688839   1687882   1686977   1686350  
  8910.000000   1686097   1686175   1686448   1686763   1686958  
  8900.000000   1686938   1686626   1686035   1685202   1684223  
  8890.000000   1683196   1682235   1681403   1680727   1680180  
  8880.000000   1679763   1679524   1679601   1680208   1681564  
  8870.000000   1683817   1686919   1690634   1694555   1698241  
  8860.000000   1701357   1703763   1705550   1706937   1708149  
  8850.000000   1709263   1710159   1710562   1710178   1708863  
  8840.000000   1706751   1704258   1701963   1700404   1699862  
  8830.000000   1700279   1701259   1702249   1702731   1702442  
  8820.000000   1701463   1700186   1699157   1698881   1699661  
  8810.000000   1701508   1704159   1707178   1710098   1712540  
  8800.000000   1714278   1715260   1715577   1715424   1715042  
  8790.000000   1714661   1714455   1714486   1714703   1714931  
  8780.000000   1714953   1714553   1713629   1712216   1710502  
  8770.000000   1708766   1707291   1706288   1705845   1705960  
  8760.000000   1706579   1707675   1709259   1711382   1714072  
  8750.000000   1717262   1720748   1724191   1727212   1729472  
  8740.000000   1730809   1731238   1730967   1730291   1729515  
  8730.000000   1728860   1728426   1728219   1728182   1728271  
  8720.000000   1728464   1728771   1729193   1729707   1730240  
  8710.000000   1730696   1730990   1731081   1731006   1730867  
  8700.000000   1730824   1731035   1731637   1732700   1734233  
  8690.000000   1736167   1738383   1740716   1742996   1745064  
  8680.000000   1746826   1748247   1749389   1750361   1751308  
  8670.000000   1752346   1753536   1754870   1756290   1757736  
  8660.000000   1759177   1760639   1762188   1763887   1765751  
  8650.000000   1767703   1769579   1771164   1772266   1772793  
  8640.000000   1772820   1772577   1772411   1772695   1773719  
  8630.000000   1775609   1778258   1781386   1784591   1787499  
  8620.000000   1789825   1791483   1792576   1793356   1794126  
  8610.000000   1795110   1796405   1797904   1799364   1800460  
  8600.000000   1800922   1800617   1799606   1798158   1796667  
  8590.000000   1795595   1795324   1796111   1797996   1800827  
  8580.000000   1804274   1807893   1811229   1813897   1815680  
  8570.000000   1816532   1816599   1816139   1815482   1814923  
  8560.000000   1814674   1814842   1815445   1816463   1817858  
  8550.000000   1819614   1821699   1824041   1826470   1828735  
  8540.000000   1830553   1831680   1832008   1831603   1830730  
  8530.000000   1829756   1829059   1828914   1829444   1830616  
  8520.000000   1832273   1834231   1836322   1838438   1840489  
  8510.000000   1842396   1844070   1845412   1846367   1846927  
  8500.000000   1847199   1847323   1847473   1847740   1848147  
  8490.000000   1848636   1849121   1849562   1849989   1850559  
  8480.000000   1851460   1852887   1854919   1857522   1860548  
  8470.000000   1863762   1866905   1869717   1871995   1873552  
  8460.000000   1874256   1874035   1872960   1871256   1869316  
  8450.000000   1867632   1866700   1866881   1868277   1870713  
  8440.000000   1873772   1876954   1879789   1882016   1883599  
  8430.000000   1884724   1885667   1886696   1887974   1889516  
  8420.000000   1891221   1892905   1894384   1895506   1896173  
  8410.000000   1896342   1896018   1895277   1894245   1893104  
  8400.000000   1892035   1891201   1890688   1890503   1890567  
  8390.000000   1890777   1891045   1891357   1891754   1892317  
  8380.000000   1893090   1894046   1895075   1896002   1896664  
  8370.000000   1896961   1896903   1896597   1896194   1895838  
  8360.000000   1895601   1895494   1895467   1895469   1895461  
  8350.000000   1895441   1895417   1895380   1895280   1895023  
  8340.000000   1894507   1893665   1892503   1891113   1889636  
  8330.000000   1888243   1887074   1886227   1885735   1885593  
  8320.000000   1885765   1886200   1886826   1887519   1888114  
  8310.000000   1888403   1888214   1887439   1886106   1884372  
  8300.000000   1882507   1880824   1879592   1878979   1879000  
  8290.000000   1879562   1880483   1881579   1882693   1883717  
  8280.000000   1884575   1885199   1885509   1885410   1884823  
  8270.000000   1883712   1882133   1880244   1878299   1876592  
  8260.000000   1875376   1874809   1874882   1875446   1876216  
  8250.000000   1876877   1877139   1876834   1875944   1874602  
  8240.000000   1873027   1871465   1870103   1869040   1868261  
  8230.000000   1867682   1867179   1866657   1866052   1865349  
  8220.000000   1864539   1863611   1862514   1861180   1859540  
  8210.000000   1857555   1855251   1852720   1850109   1847593  
  8200.000000   1845324   1843423   1841944   1840892   1840214  
  8190.000000   1839820   1839580   1839342   1838947   1838264  
  8180.000000   1837226   1835847   1834230   1832534   1830937  
  8170.000000   1829567   1828468   1827587   1826789   1825925  
  8160.000000   1824880   1823626   1822215   1820756   1819363  
  8150.000000   1818099   1816961   1815862   1814688   1813320  
  8140.000000   1811702   1809851   1807860   1805877   1804065  
  8130.000000   1802574   1801507   1800912   1800764   1800979  
  8120.000000   1801418   1801904   1802256   1802313   1801976  
  8110.000000   1801215   1800084   1798687   1797165   1795649  
  8100.000000   1794248   1793022   1791991   1791143   1790436  
  8090.000000   1789822   1789235   1788617   1787915   1787111  
  8080.000000   1786211   1785264   1784331   1783471   1782713  
  8070.000000   1782037   1781390   1780694   1779888   1778942  
  8060.000000   1777873   1776724   1775551   1774382   1773223  
  8050.000000   1772052   1770851   1769628   1768432   1767343  
  8040.000000   1766446   1765802   1765424   1765274   1765279  
  8030.000000   1765354   1765423   1765425   1765307   1765008  
  8020.000000   1764467   1763628   1762481   1761085   1759580  
  8010.000000   1758167   1757045   1756356   1756117   1756226  
  8000.000000   1756482   1756662   1756592   1756189   1755483  
  7990.000000   1754566   1753557   1752537   1751545   1750581  
  7980.000000   1749645   1748774   1748042   1747550   1747372  
  7970.000000   1747520   1747917   1748414   1748828   1748996  
  7960.000000   1748818   1748265   1747384   1746255   1744985  
  7950.000000   1743681   1742457   1741427   1740702   1740360  
  7940.000000   1740423   1740831   1741444   1742071   1742526  
  7930.000000   1742677   1742493   1742033   1741424   1740811  
  7920.000000   1740308   1739984   1739863   1739958   1740286  
  7910.000000   1740870   1741709   1742747   1743833   1744740  
  7900.000000   1745208   1745021   1744097   1742518   1740539  
  7890.000000   1738504   1736754   1735528   1734898   1734783  
  7880.000000   1734983   1735283   1735512   1735607   1735597  
  7870.000000   1735571   1735615   1735761   1735970   1736133  
  7860.000000   1736139   1735892   1735380   1734663   1733876  
  7850.000000   1733173   1732691   1732509   1732628   1732987  
  7840.000000   1733482   1734011   1734495   1734901   1735233  
  7830.000000   1735519   1735783   1736035   1736261   1736438  
  7820.000000   1736542   1736559   1736488   1736335   1736092  
  7810.000000   1735744   1735253   1734592   1733752   1732772  
  7800.000000   1731728   1730729   1729868   1729207   1728742  
  7790.000000   1728418   1728147   1727850   1727488   1727073  
  7780.000000   1726659   1726314   1726077   1725946   1725868  
  7770.000000   1725764   1725566   1725244   1724823   1724369  
  7760.000000   1723964   1723665   1723475   1723339   1723149  
  7750.000000   1722790   1722171   1721268   1720126   1718856  
  7740.000000   1717597   1716476   1715561   1714846   1714252  
  7730.000000   1713655   1712934   1712017   1710915   1709718  
  7720.000000   1708575   1707636   1707008   1706708   1706669  
  7710.000000   1706752   1706812   1706732   1706476   1706079  
  7700.000000   1705639   1705266   1705051   1705032   1705196  
  7690.000000   1705490   1705844   1706195   1706494   1706710  
  7680.000000   1706823   1706823   1706707   1706487   1706187  
  7670.000000   1705839   1705471   1705091   1704676   1704179  
  7660.000000   1703544   1702743   1701792   1700771   1699808  
  7650.000000   1699042   1698581   1698471   1698676   1699095  
  7640.000000   1699594   1700041   1700352   1700494   1700498  
  7630.000000   1700424   1700347   1700320   1700373   1700497  
  7620.000000   1700664   1700834   1700972   1701059   1701101  
  7610.000000   1701123   1701170   1701286   1701498   1701798  
  7600.000000   1702145   1702462   1702665   1702688   1702513  
  7590.000000   1702178   1701782   1701454   1701316   1701450  
  7580.000000   1701867   1702510   1703276   1704046   1704727  
  7570.000000   1705267   1705664   1705948   1706164   1706337  
  7560.000000   1706479   1706581   1706645   1706684   1706747  
  7550.000000   1706898   1707206   1707711   1708413   1709264  
  7540.000000   1710196   1711137   1712051   1712932   1713818  
  7530.000000   1714747   1715752   1716817   1717900   1718936  
  7520.000000   1719891   1720767   1721634   1722590   1723741  
  7510.000000   1725139   1726765   1728523   1730280   1731898  
  7500.000000   1733299   1734468   1735469   1736400   1737356  
  7490.000000   1738393   1739523   1740726   1741979   1743279  
  7480.000000   1744658   1746164   1747842   1749698   1751689  
  7470.000000   1753721   1755682   1757460   1758996   1760273  
  7460.000000   1761336   1762260   1763149   1764102   1765212  
  7450.000000   1766544   1768138   1769991   1772067   1774291  
  7440.000000   1776576   1778840   1781039   1783171   1785284  
  7430.000000   1787438   1789698   1792083   1794579   1797127  
  7420.000000   1799668   1802155   1804580   1806969   1809361  
  7410.000000   1811793   1814272   1816779   1819278   1821738  
  7400.000000   1824150   1826527   1828894   1831268   1833640  
  7390.000000   1835977   1838227   1840349   1842326   1844183  
  7380.000000   1845968   1847746   1849562   1851439   1853364  
  7370.000000   1855313   1857255   1859172   1861053   1862892  
  7360.000000   1864682   1866407   1868055   1869631   1871169  
  7350.000000   1872735   1874415   1876285   1878384   1880690  
  7340.000000   1883126   1885579   1887938   1890125   1892119  
  7330.000000   1893951   1895691   1897417   1899194   1901056  
  7320.000000   1902998   1904990   1906986   1908946   1910835  
  7310.000000   1912637   1914348   1915982   1917553   1919084  
  7300.000000   1920589   1922085   1923577   1925067   1926546  
  7290.000000   1928004   1929417   1930772   1932049   1933246  
  7280.000000   1934371   1935457   1936542   1937672   1938875  
  7270.000000   1940153   1941469   1942758   1943947   1944970  
  7260.000000   1945806   1946476   1947050   1947616   1948264  
  7250.000000   1949052   1950014   1951142   1952434   1953880  
  7240.000000   1955500   1957313   1959343   1961573   1963969  
  7230.000000   1966446   1968932   1971355   1973702   1975986  
  7220.000000   1978273   1980625   1983107   1985744   1988550  
  7210.000000   1991505   1994589   1997765   2001004   2004254  
  7200.000000   2007473   2010603   2013623   2016530   2019386  
  7190.000000   2022280   2025337   2028650   2032277   2036179  
  7180.000000   2040260   2044364   2048352   2052122   2055668  
  7170.000000   2059050   2062416   2065912   2069681   2073773  
  7160.000000   2078175   2082776   2087449   2092055   2096523  
  7150.000000   2100844   2105103   2109430   2113992   2118912  
  7140.000000   2124254   2129968   2135944   2141999   2147989  
  7130.000000   2153791   2159385   2164797   2170127   2175467  
  7120.000000   2180923   2186544   2192374   2198416   2204687  
  7110.000000   2211182   2217911   2224846   2231957   2239169  
  7100.000000   2246419   2253638   2260808   2267934   2275068  
  7090.000000   2282255   2289544   2296939   2304434   2311992  
  7080.000000   2319592   2327214   2334867   2342553   2350275  
  7070.000000   2358010   2365724   2373369   2380915   2388345  
  7060.000000   2395677   2402943   2410188   2417452   2424765  
  7050.000000   2432145   2439594   2447105   2454654   2462208  
  7040.000000   2469714   2477119   2484378   2491467   2498392  
  7030.000000   2505189   2511906   2518593   2525274   2531957  
  7020.000000   2538619   2545246   2551821   2558356   2564865  
  7010.000000   2571376   2577892   2584410   2590893   2597310  
  7000.000000   2603610   2609768   2615746   2621532   2627105  
  6990.000000   2632470   2637638   2642654   2647571   2652458  
  6980.000000   2657350   2662256   2667120   2671870   2676410  
  6970.000000   2680697   2684723   2688567   2692328   2696133  
  6960.000000   2700052   2704122   2708299   2712518   2716682  
  6950.000000   2720728   2724597   2728274   2731739   2734994  
  6940.000000   2738024   2740837   2743438   2745864   2748152  
  6930.000000   2750357   2752510   2754649   2756782   2758929  
  6920.000000   2761087   2763275   2765483   2767703   2769895  
  6910.000000   2772015   2774010   2775847   2777513   2779027  
  6900.000000   2780418   2781725   2782979   2784203   2785414  
  6890.000000   2786639   2787907   2789257   2790707   2792259  
  6880.000000   2793875   2795500   2797069   2798535   2799882  
  6870.000000   2801124   2802293   2803424   2804534   2805627  
  6860.000000   2806698   2807752   2808804   2809878   2810983  
  6850.000000   2812106   2813195   2814187   2815022   2815687  
  6840.000000   2816224   2816734   2817332   2818117   2819120  
  6830.000000   2820305   2821570   2822802   2823897   2824806  
  6820.000000   2825526   2826097   2826561   2826960   2827307  
  6810.000000   2827609   2827867   2828088   2828278   2828437  
  6800.000000   2828549   2828591   2828534   2828380   2828155  
  6790.000000   2827921   2827748   2827694   2827772   2827951  
  6780.000000   2828164   2828337   2828420   2828401   2828306  
  6770.000000   2828179   2828059   2827962   2827882   2827799  
  6760.000000   2827700   2827583   2827462   2827350   2827249  
  6750.000000   2827145   2827016   2826845   2826639   2826434  
  6740.000000   2826281   2826234   2826320   2826533   2826832  
  6730.000000   2827158   2827451   2827670   2827789   2827801  
  6720.000000   2827699   2827484   2827163   2826762   2826326  
  6710.000000   2825925   2825617   2825446   2825405   2825448  
  6700.000000   2825489   2825448   2825256   2824894   2824372  
  6690.000000   2823728   2822995   2822202   2821358   2820473  
  6680.000000   2819559   2818649   2817775   2816971   2816240  
  6670.000000   2815568   2814908   2814221   2813466   2812635  
  6660.000000   2811728   2810756   2809717   2808602   2807393  
  6650.000000   2806087   2804703   2803293   2801922   2800655  
  6640.000000   2799524   2798525   2797615   2796736   2795830  
  6630.000000   2794865   2793825   2792717   2791548   2790323  
  6620.000000   2789037   2787693   2786295   2784866   2783425  
  6610.000000   2781988   2780543   2779062   2777499   2775820  
  6600.000000   2774014   2772109   2770153   2768209   2766320  
  6590.000000   2764510   2762767   2761071   2759398   2757734  
  6580.000000   2756076   2754423   2752764   2751080   2749348  
  6570.000000   2747556   2745716   2743864   2742057   2740343  
  6560.000000   2738749   2737265   2735851   2734452   2733028  
  6550.000000   2731565   2730082   2728617   2727210   2725878  
  6540.000000   2724615   2723385   2722152   2720879   2719555  
  6530.000000   2718187   2716800   2715421   2714076   2712781  
  6520.000000   2711542   2710359   2709225   2708134   2707079  
  6510.000000   2706058   2705074   2704133   2703242   2702398  
  6500.000000   2701584   2700764   2699889   2698910   2697798  
  6490.000000   2696553   2695209   2693826   2692463   2691159  
  6480.000000   2689926   2688744   2687584   2686426   2685271  
  6470.000000   2684142   2683068   2682066   2681126   2680209  
  6460.000000   2679269   2678267   2677199   2676096   2675014  
  6450.000000   2674008   2673114   2672326   2671612   2670917  
  6440.000000   2670196   2669418   2668577   2667679   2666743  
  6430.000000   2665782   2664815   2663864   2662964   2662156  
  6420.000000   2661480   2660955   2660574   2660300   2660080  
  6410.000000   2659864   2659624   2659360   2659095   2658852  
  6400.000000   2658648   2658469   2658294   2658090   2657845  
  6390.000000   2657562   2657269   2656995   2656764   2656579  
  6380.000000   2656424   2656277   2656118   2655940   2655746  
  6370.000000   2655544   2655336   2655116   2654869   2654593  
  6360.000000   2654293   2653995   2653727   2653510   2653337  
  6350.000000   2653178   2652981   2652703   2652314   2651827  
  6340.000000   2651273   2650699   2650133   2649584   2649025  
  6330.000000   2648419   2647729   2646940   2646060   2645121  
  6320.000000   2644156   2643196   2642247   2641310   2640369  
  6310.000000   2639420   2638457   2637491   2636522   2635556  
  6300.000000   2634583   2633598   2632584   2631535   2630440  
  6290.000000   2629294   2628082   2626796   2625426   2623974  
  6280.000000   2622451   2620885   2619299   2617717   2616144  
  6270.000000   2614578   2613006   2611427   2609847   2608292  
  6260.000000   2606780   2605327   2603918   2602521   2601082  
  6250.000000   2599556   2597913   2596154   2594306   2592408  
  6240.000000   2590497   2588596   2586710   2584835   2582960  
  6230.000000   2581087   2579215   2577352   2575494   2573639  
  6220.000000   2571773   2569893   2568001   2566116   2564262  
  6210.000000   2562461   2560722   2559039   2557392   2555755  
  6200.000000   2554113   2552461   2550812   2549182   2547588  
  6190.000000   2546036   2544524   2543038   2541568   2540100  
  6180.000000   2538631   2537152   2535663   2534158   2532645  
  6170.000000   2531134   2529649   2528216   2526863   2525602  
  6160.000000   2524430   2523329   2522272   2521233   2520200  
  6150.000000   2519171   2518152   2517147   2516151   2515151  
  6140.000000   2514129   2513070   2511971   2510838   2509686  
  6130.000000   2508525   2507357   2506176   2504974   2503751  
  6120.000000   2502524   2501319   2500169   2499098   2498115  
  6110.000000   2497206   2496351   2495526   2494728   2493960  
  6100.000000   2493247   2492607   2492057   2491586   2491185  
  6090.000000   2490828   2490508   2490223   2489988   2489813  
  6080.000000   2489709   2489665   2489670   2489698   2489739  
  6070.000000   2489784   2489845   2489925   2490041   2490190  
  6060.000000   2490379   2490600   2490868   2491191   2491599  
  6050.000000   2492102   2492722   2493453   2494297   2495236  
  6040.000000   2496270   2497390   2498607   2499918   2501331  
  6030.000000   2502837   2504438   2506128   2507918   2509809  
  6020.000000   2511811   2513903   2516062   2518234   2520373  
  6010.000000   2522429   2524389   2526259   2528085   2529914  
  6000.000000   2531811   2533813   2535956   2538242   2540673  
  5990.000000   2543230   2545895   2548636   2551428   2554237  
  5980.000000   2557050   2559860   2562695   2565584   2568577  
  5970.000000   2571697   2574961   2578343   2581813   2585316  
  5960.000000   2588826   2592318   2595808   2599308   2602852  
  5950.000000   2606454   2610129   2613877   2617707   2621625  
  5940.000000   2625646   2629781   2634032   2638389   2642821  
  5930.000000   2647290   2651750   2656162   2660492   2664715  
  5920.000000   2668811   2672760   2676545   2680151   2683573  
  5910.000000   2686814   2689886   2692813   2695615   2698329  
  5900.000000   2700987   2703641   2706336   2709131   2712057  
  5890.000000   2715136   2718337   2721617   2724892   2728091  
  5880.000000   2731146   2734018   2736692   2739174   2741477  
  5870.000000   2743615   2745602   2747456   2749203   2750880  
  5860.000000   2752533   2754205   2755929   2757728   2759608  
  5850.000000   2761578   2763647   2765832   2768148   2770599  
  5840.000000   2773171   2775821   2778496   2781134   2783696  
  5830.000000   2786158   2788531   2790838   2793108   2795362  
  5820.000000   2797613   2799864   2802122   2804399   2806711  
  5810.000000   2809078   2811500   2813974   2816463   2818943  
  5800.000000   2821373   2823750   2826053   2828300   2830470  
  5790.000000   2832562   2834522   2836312   2837856   2839105  
  5780.000000   2839981   2840442   2840427   2839918   2838901  
  5770.000000   2837427   2835568   2833454   2831209   2828969  
  5760.000000   2826812   2824791   2822894   2821111   2819410  
  5750.000000   2817795   2816277   2814891   2813656   2812576  
  5740.000000   2811626   2810761   2809935   2809101   2808239  
  5730.000000   2807335   2806394   2805416   2804414   2803391  
  5720.000000   2802365   2801355   2800392   2799493   2798671  
  5710.000000   2797913   2797199   2796502   2795806   2795112  
  5700.000000   2794436   2793806   2793242   2792756   2792333  
  5690.000000   2791955   2791591   2791225   2790837   2790425  
  5680.000000   2789973   2789469   2788880   2788179   2787331  
  5670.000000   2786318   2785123   2783744   2782179   2780438  
  5660.000000   2778527   2776473   2774303   2772066   2769802  
  5650.000000   2767553   2765337   2763163   2761021   2758908  
  5640.000000   2756826   2754791   2752828   2750959   2749196  
  5630.000000   2747535   2745966   2744474   2743058   2741721  
  5620.000000   2740476   2739325   2738262   2737251   2736255  
  5610.000000   2735230   2734151   2733014   2731842   2730663  
  5600.000000   2729513   2728413   2727375   2726398   2725483  
  5590.000000   2724633   2723846   2723121   2722439   2721770  
  5580.000000   2721074   2720315   2719473   2718546   2717550  
  5570.000000   2716508   2715438   2714340   2713203   2712011  
  5560.000000   2710754   2709440   2708090   2706741   2705426  
  5550.000000   2704170   2702981   2701858   2700786   2699751  
  5540.000000   2698735   2697723   2696697   2695642   2694545  
  5530.000000   2693405   2692236   2691060   2689902   2688780  
  5520.000000   2687697   2686639   2685585   2684515   2683419  
  5510.000000   2682305   2681183   2680067   2678957   2677846  
  5500.000000   2676715   2675555   2674364   2673160   2671959  
  5490.000000   2670777   2669602   2668408   2667149   2665791  
  5480.000000   2664314   2662728   2661061   2659355   2657636  
  5470.000000   2655919   2654192   2652441   2650650   2648821  
  5460.000000   2646957   2645074   2643174   2641252   2639294  
  5450.000000   2637292   2635247   2633181   2631122   2629101  
  5440.000000   2627135   2625220   2623347   2621500   2619681  
  5430.000000   2617899   2616175   2614517   2612923   2611368  
  5420.000000   2609830   2608290   2606771   2605310   2603975  
  5410.000000   2602809   2601842   2601042   2600374   2599772  
  5400.000000   2599214   2598685   2598222   2597851   2597616  
  5390.000000   2597519   2597566   2597733   2598033   2598469  
  5380.000000   2599091   2599916   2600977   2602243   2603696  
  5370.000000   2605267   2606940   2608676   2610511   2612441  
  5360.000000   2614524   2616751   2619172   2621770   2624610  
  5350.000000   2627702   2631141   2634946   2639195   2643860  
  5340.000000   2648974   2654471   2660385   2666670   2673390  
  5330.000000   2680508   2688091   2696081   2704528   2713373  
  5320.000000   2722701   2732495   2742889   2753885   2765613  
  5310.000000   2778032   2791223   2805101   2819730   2835043  
  5300.000000   2851142   2868004   2885767   2904424   2924096  
  5290.000000   2944734   2966379   2988891   3012215   3036158  
  5280.000000   3060663   3085615   3111079   3137085   3163791  
  5270.000000   3191245   3219496   3248413   3277816   3307443  
  5260.000000   3337081   3366601   3395989   3425322   3454668  
  5250.000000   3484066   3513400   3542509   3571103   3599000  
  5240.000000   3626009   3652165   3677487   3702174   3726290  
  5230.000000   3749985   3773187   3795892   3817900   3839153  
  5220.000000   3859478   3878926   3897455   3915238   3932307  
  5210.000000   3948838   3964792   3980222   3994959   4008968  
  5200.000000   4022066   4034290   4045576   4056073   4065788  
  5190.000000   4074870   4083277   4091083   4098191   4104654  
  5180.000000   4110401   4115529   4119999   4123907   4127191  
  5170.000000   4129901   4131957   4133419   4134254   4134576  
  5160.000000   4134393   4133816   4132815   4131441   4129619  
  5150.000000   4127379   4124674   4121575   4118081   4114275  
  5140.000000   4110150   4105760   4101074   4096131   4090918  
  5130.000000   4085491   4079858   4074071   4068125   4062045  
  5120.000000   4055814   4049458   4042983   4036440   4029856  
  5110.000000   4023276   4016706   4010160   4003624   3997108  
  5100.000000   3990616   3984178   3977814   3971548   3965372  
  5090.000000   3959272   3953213   3947170   3941125   3935077  
  5080.000000   3929031   3922992   3916951   3910888   3904772  
  5070.000000   3898583   3892310   3885971   3879590   3873208  
  5060.000000   3866847   3860522   3854218   3847915   3841575  
  5050.000000   3835174   3828685   3822098   3815404   3808606  
  5040.000000   3801712   3794740   3787717   3780679   3773663  
  5030.000000   3766700   3759811   3753001   3746267   3739596  
  5020.000000   3732984   3726429   3719947   3713546   3707258  
  5010.000000   3701088   3695064   3689181   3683462   3677896  
  5000.000000   3672506   3667275   3662224   3657334   3652633  
  4990.000000   3648111   3643815   3639751   3635979   3632497  
  4980.000000   3629346   3626497   3623967   3621711   3619754  
  4970.000000   3618070   3616712   3615672   3615008   3614697  
  4960.000000   3614776   3615195   3615983   3617094   3618575  
  4950.000000   3620401   3622633   3625243   3628280   3631696  
  4940.000000   3635525   3639718   3644312   3649269   3654632  
  4930.000000   3660363   3666498   3672992   3679878   3687119  
  4920.000000   3694757   3702766   3711187   3719985   3729177  
  4910.000000   3738711   3748587   3758757   3769219   3779939  
  4900.000000   3790908   3802085   3813435   3824903   3836430  
  4890.000000   3847966   3859453   3870861   3882135   3893251  
  4880.000000   3904139   3914766   3925044   3934940   3944362  
  4870.000000   3953288   3961635   3969399   3976518   3983019  
  4860.000000   3988873   3994146   3998837   4003034   4006740  
  4850.000000   4010032   4012903   4015416   4017567   4019428  
  4840.000000   4021015   4022409   4023637   4024767   4025811  
  4830.000000   4026812   4027771   4028717   4029652   4030604  
  4820.000000   4031581   4032603   4033672   4034794   4035965  
  4810.000000   4037183   4038449   4039760   4041122   4042535  
  4800.000000   4044001   4045515   4047078   4048684   4050335  
  4790.000000   4052024   4053753   4055515   4057307   4059122  
  4780.000000   4060960   4062821   4064706   4066617   4068547  
  4770.000000   4070485   4072408   4074293   4076114   4077856  
  4760.000000   4079509   4081079   4082570   4083997   4085364  
  4750.000000   4086681   4087943   4089156   4090314   4091422  
  4740.000000   4092476   4093479   4094423   4095308   4096122  
  4730.000000   4096866   4097534   4098131   4098660   4099129  
  4720.000000   4099545   4099911   4100237   4100532   4100815  
  4710.000000   4101105   4101437   4101837   4102343   4102978  
  4700.000000   4103772   4104737   4105890   4107231   4108768  
  4690.000000   4110492   4112398   4114464   4116675   4118993  
  4680.000000   4121388   4123813   4126233   4128595   4130872  
  4670.000000   4133025   4135048   4136936   4138719   4140427  
  4660.000000   4142120   4143847   4145674   4147646   4149805  
  4650.000000   4152176   4154770   4157587   4160615   4163837  
  4640.000000   4167221   4170740   4174351   4178016   4181686  
  4630.000000   4185322   4188871   4192295   4195546   4198589  
  4620.000000   4201377   4203880   4206055   4207888   4209357  
  4610.000000   4210483   4211282   4211818   4212135   4212318  
  4600.000000   4212404   4212457   4212478   4212492   4212467  
  4590.000000   4212401   4212242   4211977   4211550   4210940  
  4580.000000   4210097   4209007   4207646   4206032   4204181  
  4570.000000   4202148   4199973   4197715   4195400   4193057  
  4560.000000   4190673   4188249   4185757   4183193   4180545  
  4550.000000   4177827   4175044   4172217   4169357   4166476  
  4540.000000   4163580   4160676   4157773   4154879   4152014  
  4530.000000   4149189   4146428   4143736   4141136   4138621  
  4520.000000   4136216   4133903   4131712   4129625   4127687  
  4510.000000   4125892   4124313   4122965   4121956   4121312  
  4500.000000   4121149   4121478   4122393   4123871   4125986  
  4490.000000   4128699   4132089   4136128   4140914   4146423  
  4480.000000   4152749   4159848   4167788   4176497   4186020  
  4470.000000   4196272   4207283   4218962   4231323   4244264  
  4460.000000   4257778   4271760   4286194   4300986   4316119  
  4450.000000   4331511   4347141   4362935   4378865   4394870  
  4440.000000   4410923   4426988   4443041   4459071   4475049  
  4430.000000   4490973   4506790   4522491   4537994   4553278  
  4420.000000   4568235   4582838   4596968   4610598   4623605  
  4410.000000   4635961   4647543   4658327   4668204   4677182  
  4400.000000   4685203   4692342   4698618   4704175   4709089  
  4390.000000   4713531   4717586   4721405   4725040   4728595  
  4380.000000   4732080   4735550   4738991   4742435   4745880  
  4370.000000   4749369   4752930   4756622   4760485   4764563  
  4360.000000   4768869   4773408   4778147   4783070   4788110  
  4350.000000   4793253   4798417   4803602   4808730   4813817  
  4340.000000   4818795   4823666   4828317   4832643   4836380  
  4330.000000   4839228   4840779   4840667   4838591   4834468  
  4320.000000   4828432   4820897   4812436   4803733   4795395  
  4310.000000   4787919   4781565   4776424   4772405   4769358  
  4300.000000   4767097   4765473   4764378   4763723   4763460  
  4290.000000   4763509   4763833   4764363   4765098   4766015  
  4280.000000   4767150   4768507   4770092   4771883   4773824  
  4270.000000   4775859   4777896   4779857   4781609   4783010  
  4260.000000   4783849   4783914   4782977   4780892   4777594  
  4250.000000   4773176   4767838   4761904   4755705   4749588  
  4240.000000   4743786   4738473   4733678   4729382   4725481  
  4230.000000   4721877   4718453   4715117   4711797   4708436  
  4220.000000   4705021   4701538   4698041   4694570   4691230  
  4210.000000   4688088   4685251   4682762   4680686   4679017  
  4200.000000   4677768   4676898   4676395   4676200   4676294  
  4190.000000   4676609   4677127   4677779   4678559   4679411  
  4180.000000   4680353   4681352   4682456   4683658   4685033  
  4170.000000   4686597   4688447   4690610   4693177   4696158  
  4160.000000   4699614   4703516   4707894   4712696   4717953  
  4150.000000   4723622   4729756   4736331   4743408   4750959  
  4140.000000   4759035   4767586   4776649   4786157   4796141  
  4130.000000   4806530   4817356   4828556   4840171   4852160  
  4120.000000   4864586   4877436   4890792   4904655   4919100  
  4110.000000   4934119   4949752   4965957   4982728   4999985  
  4100.000000   5017680   5035714   5054030   5072545   5091225  
  4090.000000   5110027   5128935   5147934   5167002   5186131  
  4080.000000   5205285   5224455   5243590   5262677   5281629  
  4070.000000   5300402   5318862   5336945   5354510   5371535  
  4060.000000   5387926   5403724   5418865   5433405   5447266  
  4050.000000   5460499   5473026   5484935   5496185   5506892  
  4040.000000   5517006   5526605   5535576   5543945   5551578  
  4030.000000   5558523   5564692   5570169   5574899   5578947  
  4020.000000   5582215   5584758   5586550   5587675   5588093  
  4010.000000   5587959   5587362   5586310   5584542   5582085  
  4000.000000   5579276  
##END= 
