##TITLE= Sample 009 By ssteindl date Dienstag, November 20 2018
##JCAMP-DX= 4.24
##DATA TYPE= INFRARED SPECTRUM
##ORIGIN= Exported PE Spectrum Data File
##OWNER= Sandra Steindl
##DATE= 18/11/20
##TIME= 16:14:52.00
##SPECTROMETER/DATA SYSTEM= PERKIN-ELMER Frontier FT-IR/NIR IR
##INSTRUMENT PARAMETERS=
  APODIZATION=stark
  DETECTOR=INGAAS
##RESOLUTION= 16.000000
##DELTAX= -2.000000
##XUNITS= 1/CM
##YUNITS= A
##XFACTOR= 1.00
##YFACTOR= 0.00000011920928955078
##FIRSTX= 10000.00
##LASTX= 4000.00
##NPOINTS= 3001
##FIRSTY= 0.232069
##MAXY= 0.613967
##MINY= 0.198663
##XYDATA= (X++(Y..Y))
 10000.000000   1946737   1940332   1934927   1931751   1930933  
  9990.000000   1931870   1934211   1937851   1942366   1946947  
  9980.000000   1950858   1953528   1954661   1954242   1952688  
  9970.000000   1950587   1948417   1946350   1944211   1941630  
  9960.000000   1938344   1934441   1930493   1927331   1925713  
  9950.000000   1925832   1927110   1928254   1927730   1924398  
  9940.000000   1918089   1909820   1901546   1895552   1893649  
  9930.000000   1896615   1903928   1914043   1924907   1934593  
  9920.000000   1941774   1945872   1947004   1945672   1942567  
  9910.000000   1938347   1933664   1929108   1925251   1922501  
  9900.000000   1920999   1920543   1920589   1920540   1919896  
  9890.000000   1918592   1916908   1915394   1914525   1914444  
  9880.000000   1914899   1915298   1915073   1913878   1911844  
  9870.000000   1909451   1907366   1906108   1905884   1906543  
  9860.000000   1907737   1909130   1910540   1911995   1913588  
  9850.000000   1915395   1917307   1919123   1920605   1921666  
  9840.000000   1922436   1923179   1924137   1925272   1926183  
  9830.000000   1926147   1924400   1920477   1914486   1907175  
  9820.000000   1899748   1893513   1889479   1888102   1889149  
  9810.000000   1891888   1895247   1898231   1900100   1900596  
  9800.000000   1899922   1898645   1897510   1897151   1897932  
  9790.000000   1899706   1901911   1903615   1903915   1902169  
  9780.000000   1898331   1892987   1887209   1882277   1879188  
  9770.000000   1878466   1879910   1882847   1886333   1889567  
  9760.000000   1892093   1893859   1895075   1895936   1896426  
  9750.000000   1896206   1894753   1891569   1886514   1879921  
  9740.000000   1872655   1865861   1860679   1857906   1857732  
  9730.000000   1859747   1863001   1866363   1868791   1869673  
  9720.000000   1868943   1867076   1864878   1863204   1862654  
  9710.000000   1863382   1865054   1866984   1868395   1868676  
  9700.000000   1867573   1865219   1862035   1858521   1855082  
  9690.000000   1851870   1848818   1845696   1842277   1838452  
  9680.000000   1834291   1830069   1826182   1823125   1821355  
  9670.000000   1821248   1822950   1826319   1830846   1835702  
  9660.000000   1839921   1842588   1843182   1841658   1838557  
  9650.000000   1834746   1831184   1828525   1826952   1826159  
  9640.000000   1825598   1824797   1823591   1822244   1821206  
  9630.000000   1820944   1821564   1822824   1824189   1825115  
  9620.000000   1825342   1824912   1824182   1823451   1822834  
  9610.000000   1822050   1820598   1817998   1814124   1809417  
  9600.000000   1804821   1801559   1800647   1802601   1807158  
  9590.000000   1813468   1820297   1826474   1831134   1833839  
  9580.000000   1834569   1833506   1830997   1827343   1822914  
  9570.000000   1818033   1813076   1808352   1804106   1800486  
  9560.000000   1797540   1795384   1794140   1794119   1795558  
  9550.000000   1798645   1803199   1808727   1814411   1819343  
  9540.000000   1822794   1824345   1824029   1822134   1819107  
  9530.000000   1815275   1810819   1805778   1800194   1794285  
  9520.000000   1788461   1783323   1779423   1777139   1776491  
  9510.000000   1777181   1778667   1780316   1781569   1781966  
  9500.000000   1781266   1779375   1776460   1772890   1769295  
  9490.000000   1766435   1765081   1765777   1768661   1773390  
  9480.000000   1779182   1785071   1790132   1793762   1795745  
  9470.000000   1796233   1795588   1794186   1792345   1790233  
  9460.000000   1787969   1785625   1783283   1781009   1778796  
  9450.000000   1776601   1774305   1771893   1769463   1767350  
  9440.000000   1765986   1765769   1766820   1768857   1771252  
  9430.000000   1773205   1774078   1773579   1771905   1769611  
  9420.000000   1767415   1765916   1765401   1765800   1766784  
  9410.000000   1767978   1769103   1770066   1770883   1771602  
  9400.000000   1772181   1772490   1772336   1771555   1770094  
  9390.000000   1768017   1765505   1762737   1759893   1757084  
  9380.000000   1754442   1752117   1750283   1749083   1748518  
  9370.000000   1748451   1748618   1748780   1748843   1748940  
  9360.000000   1749434   1750745   1753173   1756612   1760510  
  9350.000000   1763930   1765928   1765872   1763770   1760249  
  9340.000000   1756408   1753439   1752242   1753165   1755869  
  9330.000000   1759560   1763244   1766153   1767901   1768576  
  9320.000000   1768564   1768392   1768475   1768972   1769709  
  9310.000000   1770267   1770161   1769008   1766665   1763272  
  9300.000000   1759240   1755169   1751668   1749210   1747938  
  9290.000000   1747680   1747955   1748180   1747808   1746549  
  9280.000000   1744470   1741999   1739788   1738437   1738301  
  9270.000000   1739313   1741042   1742759   1743690   1743246  
  9260.000000   1741266   1738078   1734399   1731127   1729054  
  9250.000000   1728666   1729985   1732559   1735595   1738196  
  9240.000000   1739652   1739605   1738113   1735578   1732581  
  9230.000000   1729698   1727329   1725617   1724506   1723827  
  9220.000000   1723452   1723324   1723458   1723863   1724466  
  9210.000000   1725111   1725557   1725592   1725118   1724244  
  9200.000000   1723282   1722629   1722608   1723345   1724695  
  9190.000000   1726318   1727763   1728656   1728807   1728264  
  9180.000000   1727249   1726029   1724795   1723566   1722196  
  9170.000000   1720465   1718197   1715371   1712165   1708942  
  9160.000000   1706143   1704161   1703205   1703241   1704010  
  9150.000000   1705092   1706043   1706485   1706243   1705348  
  9140.000000   1704044   1702665   1701564   1701002   1701126  
  9130.000000   1701922   1703269   1704968   1706825   1708662  
  9120.000000   1710325   1711707   1712727   1713373   1713662  
  9110.000000   1713678   1713538   1713380   1713314   1713385  
  9100.000000   1713567   1713764   1713825   1713590   1712897  
  9090.000000   1711661   1709871   1707641   1705185   1702819  
  9080.000000   1700908   1699773   1699583   1700293   1701595  
  9070.000000   1702999   1703934   1703958   1702914   1701000  
  9060.000000   1698709   1696656   1695395   1695180   1695898  
  9050.000000   1697081   1698115   1698434   1697743   1696078  
  9040.000000   1693781   1691367   1689361   1688157   1687942  
  9030.000000   1688688   1690203   1692188   1694288   1696162  
  9020.000000   1697521   1698193   1698161   1697585   1696783  
  9010.000000   1696114   1695875   1696150   1696782   1697391  
  9000.000000   1697517   1696801   1695152   1692812   1690276  
  8990.000000   1688145   1686891   1686718   1687468   1688718  
  8980.000000   1689925   1690641   1690668   1690085   1689212  
  8970.000000   1688421   1688026   1688120   1688590   1689121  
  8960.000000   1689362   1689027   1688047   1686589   1685015  
  8950.000000   1683813   1683430   1684185   1686138   1689098  
  8940.000000   1692674   1696360   1699677   1702224   1703777  
  8930.000000   1704256   1703729   1702343   1700328   1697977  
  8920.000000   1695664   1693797   1692756   1692813   1694024  
  8910.000000   1696223   1698981   1701779   1704100   1705630  
  8900.000000   1706289   1706251   1705843   1705405   1705179  
  8890.000000   1705216   1705416   1705569   1705466   1704968  
  8880.000000   1704031   1702728   1701201   1699661   1698332  
  8870.000000   1697442   1697146   1697484   1698324   1699364  
  8860.000000   1700189   1700394   1699739   1698266   1696323  
  8850.000000   1694461   1693238   1693008   1693776   1695206  
  8840.000000   1696753   1697873   1698252   1697886   1697089  
  8830.000000   1696275   1695796   1695728   1695896   1695928  
  8820.000000   1695491   1694422   1692867   1691232   1690060  
  8810.000000   1689845   1690856   1693101   1696331   1700162  
  8800.000000   1704178   1708016   1711404   1714150   1716125  
  8790.000000   1717259   1717561   1717129   1716175   1714973  
  8780.000000   1713832   1712992   1712576   1712556   1712759  
  8770.000000   1712963   1712945   1712604   1711948   1711145  
  8760.000000   1710428   1710063   1710253   1711079   1712485  
  8750.000000   1714261   1716121   1717738   1718864   1719357  
  8740.000000   1719241   1718674   1717903   1717202   1716804  
  8730.000000   1716871   1717484   1718649   1720311   1722358  
  8720.000000   1724619   1726861   1728810   1730184   1730777  
  8710.000000   1730507   1729485   1727969   1726331   1724932  
  8700.000000   1724052   1723817   1724195   1725059   1726237  
  8690.000000   1727606   1729085   1730648   1732263   1733873  
  8680.000000   1735384   1736675   1737661   1738292   1738606  
  8670.000000   1738667   1738569   1738385   1738173   1737988  
  8660.000000   1737904   1738030   1738496   1739416   1740824  
  8650.000000   1742636   1744646   1746577   1748163   1749229  
  8640.000000   1749757   1749874   1749841   1749942   1750433  
  8630.000000   1751436   1752931   1754760   1756694   1758502  
  8620.000000   1760022   1761207   1762142   1763014   1764050  
  8610.000000   1765438   1767252   1769418   1771728   1773907  
  8600.000000   1775707   1777001   1777827   1778370   1778889  
  8590.000000   1779606   1780624   1781884   1783208   1784373  
  8580.000000   1785220   1785716   1785965   1786169   1786529  
  8570.000000   1787192   1788197   1789512   1791047   1792729  
  8560.000000   1794496   1796307   1798100   1799774   1801196  
  8550.000000   1802237   1802831   1803013   1802923   1802750  
  8540.000000   1802658   1802723   1802904   1803094   1803180  
  8530.000000   1803146   1803095   1803241   1803805   1804909  
  8520.000000   1806495   1808305   1809974   1811124   1811546  
  8510.000000   1811223   1810383   1809373   1808569   1808255  
  8500.000000   1808561   1809492   1810959   1812881   1815206  
  8490.000000   1817925   1821001   1824328   1827689   1830753  
  8480.000000   1833148   1834548   1834800   1833947   1832251  
  8470.000000   1830123   1828050   1826469   1825676   1825789  
  8460.000000   1826747   1828340   1830250   1832140   1833713  
  8450.000000   1834784   1835280   1835278   1834982   1834674  
  8440.000000   1834646   1835124   1836236   1837951   1840098  
  8430.000000   1842402   1844558   1846312   1847501   1848094  
  8420.000000   1848177   1847923   1847517   1847120   1846826  
  8410.000000   1846666   1846617   1846639   1846688   1846745  
  8400.000000   1846800   1846863   1846922   1846974   1846996  
  8390.000000   1846981   1846928   1846862   1846817   1846833  
  8380.000000   1846924   1847079   1847250   1847375   1847391  
  8370.000000   1847246   1846919   1846404   1845724   1844895  
  8360.000000   1843940   1842869   1841701   1840481   1839277  
  8350.000000   1838205   1837374   1836913   1836903   1837389  
  8340.000000   1838330   1839606   1841027   1842354   1843344  
  8330.000000   1843761   1843439   1842294   1840382   1837878  
  8320.000000   1835064   1832285   1829886   1828159   1827265  
  8310.000000   1827214   1827848   1828903   1830047   1830976  
  8300.000000   1831447   1831330   1830621   1829411   1827870  
  8290.000000   1826185   1824544   1823093   1821942   1821140  
  8280.000000   1820682   1820518   1820552   1820681   1820797  
  8270.000000   1820822   1820707   1820443   1820041   1819517  
  8260.000000   1818879   1818119   1817232   1816230   1815156  
  8250.000000   1814090   1813121   1812328   1811736   1811315  
  8240.000000   1810972   1810601   1810102   1809433   1808602  
  8230.000000   1807657   1806646   1805583   1804442   1803169  
  8220.000000   1801725   1800119   1798429   1796788   1795337  
  8210.000000   1794182   1793341   1792758   1792319   1791914  
  8200.000000   1791467   1790967   1790434   1789898   1789349  
  8190.000000   1788728   1787953   1786945   1785691   1784242  
  8180.000000   1782710   1781210   1779812   1778515   1777253  
  8170.000000   1775945   1774545   1773096   1771709   1770530  
  8160.000000   1769657   1769102   1768756   1768447   1767992  
  8150.000000   1767281   1766312   1765186   1764050   1763022  
  8140.000000   1762138   1761330   1760482   1759467   1758229  
  8130.000000   1756780   1755209   1753608   1752048   1750540  
  8120.000000   1749049   1747552   1746064   1744697   1743619  
  8110.000000   1743029   1743060   1743738   1744935   1746397  
  8100.000000   1747792   1748777   1749089   1748572   1747233  
  8090.000000   1745200   1742719   1740080   1737576   1735436  
  8080.000000   1733790   1732658   1731950   1731526   1731224  
  8070.000000   1730934   1730600   1730236   1729882   1729568  
  8060.000000   1729284   1728972   1728561   1727987   1727252  
  8050.000000   1726411   1725567   1724819   1724221   1723760  
  8040.000000   1723358   1722917   1722357   1721660   1720860  
  8030.000000   1720028   1719225   1718468   1717721   1716916  
  8020.000000   1715989   1714919   1713743   1712538   1711394  
  8010.000000   1710366   1709463   1708642   1707849   1707041  
  8000.000000   1706218   1705412   1704673   1704035   1703499  
  7990.000000   1703035   1702606   1702204   1701860   1701649  
  7980.000000   1701657   1701927   1702434   1703059   1703629  
  7970.000000   1703946   1703865   1703313   1702327   1701016  
  7960.000000   1699543   1698076   1696769   1695741   1695070  
  7950.000000   1694796   1694909   1695355   1696028   1696791  
  7940.000000   1697502   1698045   1698367   1698480   1698451  
  7930.000000   1698363   1698285   1698237   1698198   1698124  
  7920.000000   1697988   1697793   1697587   1697420   1697314  
  7910.000000   1697228   1697056   1696663   1695946   1694896  
  7900.000000   1693629   1692371   1691392   1690918   1691051  
  7890.000000   1691729   1692746   1693816   1694668   1695125  
  7880.000000   1695155   1694853   1694404   1694001   1693800  
  7870.000000   1693860   1694162   1694609   1695084   1695475  
  7860.000000   1695710   1695766   1695665   1695475   1695278  
  7850.000000   1695168   1695216   1695461   1695896   1696470  
  7840.000000   1697094   1697670   1698102   1698328   1698310  
  7830.000000   1698053   1697583   1696946   1696205   1695429  
  7820.000000   1694696   1694074   1693609   1693306   1693122  
  7810.000000   1692975   1692761   1692403   1691875   1691231  
  7800.000000   1690590   1690105   1689912   1690079   1690576  
  7790.000000   1691290   1692050   1692693   1693101   1693242  
  7780.000000   1693158   1692948   1692718   1692546   1692457  
  7770.000000   1692414   1692343   1692149   1691754   1691112  
  7760.000000   1690223   1689142   1687959   1686803   1685800  
  7750.000000   1685075   1684703   1684712   1685054   1685622  
  7740.000000   1686257   1686782   1687034   1686899   1686334  
  7730.000000   1685375   1684136   1682777   1681474   1680373  
  7720.000000   1679562   1679050   1678772   1678614   1678449  
  7710.000000   1678175   1677738   1677142   1676430   1675668  
  7700.000000   1674915   1674214   1673586   1673042   1672597  
  7690.000000   1672268   1672082   1672046   1672143   1672306  
  7680.000000   1672444   1672443   1672213   1671702   1670925  
  7670.000000   1669947   1668889   1667887   1667083   1666596  
  7660.000000   1666506   1666845   1667575   1668597   1669753  
  7650.000000   1670861   1671748   1672294   1672463   1672302  
  7640.000000   1671928   1671476   1671061   1670729   1670468  
  7630.000000   1670210   1669888   1669469   1668981   1668504  
  7620.000000   1668138   1667965   1668015   1668259   1668622  
  7610.000000   1669009   1669343   1669580   1669722   1669797  
  7600.000000   1669854   1669939   1670091   1670333   1670678  
  7590.000000   1671116   1671619   1672135   1672599   1672946  
  7580.000000   1673131   1673147   1673032   1672853   1672694  
  7570.000000   1672623   1672682   1672874   1673173   1673542  
  7560.000000   1673949   1674378   1674828   1675302   1675809  
  7550.000000   1676344   1676902   1677459   1677997   1678486  
  7540.000000   1678904   1679224   1679439   1679560   1679635  
  7530.000000   1679740   1679971   1680422   1681154   1682181  
  7520.000000   1683460   1684905   1686404   1687844   1689132  
  7510.000000   1690202   1691027   1691607   1691981   1692208  
  7500.000000   1692388   1692622   1693010   1693606   1694412  
  7490.000000   1695374   1696406   1697423   1698380   1699285  
  7480.000000   1700200   1701196   1702321   1703560   1704850  
  7470.000000   1706085   1707191   1708137   1708975   1709801  
  7460.000000   1710731   1711845   1713171   1714684   1716337  
  7450.000000   1718090   1719935   1721883   1723941   1726074  
  7440.000000   1728200   1730203   1731986   1733502   1734794  
  7430.000000   1735965   1737152   1738452   1739888   1741393  
  7420.000000   1742856   1744177   1745321   1746340   1747358  
  7410.000000   1748513   1749905   1751554   1753401   1755345  
  7400.000000   1757288   1759172   1760991   1762769   1764537  
  7390.000000   1766300   1768044   1769744   1771394   1773017  
  7380.000000   1774666   1776392   1778214   1780105   1781995  
  7370.000000   1783810   1785498   1787067   1788570   1790083  
  7360.000000   1791658   1793295   1794926   1796452   1797775  
  7350.000000   1798853   1799716   1800462   1801218   1802101  
  7340.000000   1803167   1804416   1805796   1807242   1808703  
  7330.000000   1810145   1811560   1812942   1814285   1815568  
  7320.000000   1816780   1817913   1818987   1820042   1821134  
  7310.000000   1822319   1823641   1825126   1826779   1828589  
  7300.000000   1830524   1832543   1834582   1836572   1838442  
  7290.000000   1840133   1841621   1842912   1844045   1845071  
  7280.000000   1846037   1846967   1847872   1848745   1849585  
  7270.000000   1850402   1851220   1852073   1852988   1853983  
  7260.000000   1855061   1856220   1857459   1858783   1860211  
  7250.000000   1861745   1863387   1865102   1866851   1868576  
  7240.000000   1870246   1871842   1873389   1874915   1876474  
  7230.000000   1878095   1879818   1881662   1883667   1885862  
  7220.000000   1888285   1890939   1893809   1896824   1899903  
  7210.000000   1902948   1905907   1908766   1911585   1914447  
  7200.000000   1917457   1920676   1924133   1927788   1931583  
  7190.000000   1935428   1939253   1942998   1946644   1950185  
  7180.000000   1953649   1957069   1960501   1963988   1967574  
  7170.000000   1971266   1975053   1978877   1982688   1986431  
  7160.000000   1990103   1993739   1997428   2001261   2005330  
  7150.000000   2009673   2014293   2019129   2024106   2029129  
  7140.000000   2034143   2039103   2044020   2048901   2053789  
  7130.000000   2058705   2063693   2068768   2073965   2079288  
  7120.000000   2084750   2090333   2096026   2101802   2107655  
  7110.000000   2113574   2119564   2125612   2131705   2137800  
  7100.000000   2143859   2149830   2155697   2161458   2167150  
  7090.000000   2172819   2178523   2184313   2190230   2196303  
  7080.000000   2202547   2208960   2215518   2222162   2228806  
  7070.000000   2235341   2241669   2247723   2253494   2259027  
  7060.000000   2264413   2269753   2275130   2280591   2286144  
  7050.000000   2291774   2297454   2303176   2308937   2314747  
  7040.000000   2320597   2326470   2332321   2338102   2343768  
  7030.000000   2349300   2354696   2359977   2365166   2370292  
  7020.000000   2375365   2380400   2385394   2390350   2395247  
  7010.000000   2400062   2404750   2409277   2413615   2417782  
  7000.000000   2421820   2425817   2429843   2433966   2438186  
  6990.000000   2442479   2446777   2451028   2455188   2459255  
  6980.000000   2463227   2467101   2470829   2474340   2477544  
  6970.000000   2480388   2482872   2485083   2487159   2489274  
  6960.000000   2491562   2494115   2496934   2499979   2503151  
  6950.000000   2506358   2509497   2512487   2515241   2517698  
  6940.000000   2519814   2521600   2523116   2524479   2525817  
  6930.000000   2527251   2528839   2530579   2532399   2534219  
  6920.000000   2535957   2537589   2539116   2540579   2541998  
  6910.000000   2543379   2544691   2545905   2547006   2548015  
  6900.000000   2548984   2549974   2551018   2552115   2553216  
  6890.000000   2554265   2555218   2556079   2556893   2557730  
  6880.000000   2558642   2559642   2560691   2561716   2562643  
  6870.000000   2563433   2564092   2564675   2565250   2565877  
  6860.000000   2566584   2567375   2568232   2569142   2570097  
  6850.000000   2571099   2572138   2573188   2574197   2575107  
  6840.000000   2575865   2576458   2576904   2577261   2577592  
  6830.000000   2577959   2578392   2578901   2579471   2580081  
  6820.000000   2580695   2581281   2581789   2582172   2582384  
  6810.000000   2582412   2582276   2582044   2581808   2581663  
  6800.000000   2581664   2581811   2582044   2582273   2582407  
  6790.000000   2582395   2582232   2581964   2581651   2581352  
  6780.000000   2581097   2580892   2580724   2580586   2580480  
  6770.000000   2580418   2580408   2580444   2580498   2580529  
  6760.000000   2580498   2580385   2580201   2579980   2579770  
  6750.000000   2579612   2579529   2579524   2579590   2579712  
  6740.000000   2579880   2580080   2580296   2580497   2580651  
  6730.000000   2580720   2580688   2580563   2580377   2580179  
  6720.000000   2580016   2579920   2579899   2579948   2580056  
  6710.000000   2580222   2580451   2580751   2581113   2581508  
  6700.000000   2581875   2582146   2582253   2582163   2581871  
  6690.000000   2581414   2580842   2580211   2579559   2578916  
  6680.000000   2578289   2577686   2577108   2576557   2576020  
  6670.000000   2575480   2574896   2574234   2573459   2572564  
  6660.000000   2571558   2570481   2569373   2568280   2567227  
  6650.000000   2566237   2565308   2564441   2563621   2562831  
  6640.000000   2562041   2561213   2560306   2559287   2558136  
  6630.000000   2556859   2555477   2554023   2552528   2551015  
  6620.000000   2549494   2547977   2546472   2544999   2543576  
  6610.000000   2542221   2540933   2539698   2538483   2537259  
  6600.000000   2536002   2534712   2533398   2532077   2530757  
  6590.000000   2529435   2528091   2526706   2525267   2523778  
  6580.000000   2522256   2520724   2519194   2517662   2516110  
  6570.000000   2514516   2512869   2511179   2509474   2507796  
  6560.000000   2506180   2504646   2503190   2501795   2500435  
  6550.000000   2499091   2497756   2496428   2495108   2493791  
  6540.000000   2492464   2491111   2489722   2488299   2486857  
  6530.000000   2485415   2483990   2482590   2481210   2479840  
  6520.000000   2478468   2477095   2475727   2474380   2473070  
  6510.000000   2471803   2470580   2469395   2468235   2467091  
  6500.000000   2465952   2464810   2463651   2462466   2461245  
  6490.000000   2459993   2458723   2457460   2456224   2455026  
  6480.000000   2453858   2452695   2451504   2450259   2448952  
  6470.000000   2447598   2446225   2444867   2443544   2442264  
  6460.000000   2441027   2439827   2438669   2437567   2436536  
  6450.000000   2435578   2434677   2433791   2432873   2431875  
  6440.000000   2430783   2429609   2428396   2427191   2426036  
  6430.000000   2424941   2423900   2422888   2421897   2420929  
  6420.000000   2420015   2419187   2418473   2417869   2417350  
  6410.000000   2416869   2416385   2415877   2415356   2414854  
  6400.000000   2414417   2414073   2413836   2413689   2413605  
  6390.000000   2413547   2413487   2413404   2413285   2413118  
  6380.000000   2412894   2412606   2412256   2411861   2411451  
  6370.000000   2411065   2410734   2410476   2410278   2410112  
  6360.000000   2409929   2409690   2409366   2408955   2408470  
  6350.000000   2407941   2407395   2406853   2406320   2405784  
  6340.000000   2405219   2404597   2403894   2403101   2402233  
  6330.000000   2401328   2400434   2399609   2398887   2398280  
  6320.000000   2397763   2397288   2396796   2396242   2395602  
  6310.000000   2394886   2394119   2393333   2392541   2391732  
  6300.000000   2390873   2389928   2388868   2387695   2386437  
  6290.000000   2385146   2383875   2382666   2381532   2380466  
  6280.000000   2379434   2378403   2377337   2376216   2375031  
  6270.000000   2373792   2372512   2371214   2369920   2368652  
  6260.000000   2367421   2366227   2365058   2363891   2362698  
  6250.000000   2361457   2360153   2358786   2357365   2355906  
  6240.000000   2354427   2352943   2351472   2350030   2348637  
  6230.000000   2347310   2346056   2344870   2343729   2342601  
  6220.000000   2341449   2340248   2338994   2337701   2336400  
  6210.000000   2335123   2333893   2332712   2331568   2330434  
  6200.000000   2329291   2328128   2326949   2325772   2324619  
  6190.000000   2323512   2322464   2321479   2320554   2319676  
  6180.000000   2318832   2318004   2317181   2316354   2315526  
  6170.000000   2314709   2313923   2313189   2312524   2311930  
  6160.000000   2311397   2310898   2310405   2309888   2309331  
  6150.000000   2308724   2308066   2307357   2306604   2305813  
  6140.000000   2304998   2304180   2303388   2302650   2301983  
  6130.000000   2301383   2300833   2300298   2299749   2299169  
  6120.000000   2298563   2297953   2297373   2296845   2296382  
  6110.000000   2295977   2295620   2295298   2295019   2294794  
  6100.000000   2294650   2294598   2294643   2294761   2294926  
  6090.000000   2295104   2295284   2295460   2295655   2295883  
  6080.000000   2296164   2296494   2296871   2297280   2297720  
  6070.000000   2298188   2298699   2299256   2299864   2300507  
  6060.000000   2301174   2301843   2302519   2303206   2303935  
  6050.000000   2304726   2305609   2306586   2307665   2308840  
  6040.000000   2310121   2311518   2313061   2314763   2316640  
  6030.000000   2318672   2320832   2323067   2325338   2327602  
  6020.000000   2329849   2332070   2334281   2336483   2338691  
  6010.000000   2340901   2343122   2345353   2347608   2349894  
  6000.000000   2352229   2354620   2357080   2359611   2362221  
  5990.000000   2364903   2367661   2370480   2373355   2376268  
  5980.000000   2379222   2382218   2385282   2388435   2391707  
  5970.000000   2395105   2398628   2402237   2405899   2409563  
  5960.000000   2413203   2416799   2420359   2423888   2427404  
  5950.000000   2430911   2434424   2437951   2441520   2445164  
  5940.000000   2448926   2452843   2456927   2461168   2465524  
  5930.000000   2469936   2474335   2478666   2482881   2486955  
  5920.000000   2490866   2494602   2498148   2501492   2504627  
  5910.000000   2507556   2510290   2512853   2515269   2517576  
  5900.000000   2519802   2521997   2524196   2526454   2528800  
  5890.000000   2531264   2533834   2536492   2539186   2541870  
  5880.000000   2544491   2547018   2549425   2551696   2553816  
  5870.000000   2555772   2557555   2559167   2560631   2561993  
  5860.000000   2563311   2564651   2566061   2567574   2569196  
  5850.000000   2570924   2572745   2574652   2576640   2578707  
  5840.000000   2580844   2583029   2585237   2587438   2589616  
  5830.000000   2591762   2593891   2596019   2598168   2600345  
  5820.000000   2602557   2604794   2607052   2609324   2611608  
  5810.000000   2613900   2616189   2618465   2620709   2622928  
  5800.000000   2625120   2627326   2629566   2631879   2634249  
  5790.000000   2636656   2639014   2641243   2643219   2644855  
  5780.000000   2646046   2646742   2646887   2646481   2645535  
  5770.000000   2644119   2642316   2640258   2638060   2635851  
  5760.000000   2633700   2631668   2629753   2627965   2626283  
  5750.000000   2624719   2623268   2621941   2620724   2619594  
  5740.000000   2618513   2617441   2616355   2615241   2614109  
  5730.000000   2612967   2611827   2610682   2609523   2608339  
  5720.000000   2607134   2605924   2604739   2603602   2602527  
  5710.000000   2601505   2600513   2599525   2598532   2597538  
  5700.000000   2596569   2595654   2594809   2594034   2593306  
  5690.000000   2592598   2591888   2591178   2590480   2589826  
  5680.000000   2589227   2588685   2588165   2587622   2586989  
  5670.000000   2586215   2585247   2584053   2582605   2580894  
  5660.000000   2578919   2576708   2574311   2571807   2569280  
  5650.000000   2566811   2564448   2562211   2560077   2558016  
  5640.000000   2555997   2554011   2552073   2550211   2548458  
  5630.000000   2546829   2545325   2543924   2542607   2541348  
  5620.000000   2540142   2538977   2537855   2536760   2535687  
  5610.000000   2534616   2533549   2532494   2531475   2530516  
  5600.000000   2529640   2528849   2528131   2527464   2526824  
  5590.000000   2526194   2525569   2524944   2524317   2523675  
  5580.000000   2522995   2522255   2521438   2520542   2519582  
  5570.000000   2518587   2517583   2516598   2515644   2514730  
  5560.000000   2513858   2513029   2512239   2511478   2510726  
  5550.000000   2509953   2509128   2508228   2507249   2506211  
  5540.000000   2505147   2504098   2503094   2502142   2501234  
  5530.000000   2500346   2499458   2498560   2497653   2496747  
  5520.000000   2495848   2494954   2494051   2493124   2492162  
  5510.000000   2491170   2490162   2489164   2488196   2487267  
  5500.000000   2486368   2485484   2484588   2483663   2482694  
  5490.000000   2481673   2480590   2479438   2478206   2476896  
  5480.000000   2475518   2474098   2472669   2471262   2469892  
  5470.000000   2468555   2467225   2465876   2464479   2463026  
  5460.000000   2461516   2459965   2458378   2456762   2455110  
  5450.000000   2453424   2451709   2449988   2448293   2446651  
  5440.000000   2445081   2443579   2442130   2440708   2439301  
  5430.000000   2437904   2436532   2435194   2433905   2432659  
  5420.000000   2431462   2430309   2429229   2428250   2427426  
  5410.000000   2426781   2426331   2426042   2425882   2425794  
  5400.000000   2425763   2425777   2425873   2426074   2426427  
  5390.000000   2426928   2427585   2428364   2429267   2430277  
  5380.000000   2431427   2432723   2434198   2435834   2437635  
  5370.000000   2439551   2441584   2443698   2445926   2448261  
  5360.000000   2450762   2453428   2456325   2459457   2462904  
  5350.000000   2466680   2470875   2475486   2480569   2486074  
  5340.000000   2492023   2498344   2505081   2512191   2519752  
  5330.000000   2527732   2536201   2545099   2554477   2564267  
  5320.000000   2574550   2585305   2596669   2608648   2621387  
  5310.000000   2634860   2649159   2664206   2680053   2696615  
  5300.000000   2713963   2732048   2750980   2770743   2791453  
  5290.000000   2813070   2835643   2859044   2883222   2907987  
  5280.000000   2933277   2958976   2985137   3011782   3039051  
  5270.000000   3066984   3095611   3124810   3154401   3184149  
  5260.000000   3213857   3243423   3272829   3302155   3331445  
  5250.000000   3360728   3389871   3418718   3446983   3474504  
  5240.000000   3501090   3526782   3551584   3575686   3599138  
  5230.000000   3622089   3644478   3666321   3687436   3707786  
  5220.000000   3727207   3745746   3763357   3780203   3796315  
  5210.000000   3811870   3826843   3841302   3855101   3868225  
  5200.000000   3880518   3892033   3902727   3912759   3922145  
  5190.000000   3931025   3939347   3947156   3954332   3960896  
  5180.000000   3966763   3972014   3976620   3980682   3984161  
  5170.000000   3987117   3989483   3991316   3992576   3993355  
  5160.000000   3993647   3993538   3992992   3992049   3990643  
  5150.000000   3988811   3986518   3983842   3980788   3977440  
  5140.000000   3973789   3969885   3965702   3961283   3956621  
  5130.000000   3951780   3946775   3941658   3936420   3931072  
  5120.000000   3925578   3919941   3914143   3908215   3902173  
  5110.000000   3896063   3889904   3883732   3877560   3871421  
  5100.000000   3865337   3859339   3853441   3847645   3841928  
  5090.000000   3836260   3830603   3824940   3819261   3813581  
  5080.000000   3807912   3802266   3796633   3790994   3785318  
  5070.000000   3779592   3773806   3767979   3762126   3756271  
  5060.000000   3750408   3744526   3738581   3732544   3726375  
  5050.000000   3720066   3713610   3707026   3700320   3693514  
  5040.000000   3686612   3679632   3672585   3665497   3658386  
  5030.000000   3651278   3644186   3637119   3630078   3623066  
  5020.000000   3616088   3609159   3602299   3595529   3588871  
  5010.000000   3582330   3575917   3569620   3563448   3557389  
  5000.000000   3551456   3545643   3539967   3534413   3528996  
  4990.000000   3523700   3518547   3513529   3508685   3504019  
  4980.000000   3499574   3495347   3491370   3487621   3484123  
  4970.000000   3480846   3477817   3475011   3472469   3470177  
  4960.000000   3468185   3466484   3465132   3464114   3463484  
  4950.000000   3463213   3463339   3463817   3464669   3465844  
  4940.000000   3467368   3469201   3471387   3473898   3476786  
  4930.000000   3480023   3483654   3487642   3492028   3496776  
  4920.000000   3501923   3507439   3513356   3519638   3526304  
  4910.000000   3533312   3540670   3548337   3556312   3564553  
  4900.000000   3573042   3581729   3590573   3599519   3608513  
  4890.000000   3617506   3626444   3635289   3643978   3652476  
  4880.000000   3660706   3668637   3676188   3683339   3690015  
  4870.000000   3696214   3701864   3706973   3711479   3715402  
  4860.000000   3718696   3721400   3723489   3725023   3725994  
  4850.000000   3726477   3726487   3726113   3725391   3724418  
  4840.000000   3723234   3721925   3720518   3719073   3717604  
  4830.000000   3716155   3714739   3713388   3712117   3710943  
  4820.000000   3709872   3708903   3708036   3707263   3706592  
  4810.000000   3706022   3705571   3705237   3705035   3704955  
  4800.000000   3705005   3705172   3705468   3705889   3706456  
  4790.000000   3707164   3708023   3709013   3710126   3711332  
  4780.000000   3712618   3713964   3715370   3716826   3718331  
  4770.000000   3719870   3721429   3722979   3724501   3725974  
  4760.000000   3727395   3728763   3730089   3731384   3732657  
  4750.000000   3733916   3735163   3736401   3737631   3738857  
  4740.000000   3740085   3741319   3742565   3743826   3745107  
  4730.000000   3746409   3747738   3749091   3750470   3751862  
  4720.000000   3753263   3754653   3756034   3757401   3758777  
  4710.000000   3760181   3761663   3763252   3765000   3766927  
  4700.000000   3769066   3771419   3773998   3776794   3779811  
  4690.000000   3783037   3786472   3790096   3793898   3797842  
  4680.000000   3801899   3806010   3810137   3814216   3818218  
  4670.000000   3822100   3825865   3829508   3833068   3836572  
  4660.000000   3840080   3843637   3847308   3851144   3855196  
  4650.000000   3859497   3864062   3868881   3873920   3879129  
  4640.000000   3884443   3889808   3895167   3900491   3905750  
  4630.000000   3910932   3916006   3920953   3925725   3930293  
  4620.000000   3934605   3938640   3942358   3945756   3948805  
  4610.000000   3951516   3953867   3955890   3957591   3959034  
  4600.000000   3960251   3961328   3962290   3963196   3964031  
  4590.000000   3964805   3965462   3965983   3966301   3966398  
  4580.000000   3966225   3965776   3965025   3963986   3962661  
  4570.000000   3961093   3959317   3957401   3955391   3953350  
  4560.000000   3951300   3949267   3947236   3945206   3943148  
  4550.000000   3941064   3938941   3936791   3934617   3932427  
  4540.000000   3930221   3927997   3925751   3923484   3921201  
  4530.000000   3918906   3916611   3914315   3912026   3909729  
  4520.000000   3907434   3905130   3902853   3900611   3898471  
  4510.000000   3896457   3894650   3893073   3891811   3890873  
  4500.000000   3890344   3890223   3890589   3891430   3892816  
  4490.000000   3894722   3897218   3900271   3903957   3908245  
  4480.000000   3913209   3918811   3925111   3932057   3939694  
  4470.000000   3947959   3956885   3966402   3976531   3987189  
  4460.000000   3998379   4010006   4022054   4034428   4047110  
  4450.000000   4060021   4073153   4086454   4099928   4113546  
  4440.000000   4127312   4141204   4155207   4169293   4183417  
  4430.000000   4197542   4211599   4225551   4239321   4252885  
  4420.000000   4266168   4279156   4291775   4304010   4315770  
  4410.000000   4327022   4337655   4347630   4356849   4365312  
  4400.000000   4372987   4379957   4386272   4392082   4397479  
  4390.000000   4402620   4407581   4412480   4417344   4422240  
  4380.000000   4427154   4432108   4437065   4442031   4446971  
  4370.000000   4451897   4456799   4461700   4466601   4471522  
  4360.000000   4476455   4481409   4486358   4491319   4496248  
  4350.000000   4501172   4506027   4510841   4515534   4520147  
  4340.000000   4524611   4528966   4533113   4536979   4540296  
  4330.000000   4542747   4543858   4543187   4540337   4535156  
  4320.000000   4527743   4518533   4508169   4497441   4487075  
  4310.000000   4477669   4469556   4462857   4457481   4453252  
  4300.000000   4449957   4447423   4445537   4444216   4443432  
  4290.000000   4443118   4443256   4443767   4444645   4445834  
  4280.000000   4447340   4449124   4451167   4453417   4455819  
  4270.000000   4458322   4460867   4463402   4465828   4468008  
  4260.000000   4469716   4470690   4470635   4469325   4466630  
  4250.000000   4462607   4457456   4451538   4445250   4439012  
  4240.000000   4433126   4427813   4423122   4419033   4415425  
  4230.000000   4412172   4409136   4406210   4403317   4400399  
  4220.000000   4397453   4394472   4391518   4388635   4385937  
  4210.000000   4383493   4381416   4379747   4378545   4377789  
  4200.000000   4377469   4377514   4377878   4378473   4379258  
  4190.000000   4380157   4381158   4382212   4383340   4384518  
  4180.000000   4385788   4387135   4388605   4390184   4391920  
  4170.000000   4393809   4395908   4398230   4400844   4403763  
  4160.000000   4407046   4410684   4414713   4419094   4423848  
  4150.000000   4428929   4434362   4440110   4446214   4452647  
  4140.000000   4459466   4466649   4474253   4482249   4490682  
  4130.000000   4499501   4508732   4518314   4528272   4538565  
  4120.000000   4549247   4560318   4571867   4583923   4596577  
  4110.000000   4609841   4623757   4638278   4653368   4668914  
  4100.000000   4684828   4700984   4717302   4733706   4750171  
  4090.000000   4766683   4783241   4799838   4816440   4833018  
  4080.000000   4849501   4865862   4882041   4898040   4913803  
  4070.000000   4929330   4944521   4959339   4973647   4987407  
  4060.000000   5000509   5012973   5024741   5035882   5046363  
  4050.000000   5056274   5065594   5074429   5082770   5090725  
  4040.000000   5098256   5105420   5112120   5118366   5124041  
  4030.000000   5129172   5133686   5137647   5141023   5143874  
  4020.000000   5146148   5147903   5149145   5149952   5150308  
  4010.000000   5150332   5150094   5149584   5148578   5147070  
  4000.000000   5145300  
##END= 
