##TITLE= Sample 003 By ssteindl date Dienstag, November 20 2018
##JCAMP-DX= 4.24
##DATA TYPE= INFRARED SPECTRUM
##ORIGIN= Exported PE Spectrum Data File
##OWNER= Sandra Steindl
##DATE= 18/11/20
##TIME= 16:54:56.00
##SPECTROMETER/DATA SYSTEM= PERKIN-ELMER Frontier FT-IR/NIR IR
##INSTRUMENT PARAMETERS=
  APODIZATION=stark
  DETECTOR=INGAAS
##RESOLUTION= 16.000000
##DELTAX= -2.000000
##XUNITS= 1/CM
##YUNITS= A
##XFACTOR= 1.00
##YFACTOR= 0.00000011920928955078
##FIRSTX= 10000.00
##LASTX= 4000.00
##NPOINTS= 3001
##FIRSTY= 0.212195
##MAXY= 0.613018
##MINY= 0.176045
##XYDATA= (X++(Y..Y))
 10000.000000   1780023   1785716   1790202   1791585   1789129  
  9990.000000   1783463   1775857   1767669   1760065   1753689  
  9980.000000   1748337   1743403   1738360   1733347   1729043  
  9970.000000   1726605   1726970   1730499   1736582   1743860  
  9960.000000   1750598   1755245   1756922   1755496   1751568  
  9950.000000   1746024   1739777   1733471   1727481   1722034  
  9940.000000   1717327   1713615   1711092   1709802   1709474  
  9930.000000   1709587   1709483   1708600   1706653   1703662  
  9920.000000   1699910   1695719   1691373   1687012   1682787  
  9910.000000   1678948   1675961   1674415   1674826   1677349  
  9900.000000   1681617   1686740   1691554   1694961   1696296  
  9890.000000   1695486   1693046   1689805   1686646   1684188  
  9880.000000   1682747   1682318   1682759   1683845   1685330  
  9870.000000   1686895   1688119   1688547   1687799   1685787  
  9860.000000   1682798   1679508   1676772   1675353   1675653  
  9850.000000   1677560   1680534   1683792   1686648   1688647  
  9840.000000   1689702   1689893   1689397   1688275   1686560  
  9830.000000   1684296   1681715   1679305   1677700   1677579  
  9820.000000   1679340   1683093   1688498   1695048   1702065  
  9810.000000   1708975   1715233   1720333   1723774   1724993  
  9800.000000   1723622   1719477   1712895   1704555   1695455  
  9790.000000   1686565   1678558   1671790   1666256   1662053  
  9780.000000   1659390   1658910   1661273   1666971   1675756  
  9770.000000   1686526   1697399   1706138   1710892   1710599  
  9760.000000   1705482   1696711   1686175   1675705   1666721  
  9750.000000   1659916   1655357   1652768   1651751   1652079  
  9740.000000   1653567   1656123   1659453   1663177   1666744  
  9730.000000   1669678   1671659   1672587   1672613   1671927  
  9720.000000   1670770   1669212   1667285   1664936   1662163  
  9710.000000   1659031   1655632   1652092   1648476   1644891  
  9700.000000   1641471   1638493   1636299   1635232   1635451  
  9690.000000   1636822   1638877   1640909   1642167   1642082  
  9680.000000   1640474   1637607   1634138   1630878   1628552  
  9670.000000   1627566   1627907   1629190   1630784   1632022  
  9660.000000   1632381   1631600   1629742   1627117   1624192  
  9650.000000   1621398   1619015   1617063   1615346   1613535  
  9640.000000   1611371   1608795   1606053   1603651   1602183  
  9630.000000   1602114   1603572   1606267   1609569   1612692  
  9620.000000   1614973   1616045   1615955   1615063   1613914  
  9610.000000   1613000   1612657   1612968   1613831   1615017  
  9600.000000   1616269   1617348   1618056   1618267   1617940  
  9590.000000   1617171   1616187   1615333   1614952   1615271  
  9580.000000   1616263   1617632   1618876   1619494   1619171  
  9570.000000   1617954   1616229   1614613   1613687   1613777  
  9560.000000   1614813   1616348   1617714   1618264   1617586  
  9550.000000   1615645   1612747   1609437   1606276   1603725  
  9540.000000   1602025   1601209   1601141   1601555   1602144  
  9530.000000   1602568   1602555   1601907   1600557   1598575  
  9520.000000   1596149   1593572   1591181   1589328   1588323  
  9510.000000   1588391   1589605   1591880   1594912   1598245  
  9500.000000   1601267   1603377   1604070   1603116   1600628  
  9490.000000   1597046   1593035   1589238   1586120   1583764  
  9480.000000   1581937   1580136   1577846   1574697   1570639  
  9470.000000   1565971   1561258   1557208   1554444   1553429  
  9460.000000   1554306   1556971   1561047   1566012   1571278  
  9450.000000   1576273   1580559   1583812   1585885   1586670  
  9440.000000   1586134   1584190   1580842   1576189   1570595  
  9430.000000   1564683   1559266   1555209   1553130   1553304  
  9420.000000   1555466   1558992   1562997   1566671   1569442  
  9410.000000   1571088   1571694   1571478   1570698   1569478  
  9400.000000   1567905   1566016   1563988   1562107   1560737  
  9390.000000   1560164   1560428   1561330   1562446   1563398  
  9380.000000   1563947   1564169   1564342   1564829   1565827  
  9370.000000   1567227   1568600   1569361   1569037   1567445  
  9360.000000   1564795   1561558   1558305   1555448   1553138  
  9350.000000   1551233   1549464   1547601   1545598   1543611  
  9340.000000   1541898   1540705   1540136   1540186   1540765  
  9330.000000   1541821   1543367   1545451   1548062   1551007  
  9320.000000   1553928   1556305   1557679   1557749   1556548  
  9310.000000   1554372   1551705   1549022   1546641   1544682  
  9300.000000   1543080   1541791   1540855   1540525   1541083  
  9290.000000   1542747   1545414   1548680   1551862   1554202  
  9280.000000   1555081   1554180   1551613   1547803   1543382  
  9270.000000   1538942   1534919   1531515   1528725   1526459  
  9260.000000   1524601   1523130   1522075   1521528   1521537  
  9250.000000   1522102   1523106   1524319   1525440   1526125  
  9240.000000   1526134   1525312   1523717   1521523   1519064  
  9230.000000   1516692   1514744   1513441   1512874   1513019  
  9220.000000   1513751   1514921   1516349   1517907   1519472  
  9210.000000   1520975   1522349   1523558   1524602   1525485  
  9200.000000   1526219   1526741   1526935   1526609   1525592  
  9190.000000   1523767   1521186   1518079   1514853   1511990  
  9180.000000   1509900   1508827   1508763   1509512   1510733  
  9170.000000   1512126   1513490   1514806   1516154   1517662  
  9160.000000   1519366   1521190   1522911   1524246   1524938  
  9150.000000   1524837   1523958   1522430   1520473   1518264  
  9140.000000   1515921   1513448   1510795   1507876   1504656  
  9130.000000   1501191   1497666   1494367   1491628   1489790  
  9120.000000   1489126   1489792   1491761   1494838   1498680  
  9110.000000   1502868   1506954   1510565   1513446   1515511  
  9100.000000   1516814   1517514   1517812   1517859   1517724  
  9090.000000   1517344   1516579   1515239   1513154   1510242  
  9080.000000   1506519   1502155   1497404   1492614   1488141  
  9070.000000   1484344   1481525   1479877   1479435   1480059  
  9060.000000   1481424   1483077   1484506   1485293   1485258  
  9050.000000   1484528   1483549   1482910   1483198   1484700  
  9040.000000   1487314   1490466   1493307   1494963   1494863  
  9030.000000   1492940   1489665   1485925   1482726   1480870  
  9020.000000   1480700   1482035   1484290   1486682   1488477  
  9010.000000   1489204   1488752   1487334   1485354   1483303  
  9000.000000   1481643   1480730   1480748   1481697   1483403  
  8990.000000   1485536   1487652   1489322   1490253   1490383  
  8980.000000   1489899   1489155   1488552   1488330   1488467  
  8970.000000   1488665   1488495   1487591   1485827   1483461  
  8960.000000   1481059   1479338   1478862   1479883   1482220  
  8950.000000   1485316   1488397   1490699   1491731   1491309  
  8940.000000   1489605   1487004   1484055   1481271   1479067  
  8930.000000   1477689   1477229   1477649   1478782   1480438  
  8920.000000   1482411   1484587   1486898   1489358   1491982  
  8910.000000   1494714   1497383   1499659   1501182   1501603  
  8900.000000   1500763   1498734   1495855   1492664   1489732  
  8890.000000   1487571   1486466   1486520   1487590   1489420  
  8880.000000   1491628   1493835   1495679   1496856   1497160  
  8870.000000   1496477   1494882   1492542   1489758   1486812  
  8860.000000   1483988   1481468   1479380   1477821   1476895  
  8850.000000   1476775   1477624   1479579   1482599   1486468  
  8840.000000   1490762   1494948   1498505   1501050   1502454  
  8830.000000   1502793   1502325   1501348   1500147   1498906  
  8820.000000   1497715   1496596   1495560   1494628   1493836  
  8810.000000   1493204   1492749   1492441   1492233   1492054  
  8800.000000   1491841   1491545   1491155   1490720   1490383  
  8790.000000   1490399   1491101   1492856   1495937   1500427  
  8780.000000   1506087   1512366   1518475   1523579   1527031  
  8770.000000   1528516   1528158   1526416   1523975   1521459  
  8760.000000   1519303   1517635   1516350   1515235   1514094  
  8750.000000   1512890   1511712   1510814   1510428   1510768  
  8740.000000   1511878   1513703   1516070   1518750   1521503  
  8730.000000   1524052   1526163   1527601   1528227   1527977  
  8720.000000   1526932   1525288   1523361   1521505   1520066  
  8710.000000   1519301   1519338   1520177   1521667   1523575  
  8700.000000   1525579   1527385   1528754   1529592   1529960  
  8690.000000   1530046   1530130   1530441   1531122   1532089  
  8680.000000   1533123   1533879   1534087   1533622   1532599  
  8670.000000   1531349   1530310   1529928   1530497   1532141  
  8660.000000   1534781   1538210   1542156   1546313   1550391  
  8650.000000   1554058   1556992   1558853   1559428   1558670  
  8640.000000   1556825   1554372   1551976   1550326   1549969  
  8630.000000   1551184   1553885   1557722   1562161   1566674  
  8620.000000   1570809   1574273   1576934   1578788   1579928  
  8610.000000   1580486   1580648   1580604   1580570   1580733  
  8600.000000   1581241   1582165   1583479   1585099   1586869  
  8590.000000   1588661   1590345   1591858   1593150   1594205  
  8580.000000   1595029   1595635   1596057   1596322   1596478  
  8570.000000   1596558   1596592   1596598   1596594   1596616  
  8560.000000   1596714   1596969   1597459   1598252   1599355  
  8550.000000   1600732   1602296   1603937   1605546   1607028  
  8540.000000   1608316   1609360   1610125   1610591   1610780  
  8530.000000   1610759   1610660   1610639   1610850   1611377  
  8520.000000   1612208   1613217   1614219   1615032   1615556  
  8510.000000   1615816   1615954   1616184   1616709   1617664  
  8500.000000   1619072   1620859   1622893   1625038   1627180  
  8490.000000   1629240   1631157   1632867   1634304   1635407  
  8480.000000   1636159   1636601   1636844   1637031   1637300  
  8470.000000   1637733   1638330   1639028   1639727   1640358  
  8460.000000   1640901   1641408   1641964   1642655   1643534  
  8450.000000   1644596   1645795   1647050   1648290   1649457  
  8440.000000   1650521   1651475   1652329   1653122   1653911  
  8430.000000   1654787   1655837   1657139   1658719   1660519  
  8420.000000   1662386   1664106   1665454   1666258   1666429  
  8410.000000   1666009   1665148   1664088   1663078   1662358  
  8400.000000   1662095   1662385   1663210   1664454   1665904  
  8390.000000   1667297   1668355   1668858   1668690   1667886  
  8380.000000   1666626   1665186   1663853   1662855   1662306  
  8370.000000   1662196   1662411   1662796   1663207   1663553  
  8360.000000   1663783   1663873   1663788   1663487   1662928  
  8350.000000   1662094   1661029   1659827   1658640   1657607  
  8340.000000   1656831   1656327   1656038   1655860   1655682  
  8330.000000   1655447   1655152   1654869   1654692   1654716  
  8320.000000   1654983   1655482   1656143   1656857   1657503  
  8310.000000   1657961   1658142   1657986   1657479   1656639  
  8300.000000   1655521   1654200   1652761   1651299   1649893  
  8290.000000   1648629   1647573   1646799   1646355   1646277  
  8280.000000   1646536   1647049   1647655   1648163   1648377  
  8270.000000   1648155   1647446   1646300   1644867   1643338  
  8260.000000   1641898   1640671   1639697   1638940   1638305  
  8250.000000   1637684   1636983   1636162   1635228   1634240  
  8240.000000   1633275   1632406   1631683   1631118   1630674  
  8230.000000   1630280   1629842   1629285   1628576   1627755  
  8220.000000   1626914   1626180   1625661   1625401   1625343  
  8210.000000   1625321   1625092   1624413   1623119   1621189  
  8200.000000   1618764   1616114   1613563   1611405   1609804  
  8190.000000   1608762   1608108   1607578   1606893   1605871  
  8180.000000   1604466   1602791   1601056   1599499   1598292  
  8170.000000   1597477   1596950   1596487   1595832   1594783  
  8160.000000   1593271   1591382   1589321   1587344   1585672  
  8150.000000   1584417   1583563   1582960   1582400   1581665  
  8140.000000   1580605   1579161   1577379   1575383   1573350  
  8130.000000   1571473   1569931   1568862   1568328   1568304  
  8120.000000   1568660   1569191   1569647   1569808   1569541  
  8110.000000   1568830   1567776   1566535   1565261   1564023  
  8100.000000   1562805   1561499   1559998   1558239   1556279  
  8090.000000   1554277   1552457   1551015   1550038   1549494  
  8080.000000   1549230   1549073   1548892   1548664   1548474  
  8070.000000   1548458   1548739   1549335   1550147   1550948  
  8060.000000   1551473   1551472   1550807   1549469   1547597  
  8050.000000   1545436   1543279   1541423   1540088   1539412  
  8040.000000   1539392   1539919   1540766   1541663   1542332  
  8030.000000   1542560   1542231   1541343   1539991   1538314  
  8020.000000   1536470   1534583   1532760   1531077   1529607  
  8010.000000   1528422   1527565   1527048   1526812   1526750  
  8000.000000   1526720   1526603   1526334   1525920   1525427  
  7990.000000   1524921   1524439   1523939   1523338   1522535  
  7980.000000   1521496   1520275   1519032   1517964   1517238  
  7970.000000   1516914   1516917   1517066   1517148   1517006  
  7960.000000   1516607   1516045   1515504   1515172   1515170  
  7950.000000   1515506   1516077   1516711   1517239   1517532  
  7940.000000   1517548   1517302   1516862   1516292   1515655  
  7930.000000   1514984   1514301   1513616   1512943   1512296  
  7920.000000   1511699   1511195   1510836   1510708   1510886  
  7910.000000   1511436   1512356   1513571   1514923   1516197  
  7900.000000   1517188   1517739   1517805   1517433   1516759  
  7890.000000   1515937   1515106   1514346   1513692   1513144  
  7880.000000   1512705   1512399   1512270   1512361   1512680  
  7870.000000   1513195   1513819   1514458   1515024   1515490  
  7860.000000   1515880   1516262   1516711   1517261   1517892  
  7850.000000   1518508   1518976   1519151   1518937   1518309  
  7840.000000   1517338   1516175   1515017   1514070   1513482  
  7830.000000   1513332   1513587   1514139   1514820   1515462  
  7820.000000   1515935   1516182   1516213   1516093   1515901  
  7810.000000   1515694   1515491   1515273   1515006   1514671  
  7800.000000   1514284   1513891   1513552   1513309   1513163  
  7790.000000   1513069   1512947   1512716   1512327   1511780  
  7780.000000   1511127   1510450   1509827   1509317   1508936  
  7770.000000   1508676   1508512   1508426   1508415   1508486  
  7760.000000   1508642   1508863   1509098   1509265   1509266  
  7750.000000   1509020   1508481   1507663   1506641   1505539  
  7740.000000   1504500   1503655   1503085   1502806   1502758  
  7730.000000   1502828   1502878   1502793   1502504   1502010  
  7720.000000   1501371   1500680   1500035   1499502   1499109  
  7710.000000   1498834   1498638   1498465   1498276   1498045  
  7700.000000   1497763   1497437   1497082   1496735   1496444  
  7690.000000   1496277   1496300   1496560   1497057   1497726  
  7680.000000   1498448   1499066   1499436   1499462   1499124  
  7670.000000   1498480   1497646   1496759   1495946   1495302  
  7660.000000   1494877   1494687   1494716   1494925   1495250  
  7650.000000   1495609   1495901   1496030   1495926   1495560  
  7640.000000   1494970   1494237   1493479   1492809   1492311  
  7630.000000   1492026   1491956   1492079   1492371   1492818  
  7620.000000   1493404   1494109   1494889   1495670   1496365  
  7610.000000   1496886   1497178   1497223   1497059   1496747  
  7600.000000   1496371   1496007   1495719   1495555   1495550  
  7590.000000   1495727   1496086   1496600   1497203   1497804  
  7580.000000   1498301   1498609   1498693   1498573   1498330  
  7570.000000   1498071   1497902   1497884   1498025   1498279  
  7560.000000   1498578   1498854   1499081   1499264   1499447  
  7550.000000   1499674   1499978   1500357   1500780   1501206  
  7540.000000   1501607   1501990   1502404   1502928   1503647  
  7530.000000   1504615   1505832   1507227   1508682   1510051  
  7520.000000   1511210   1512079   1512655   1513000   1513231  
  7510.000000   1513469   1513820   1514338   1515032   1515868  
  7500.000000   1516793   1517757   1518728   1519694   1520660  
  7490.000000   1521632   1522614   1523593   1524554   1525470  
  7480.000000   1526329   1527120   1527858   1528571   1529304  
  7470.000000   1530120   1531084   1532254   1533668   1535324  
  7460.000000   1537185   1539165   1541161   1543053   1544756  
  7450.000000   1546212   1547423   1548425   1549303   1550157  
  7440.000000   1551106   1552253   1553685   1555446   1557541  
  7430.000000   1559918   1562482   1565105   1567666   1570070  
  7420.000000   1572279   1574304   1576197   1578015   1579804  
  7410.000000   1581570   1583301   1584975   1586597   1588210  
  7400.000000   1589883   1591698   1593702   1595895   1598212  
  7390.000000   1600557   1602826   1604952   1606917   1608750  
  7380.000000   1610502   1612220   1613921   1615600   1617244  
  7370.000000   1618858   1620478   1622168   1623986   1625960  
  7360.000000   1628057   1630191   1632244   1634114   1635753  
  7350.000000   1637192   1638531   1639897   1641398   1643082  
  7340.000000   1644918   1646822   1648691   1650446   1652064  
  7330.000000   1653574   1655034   1656502   1658004   1659526  
  7320.000000   1661021   1662437   1663744   1664955   1666128  
  7310.000000   1667349   1668699   1670224   1671913   1673705  
  7300.000000   1675503   1677213   1678774   1680170   1681440  
  7290.000000   1682645   1683849   1685087   1686357   1687634  
  7280.000000   1688888   1690116   1691349   1692652   1694092  
  7270.000000   1695709   1697484   1699332   1701121   1702712  
  7260.000000   1704012   1704993   1705718   1706298   1706876  
  7250.000000   1707567   1708447   1709535   1710824   1712283  
  7240.000000   1713901   1715666   1717580   1719615   1721729  
  7230.000000   1723844   1725891   1727810   1729607   1731322  
  7220.000000   1733063   1734936   1737055   1739478   1742226  
  7210.000000   1745256   1748500   1751855   1755232   1758546  
  7200.000000   1761760   1764863   1767887   1770881   1773911  
  7190.000000   1777027   1780263   1783613   1787053   1790529  
  7180.000000   1793999   1797420   1800784   1804085   1807333  
  7170.000000   1810521   1813653   1816719   1819739   1822744  
  7160.000000   1825807   1828999   1832403   1836060   1839986  
  7150.000000   1844147   1848493   1852949   1857459   1861971  
  7140.000000   1866474   1870965   1875480   1880045   1884719  
  7130.000000   1889530   1894521   1899687   1905013   1910433  
  7120.000000   1915885   1921290   1926626   1931893   1937162  
  7110.000000   1942503   1948001   1953685   1959551   1965538  
  7100.000000   1971589   1977644   1983696   1989763   1995898  
  7090.000000   2002136   2008494   2014942   2021432   2027905  
  7080.000000   2034328   2040690   2047017   2053334   2059666  
  7070.000000   2066006   2072331   2078596   2084769   2090825  
  7060.000000   2096769   2102617   2108402   2114159   2119926  
  7050.000000   2125747   2131661   2137702   2143887   2150206  
  7040.000000   2156620   2163068   2169482   2175807   2182008  
  7030.000000   2188076   2194021   2199864   2205627   2211333  
  7020.000000   2217009   2222693   2228421   2234230   2240120  
  7010.000000   2246065   2251985   2257796   2263408   2268779  
  7000.000000   2273911   2278861   2283698   2288488   2293245  
  6990.000000   2297953   2302558   2307025   2311340   2315550  
  6980.000000   2319720   2323939   2328250   2332668   2337140  
  6970.000000   2341597   2345946   2350130   2354103   2357864  
  6960.000000   2361419   2364799   2368023   2371131   2374141  
  6950.000000   2377084   2379959   2382760   2385445   2387980  
  6940.000000   2390325   2392486   2394494   2396427   2398358  
  6930.000000   2400355   2402440   2404602   2406791   2408966  
  6920.000000   2411091   2413170   2415222   2417276   2419340  
  6910.000000   2421405   2423436   2425395   2427252   2429001  
  6900.000000   2430643   2432191   2433643   2434996   2436237  
  6890.000000   2437374   2438433   2439474   2440559   2441747  
  6880.000000   2443056   2444470   2445930   2447371   2448732  
  6870.000000   2449983   2451122   2452171   2453157   2454102  
  6860.000000   2455020   2455923   2456827   2457760   2458749  
  6850.000000   2459820   2460974   2462192   2463430   2464635  
  6840.000000   2465759   2466771   2467655   2468418   2469074  
  6830.000000   2469646   2470164   2470663   2471181   2471754  
  6820.000000   2472396   2473106   2473849   2474585   2475266  
  6810.000000   2475876   2476416   2476915   2477403   2477901  
  6800.000000   2478395   2478849   2479216   2479464   2479587  
  6790.000000   2479616   2479598   2479584   2479598   2479647  
  6780.000000   2479711   2479782   2479861   2479977   2480165  
  6770.000000   2480452   2480831   2481261   2481672   2481990  
  6760.000000   2482165   2482180   2482056   2481829   2481542  
  6750.000000   2481220   2480879   2480535   2480213   2479961  
  6740.000000   2479834   2479885   2480137   2480571   2481129  
  6730.000000   2481722   2482264   2482684   2482953   2483073  
  6720.000000   2483082   2483028   2482974   2482976   2483085  
  6710.000000   2483339   2483752   2484310   2484964   2485640  
  6700.000000   2486249   2486717   2486993   2487069   2486971  
  6690.000000   2486754   2486473   2486184   2485919   2485705  
  6680.000000   2485543   2485438   2485372   2485325   2485252  
  6670.000000   2485110   2484846   2484428   2483839   2483098  
  6660.000000   2482238   2481306   2480342   2479379   2478429  
  6650.000000   2477501   2476590   2475700   2474821   2473953  
  6640.000000   2473079   2472197   2471298   2470397   2469512  
  6630.000000   2468673   2467897   2467186   2466514   2465835  
  6620.000000   2465096   2464257   2463299   2462232   2461082  
  6610.000000   2459880   2458641   2457371   2456057   2454693  
  6600.000000   2453279   2451835   2450384   2448955   2447556  
  6590.000000   2446189   2444835   2443484   2442129   2440779  
  6580.000000   2439448   2438150   2436882   2435629   2434367  
  6570.000000   2433076   2431748   2430396   2429046   2427727  
  6560.000000   2426455   2425226   2424018   2422792   2421516  
  6550.000000   2420162   2418720   2417195   2415607   2413984  
  6540.000000   2412367   2410803   2409340   2408020   2406866  
  6530.000000   2405877   2405018   2404237   2403469   2402658  
  6520.000000   2401766   2400780   2399710   2398574   2397399  
  6510.000000   2396203   2395006   2393824   2392668   2391545  
  6500.000000   2390452   2389371   2388276   2387142   2385952  
  6490.000000   2384722   2383485   2382299   2381219   2380284  
  6480.000000   2379500   2378838   2378243   2377646   2376978  
  6470.000000   2376183   2375221   2374071   2372735   2371242  
  6460.000000   2369648   2368038   2366510   2365158   2364042  
  6450.000000   2363172   2362499   2361929   2361350   2360665  
  6440.000000   2359818   2358805   2357674   2356494   2355347  
  6430.000000   2354294   2353375   2352598   2351957   2351425  
  6420.000000   2350978   2350589   2350245   2349941   2349694  
  6410.000000   2349525   2349461   2349509   2349653   2349845  
  6400.000000   2350021   2350115   2350091   2349953   2349750  
  6390.000000   2349554   2349434   2349425   2349517   2349659  
  6380.000000   2349781   2349820   2349746   2349569   2349323  
  6370.000000   2349053   2348785   2348522   2348245   2347927  
  6360.000000   2347549   2347114   2346643   2346172   2345732  
  6350.000000   2345354   2345045   2344810   2344638   2344513  
  6340.000000   2344403   2344273   2344076   2343778   2343355  
  6330.000000   2342812   2342174   2341480   2340759   2340028  
  6320.000000   2339272   2338471   2337605   2336681   2335731  
  6310.000000   2334813   2333971   2333232   2332571   2331932  
  6300.000000   2331237   2330431   2329491   2328446   2327348  
  6290.000000   2326263   2325224   2324236   2323264   2322263  
  6280.000000   2321189   2320027   2318778   2317468   2316118  
  6270.000000   2314744   2313346   2311922   2310465   2308980  
  6260.000000   2307476   2305968   2304466   2302979   2301509  
  6250.000000   2300067   2298662   2297312   2296028   2294809  
  6240.000000   2293633   2292471   2291290   2290071   2288816  
  6230.000000   2287549   2286296   2285077   2283887   2282701  
  6220.000000   2281482   2280196   2278832   2277401   2275931  
  6210.000000   2274454   2272990   2271544   2270108   2268676  
  6200.000000   2267252   2265858   2264523   2263268   2262096  
  6190.000000   2260987   2259903   2258808   2257681   2256523  
  6180.000000   2255354   2254201   2253081   2251997   2250936  
  6170.000000   2249885   2248842   2247818   2246843   2245942  
  6160.000000   2245127   2244384   2243677   2242957   2242184  
  6150.000000   2241337   2240422   2239461   2238485   2237512  
  6140.000000   2236546   2235574   2234584   2233567   2232531  
  6130.000000   2231498   2230500   2229565   2228712   2227944  
  6120.000000   2227249   2226603   2225983   2225368   2224749  
  6110.000000   2224128   2223522   2222951   2222443   2222010  
  6100.000000   2221659   2221373   2221130   2220897   2220659  
  6090.000000   2220406   2220154   2219920   2219732   2219597  
  6080.000000   2219519   2219483   2219480   2219501   2219563  
  6070.000000   2219679   2219881   2220177   2220575   2221055  
  6060.000000   2221601   2222185   2222804   2223453   2224151  
  6050.000000   2224905   2225735   2226643   2227646   2228746  
  6040.000000   2229966   2231312   2232798   2234408   2236131  
  6030.000000   2237930   2239790   2241696   2243665   2245716  
  6020.000000   2247876   2250145   2252510   2254925   2257346  
  6010.000000   2259726   2262056   2264337   2266604   2268877  
  6000.000000   2271178   2273496   2275822   2278134   2280443  
  5990.000000   2282769   2285167   2287686   2290372   2293238  
  5980.000000   2296279   2299462   2302759   2306140   2309599  
  5970.000000   2313126   2316728   2320389   2324097   2327821  
  5960.000000   2331548   2335262   2338980   2342714   2346501  
  5950.000000   2350359   2354309   2358352   2362490   2366712  
  5940.000000   2371014   2375393   2379846   2384370   2388959  
  5930.000000   2393603   2398283   2402976   2407644   2412241  
  5920.000000   2416714   2421012   2425096   2428946   2432568  
  5910.000000   2435989   2439245   2442379   2445416   2448387  
  5900.000000   2451301   2454193   2457085   2460032   2463066  
  5890.000000   2466229   2469510   2472891   2476305   2479687  
  5880.000000   2482956   2486054   2488928   2491551   2493907  
  5870.000000   2495999   2497846   2499490   2500991   2502423  
  5860.000000   2503855   2505343   2506907   2508550   2510251  
  5850.000000   2511997   2513782   2515627   2517552   2519578  
  5840.000000   2521699   2523881   2526068   2528198   2530233  
  5830.000000   2532156   2533993   2535783   2537574   2539392  
  5820.000000   2541251   2543136   2545036   2546936   2548833  
  5810.000000   2550735   2552649   2554585   2556536   2558515  
  5800.000000   2560515   2562570   2564692   2566923   2569256  
  5790.000000   2571689   2574148   2576560   2578787   2580706  
  5780.000000   2582166   2583052   2583260   2582752   2581533  
  5770.000000   2579696   2577374   2574763   2572044   2569396  
  5760.000000   2566923   2564689   2562676   2560863   2559190  
  5750.000000   2557635   2556171   2554798   2553505   2552284  
  5740.000000   2551115   2549975   2548855   2547748   2546663  
  5730.000000   2545603   2544570   2543547   2542518   2541462  
  5720.000000   2540376   2539266   2538157   2537067   2536012  
  5710.000000   2534987   2533979   2532972   2531964   2530963  
  5700.000000   2529991   2529071   2528211   2527412   2526653  
  5690.000000   2525922   2525209   2524529   2523892   2523320  
  5680.000000   2522804   2522322   2521813   2521217   2520462  
  5670.000000   2519497   2518278   2516787   2515006   2512936  
  5660.000000   2510586   2507996   2505227   2502372   2499523  
  5650.000000   2496774   2494174   2491747   2489470   2487312  
  5640.000000   2485236   2483225   2481274   2479391   2477579  
  5630.000000   2475829   2474125   2472442   2470774   2469120  
  5620.000000   2467508   2465960   2464502   2463134   2461849  
  5610.000000   2460621   2459432   2458267   2457128   2456020  
  5600.000000   2454954   2453928   2452942   2451988   2451069  
  5590.000000   2450189   2449357   2448577   2447840   2447123  
  5580.000000   2446394   2445629   2444814   2443958   2443081  
  5570.000000   2442206   2441337   2440459   2439540   2438540  
  5560.000000   2437434   2436219   2434919   2433578   2432240  
  5550.000000   2430941   2429698   2428517   2427392   2426320  
  5540.000000   2425297   2424320   2423376   2422447   2421505  
  5530.000000   2420527   2419501   2418433   2417344   2416258  
  5520.000000   2415196   2414160   2413137   2412107   2411049  
  5510.000000   2409953   2408820   2407662   2406486   2405300  
  5500.000000   2404099   2402885   2401656   2400424   2399199  
  5490.000000   2397992   2396792   2395582   2394328   2393004  
  5480.000000   2391594   2390108   2388572   2387023   2385487  
  5470.000000   2383979   2382487   2380992   2379466   2377897  
  5460.000000   2376275   2374604   2372884   2371116   2369296  
  5450.000000   2367427   2365516   2363586   2361665   2359780  
  5440.000000   2357951   2356184   2354481   2352838   2351264  
  5430.000000   2349766   2348353   2347015   2345732   2344462  
  5420.000000   2343175   2341845   2340496   2339167   2337930  
  5410.000000   2336836   2335919   2335158   2334520   2333945  
  5400.000000   2333413   2332911   2332479   2332148   2331964  
  5390.000000   2331932   2332057   2332308   2332685   2333178  
  5380.000000   2333823   2334633   2335641   2336828   2338188  
  5370.000000   2339666   2341254   2342915   2344678   2346535  
  5360.000000   2348537   2350674   2352990   2355474   2358184  
  5350.000000   2361130   2364395   2367995   2372003   2376394  
  5340.000000   2381206   2386383   2391962   2397898   2404249  
  5330.000000   2410970   2418112   2425610   2433502   2441730  
  5320.000000   2450376   2459432   2469036   2479203   2490072  
  5310.000000   2501612   2513903   2526860   2540528   2554827  
  5300.000000   2569830   2585504   2601971   2619234   2637423  
  5290.000000   2656520   2676592   2697530   2719294   2741693  
  5280.000000   2764650   2788017   2811818   2836044   2860829  
  5270.000000   2886217   2912279   2938928   2966041   2993405  
  5260.000000   3020842   3048231   3075547   3102845   3130177  
  5250.000000   3157573   3184935   3212120   3238870   3265016  
  5240.000000   3290375   3314963   3338779   3361987   3384634  
  5230.000000   3406843   3428550   3449754   3470289   3490122  
  5220.000000   3509126   3527366   3544828   3561672   3577927  
  5210.000000   3593736   3609049   3623897   3638124   3651701  
  5200.000000   3664478   3676502   3687724   3698282   3708174  
  5190.000000   3717525   3726285   3734510   3742109   3749129  
  5180.000000   3755505   3761323   3766546   3771254   3775378  
  5170.000000   3778959   3781913   3784287   3786045   3787283  
  5160.000000   3788004   3788307   3788167   3787636   3786655  
  5150.000000   3785262   3783419   3781196   3778591   3775681  
  5140.000000   3772455   3768962   3765178   3761146   3756860  
  5130.000000   3752384   3747732   3742961   3738070   3733085  
  5120.000000   3727983   3722780   3717465   3712067   3706594  
  5110.000000   3701074   3695504   3689893   3684230   3678524  
  5100.000000   3672784   3667041   3661322   3655658   3650065  
  5090.000000   3644553   3639115   3633751   3628450   3623210  
  5080.000000   3618016   3612857   3607702   3602524   3597288  
  5070.000000   3591978   3586582   3581110   3575572   3569982  
  5060.000000   3564341   3558650   3552892   3547064   3541156  
  5050.000000   3535180   3529142   3523063   3516954   3510829  
  5040.000000   3504692   3498548   3492394   3486227   3480038  
  5030.000000   3473818   3467556   3461248   3454901   3448534  
  5020.000000   3442185   3435892   3429703   3423644   3417738  
  5010.000000   3411978   3406364   3400874   3395511   3390263  
  5000.000000   3385151   3380174   3375361   3370706   3366238  
  4990.000000   3361944   3357856   3353961   3350295   3346840  
  4980.000000   3343626   3340627   3337868   3335323   3333027  
  4970.000000   3330963   3329181   3327669   3326479   3325591  
  4960.000000   3325050   3324829   3324971   3325446   3326301  
  4950.000000   3327501   3329089   3331024   3333346   3336016  
  4940.000000   3339084   3342523   3346393   3350665   3355387  
  4930.000000   3360512   3366066   3371989   3378307   3384975  
  4920.000000   3392037   3399469   3407323   3415577   3424267  
  4910.000000   3433358   3442861   3452730   3462953   3473474  
  4900.000000   3484258   3495241   3506368   3517578   3528812  
  4890.000000   3540026   3551166   3562199   3573058   3583708  
  4880.000000   3594065   3604094   3613705   3622877   3631518  
  4870.000000   3639617   3647081   3653904   3660002   3665399  
  4860.000000   3670047   3674014   3677295   3679986   3682099  
  4850.000000   3683728   3684881   3685642   3686020   3686096  
  4840.000000   3685885   3685465   3684853   3684117   3683278  
  4830.000000   3682397   3681499   3680637   3679836   3679126  
  4820.000000   3678516   3678013   3677619   3677337   3677182  
  4810.000000   3677166   3677313   3677627   3678117   3678763  
  4800.000000   3679552   3680452   3681456   3682547   3683737  
  4790.000000   3685024   3686425   3687930   3689539   3691229  
  4780.000000   3692985   3694783   3696610   3698445   3700279  
  4770.000000   3702096   3703886   3705640   3707361   3709052  
  4760.000000   3710726   3712396   3714071   3715758   3717451  
  4750.000000   3719143   3720819   3722466   3724071   3725625  
  4740.000000   3727122   3728565   3729957   3731310   3732636  
  4730.000000   3733944   3735238   3736514   3737764   3738974  
  4720.000000   3740141   3741267   3742375   3743489   3744650  
  4710.000000   3745881   3747214   3748652   3750214   3751899  
  4700.000000   3753731   3755721   3757906   3760302   3762939  
  4690.000000   3765817   3768943   3772299   3775876   3779639  
  4680.000000   3783560   3787575   3791630   3795640   3799547  
  4670.000000   3803286   3806846   3810232   3813502   3816715  
  4660.000000   3819954   3823275   3826733   3830349   3834140  
  4650.000000   3838106   3842246   3846559   3851036   3855666  
  4640.000000   3860428   3865299   3870242   3875231   3880221  
  4630.000000   3885176   3890042   3894775   3899309   3903603  
  4620.000000   3907599   3911273   3914589   3917547   3920128  
  4610.000000   3922352   3924214   3925758   3927000   3928012  
  4600.000000   3928822   3929508   3930083   3930599   3931033  
  4590.000000   3931399   3931644   3931762   3931692   3931421  
  4580.000000   3930898   3930118   3929050   3927711   3926100  
  4570.000000   3924263   3922220   3920024   3917689   3915248  
  4560.000000   3912696   3910046   3907289   3904445   3901522  
  4550.000000   3898558   3895573   3892602   3889660   3886766  
  4540.000000   3883922   3881132   3878393   3875700   3873043  
  4530.000000   3870403   3867761   3865087   3862368   3859584  
  4520.000000   3856754   3853883   3851029   3848215   3845516  
  4510.000000   3842955   3840608   3838488   3836674   3835174  
  4500.000000   3834075   3833379   3833175   3833453   3834298  
  4490.000000   3835691   3837718   3840356   3843696   3847711  
  4480.000000   3852486   3857980   3864260   3871261   3879030  
  4470.000000   3887483   3896647   3906428   3916846   3927811  
  4460.000000   3939348   3951384   3963949   3976977   3990485  
  4450.000000   4004397   4018699   4033307   4048193   4063288  
  4440.000000   4078567   4093983   4109511   4125109   4140729  
  4430.000000   4156329   4171838   4187220   4202398   4217348  
  4420.000000   4231991   4246308   4260208   4273668   4286589  
  4410.000000   4298947   4310644   4321668   4331937   4341469  
  4400.000000   4350223   4358272   4365634   4372435   4378736  
  4390.000000   4384687   4390350   4395851   4401217   4406525  
  4380.000000   4411761   4416953   4422061   4427092   4432005  
  4370.000000   4436809   4441490   4446073   4450568   4455014  
  4360.000000   4459430   4463861   4468314   4472836   4477405  
  4350.000000   4482065   4486755   4491518   4496276   4501082  
  4340.000000   4505869   4510671   4515367   4519842   4523770  
  4330.000000   4526768   4528295   4527854   4525015   4519614  
  4320.000000   4511773   4501969   4490911   4479456   4468393  
  4310.000000   4458368   4449735   4442614   4436882   4432325  
  4300.000000   4428683   4425752   4423404   4421564   4420231  
  4290.000000   4419374   4419009   4419082   4419594   4420481  
  4280.000000   4421735   4423297   4425131   4427178   4429377  
  4270.000000   4431682   4434031   4436373   4438596   4440549  
  4260.000000   4441986   4442623   4442145   4440311   4436986  
  4250.000000   4432233   4426265   4419469   4412270   4405121  
  4240.000000   4398352   4392211   4386764   4381996   4377779  
  4230.000000   4373971   4370409   4366960   4363528   4360049  
  4220.000000   4356524   4352968   4349474   4346110   4343011  
  4210.000000   4340248   4337922   4336049   4334664   4333727  
  4200.000000   4333223   4333088   4333295   4333774   4334495  
  4190.000000   4335382   4336406   4337493   4338631   4339763  
  4180.000000   4340907   4342033   4343183   4344353   4345614  
  4170.000000   4346991   4348580   4350430   4352642   4355249  
  4160.000000   4358317   4361835   4365826   4370240   4375086  
  4150.000000   4380314   4385947   4391943   4398337   4405086  
  4140.000000   4412228   4419716   4427591   4435807   4444409  
  4130.000000   4453346   4462661   4472306   4482331   4492712  
  4120.000000   4503524   4514781   4526579   4538940   4551943  
  4110.000000   4565578   4579869   4594755   4610202   4626107  
  4100.000000   4642400   4658966   4675733   4692611   4709560  
  4090.000000   4726538   4743535   4760545   4777556   4794568  
  4080.000000   4811550   4828503   4845383   4862193   4878870  
  4070.000000   4895398   4911671   4927640   4943165   4958199  
  4060.000000   4972621   4986431   4999556   5012049   5023867  
  4050.000000   5035098   5045720   5055841   5065441   5074616  
  4040.000000   5083302   5091541   5099211   5106318   5112740  
  4030.000000   5118516   5123579   5128014   5131792   5134992  
  4020.000000   5137559   5139564   5141002   5141951   5142370  
  4010.000000   5142369   5142000   5141251   5139895   5137958  
  4000.000000   5135723  
##END= 
