##TITLE= Sample 027 By ssteindl date Dienstag, November 20 2018
##JCAMP-DX= 4.24
##DATA TYPE= INFRARED SPECTRUM
##ORIGIN= Exported PE Spectrum Data File
##OWNER= Sandra Steindl
##DATE= 18/11/20
##TIME= 17:21:18.00
##SPECTROMETER/DATA SYSTEM= PERKIN-ELMER Frontier FT-IR/NIR IR
##INSTRUMENT PARAMETERS=
  APODIZATION=stark
  DETECTOR=INGAAS
##RESOLUTION= 16.000000
##DELTAX= -2.000000
##XUNITS= 1/CM
##YUNITS= A
##XFACTOR= 1.00
##YFACTOR= 0.00000011920928955078
##FIRSTX= 10000.00
##LASTX= 4000.00
##NPOINTS= 3001
##FIRSTY= 0.249940
##MAXY= 0.640422
##MINY= 0.200335
##XYDATA= (X++(Y..Y))
 10000.000000   2096650   2092219   2088284   2085407   2083536  
  9990.000000   2081985   2080059   2077177   2072995   2067454  
  9980.000000   2061023   2054501   2048798   2044652   2042552  
  9970.000000   2042615   2044601   2047962   2051980   2055882  
  9960.000000   2059024   2061008   2061772   2061568   2060860  
  9950.000000   2060138   2059765   2059815   2060139   2060389  
  9940.000000   2060264   2059564   2058307   2056633   2054689  
  9930.000000   2052545   2050116   2047321   2044161   2040922  
  9920.000000   2038136   2036510   2036642   2038786   2042637  
  9910.000000   2047371   2051818   2054833   2055614   2053934  
  9900.000000   2050202   2045270   2040226   2035991   2033187  
  9890.000000   2031898   2031813   2032260   2032470   2031781  
  9880.000000   2029792   2026569   2022564   2018672   2015939  
  9870.000000   2015384   2017670   2022883   2030441   2039135  
  9860.000000   2047377   2053535   2056328   2055163   2050324  
  9850.000000   2042912   2034592   2027132   2021966   2019787  
  9840.000000   2020400   2022795   2025480   2026987   2026312  
  9830.000000   2023277   2018476   2013115   2008481   2005596  
  9820.000000   2004849   2006008   2008407   2011239   2013884  
  9810.000000   2016013   2017577   2018632   2019130   2018867  
  9800.000000   2017514   2014839   2010913   2006167   2001369  
  9790.000000   1997312   1994581   1993306   1993088   1993192  
  9780.000000   1992743   1991122   1988144   1984172   1980006  
  9770.000000   1976579   1974704   1974734   1976509   1979310  
  9760.000000   1982122   1983866   1983794   1981711   1978118  
  9750.000000   1974087   1970967   1969980   1971793   1976314  
  9740.000000   1982647   1989422   1995163   1998813   1999933  
  9730.000000   1998829   1996296   1993308   1990671   1988743  
  9720.000000   1987441   1986267   1984573   1981708   1977231  
  9710.000000   1971014   1963319   1954841   1946616   1939897  
  9700.000000   1935835   1935198   1938028   1943571   1950367  
  9690.000000   1956704   1961145   1963046   1962755   1961427  
  9680.000000   1960519   1961128   1963543   1967071   1970394  
  9670.000000   1972058   1971137   1967514   1961934   1955638  
  9660.000000   1949834   1945306   1942153   1939982   1938171  
  9650.000000   1936279   1934231   1932319   1930984   1930572  
  9640.000000   1931109   1932327   1933750   1934928   1935619  
  9630.000000   1935793   1935653   1935403   1935225   1935125  
  9620.000000   1935019   1934758   1934211   1933324   1932126  
  9610.000000   1930747   1929387   1928327   1927868   1928281  
  9600.000000   1929688   1931960   1934678   1937173   1938734  
  9590.000000   1938816   1937269   1934407   1930920   1927674  
  9580.000000   1925396   1924518   1925041   1926673   1928936  
  9570.000000   1931397   1933723   1935706   1937179   1937943  
  9560.000000   1937749   1936338   1933577   1929527   1924548  
  9550.000000   1919191   1914136   1909967   1907083   1905624  
  9540.000000   1905458   1906307   1907759   1909427   1910950  
  9530.000000   1912111   1912881   1913420   1914074   1915178  
  9520.000000   1916936   1919194   1921456   1922975   1923057  
  9510.000000   1921361   1918102   1914080   1910414   1908219  
  9500.000000   1908140   1910174   1913592   1917245   1919912  
  9490.000000   1920736   1919430   1916316   1912110   1907636  
  9480.000000   1903563   1900261   1897812   1896087   1894851  
  9470.000000   1893859   1892863   1891685   1890195   1888424  
  9460.000000   1886537   1884867   1883767   1883500   1884060  
  9450.000000   1885110   1886039   1886128   1884850   1882069  
  9440.000000   1878174   1873918   1870154   1867465   1865934  
  9430.000000   1865141   1864364   1862911   1860426   1857057  
  9420.000000   1853430   1850422   1848794   1848880   1850419  
  9410.000000   1852643   1854595   1855427   1854762   1852690  
  9400.000000   1849791   1846804   1844429   1843027   1842586  
  9390.000000   1842768   1843153   1843459   1843686   1844124  
  9380.000000   1845180   1847255   1850479   1854701   1859416  
  9370.000000   1863968   1867699   1870147   1871140   1870753  
  9360.000000   1869255   1866951   1864109   1860867   1857250  
  9350.000000   1853229   1848812   1844124   1839422   1835062  
  9340.000000   1831435   1828890   1827622   1827623   1828608  
  9330.000000   1830115   1831589   1832623   1833052   1833068  
  9320.000000   1833153   1833958   1836050   1839644   1844417  
  9310.000000   1849497   1853725   1855948   1855431   1852002  
  9300.000000   1846173   1838910   1831397   1824653   1819303  
  9290.000000   1815508   1813047   1811539   1810595   1809997  
  9280.000000   1809707   1809870   1810679   1812272   1814643  
  9270.000000   1817605   1820852   1823944   1826455   1828001  
  9260.000000   1828435   1827878   1826746   1825633   1825132  
  9250.000000   1825653   1827258   1829601   1832025   1833768  
  9240.000000   1834242   1833199   1830749   1827290   1823313  
  9230.000000   1819315   1815669   1812668   1810532   1809496  
  9220.000000   1809756   1811397   1814216   1817682   1820970  
  9210.000000   1823226   1823829   1822603   1819879   1816364  
  9200.000000   1812928   1810216   1808510   1807644   1807269  
  9190.000000   1806975   1806511   1805793   1804879   1803877  
  9180.000000   1802819   1801706   1800542   1799542   1799136  
  9170.000000   1799882   1802199   1806144   1811294   1816782  
  9160.000000   1821537   1824608   1825494   1824258   1821446  
  9150.000000   1817803   1814011   1810482   1807363   1804621  
  9140.000000   1802206   1800182   1798697   1797914   1797790  
  9130.000000   1798106   1798450   1798474   1797996   1797160  
  9120.000000   1796347   1795996   1796370   1797376   1798579  
  9110.000000   1799353   1799149   1797697   1795129   1791873  
  9100.000000   1788503   1785469   1782987   1780971   1779172  
  9090.000000   1777326   1775310   1773187   1771151   1769458  
  9080.000000   1768331   1767927   1768314   1769506   1771475  
  9070.000000   1774088   1777109   1780142   1782755   1784500  
  9060.000000   1785084   1784455   1782866   1780802   1778817  
  9050.000000   1777411   1776891   1777342   1778610   1780426  
  9040.000000   1782464   1784419   1785985   1786893   1786923  
  9030.000000   1785946   1783968   1781160   1777874   1774562  
  9020.000000   1771687   1769587   1768401   1768065   1768335  
  9010.000000   1768934   1769587   1770167   1770639   1771076  
  9000.000000   1771557   1772133   1772797   1773457   1773978  
  8990.000000   1774166   1773862   1772918   1771268   1768934  
  8980.000000   1766070   1762959   1759975   1757526   1755950  
  8970.000000   1755429   1755911   1757138   1758708   1760186  
  8960.000000   1761217   1761610   1761397   1760766   1759998  
  8950.000000   1759346   1758996   1759001   1759318   1759846  
  8940.000000   1760493   1761209   1761962   1762748   1763525  
  8930.000000   1764230   1764749   1764985   1764901   1764522  
  8920.000000   1763939   1763235   1762443   1761488   1760206  
  8910.000000   1758431   1756114   1753404   1750659   1748379  
  8900.000000   1747038   1746920   1747974   1749835   1751937  
  8890.000000   1753714   1754798   1755107   1754861   1754422  
  8880.000000   1754149   1754204   1754555   1754993   1755313  
  8870.000000   1755397   1755289   1755160   1755186   1755494  
  8860.000000   1756048   1756748   1757470   1758186   1758975  
  8850.000000   1759958   1761202   1762572   1763731   1764196  
  8840.000000   1763550   1761592   1758501   1754782   1751161  
  8830.000000   1748348   1746830   1746753   1747910   1749901  
  8820.000000   1752274   1754697   1756984   1759102   1761089  
  8810.000000   1762980   1764753   1766321   1767584   1768446  
  8800.000000   1768884   1768897   1768563   1767968   1767251  
  8790.000000   1766556   1766026   1765764   1765776   1765987  
  8780.000000   1766238   1766392   1766398   1766377   1766583  
  8770.000000   1767349   1768910   1771291   1774224   1777209  
  8760.000000   1779677   1781187   1781610   1781138   1780226  
  8750.000000   1779361   1778897   1778898   1779158   1779322  
  8740.000000   1779072   1778298   1777152   1776009   1775302  
  8730.000000   1775387   1776396   1778234   1780604   1783122  
  8720.000000   1785435   1787277   1788524   1789154   1789251  
  8710.000000   1788954   1788453   1787955   1787657   1787701  
  8700.000000   1788143   1788951   1790006   1791175   1792315  
  8690.000000   1793361   1794292   1795138   1795932   1796660  
  8680.000000   1797283   1797703   1797840   1797606   1796974  
  8670.000000   1795950   1794608   1793086   1791602   1790454  
  8660.000000   1789978   1790483   1792155   1794975   1798680  
  8650.000000   1802796   1806755   1810040   1812347   1813645  
  8640.000000   1814161   1814274   1814380   1814764   1815548  
  8630.000000   1816697   1818101   1819633   1821213   1822782  
  8620.000000   1824263   1825518   1826322   1826454   1825764  
  8610.000000   1824307   1822380   1820490   1819246   1819159  
  8600.000000   1820483   1823117   1826607   1830292   1833458  
  8590.000000   1835587   1836481   1836324   1835608   1834948  
  8580.000000   1834902   1835762   1837485   1839681   1841767  
  8570.000000   1843144   1843421   1842554   1840862   1838944  
  8560.000000   1837460   1836948   1837626   1839364   1841729  
  8550.000000   1844154   1846142   1847405   1847937   1847971  
  8540.000000   1847863   1847949   1848425   1849302   1850439  
  8530.000000   1851630   1852715   1853620   1854386   1855111  
  8520.000000   1855891   1856763   1857669   1858483   1859067  
  8510.000000   1859324   1859276   1859036   1858808   1858793  
  8500.000000   1859142   1859895   1860972   1862219   1863474  
  8490.000000   1864653   1865777   1866981   1868449   1870329  
  8480.000000   1872647   1875269   1877931   1880306   1882123  
  8470.000000   1883243   1883721   1883756   1883618   1883548  
  8460.000000   1883672   1884012   1884485   1885007   1885507  
  8450.000000   1886012   1886576   1887279   1888132   1889081  
  8440.000000   1890009   1890777   1891266   1891391   1891128  
  8430.000000   1890480   1889472   1888148   1886589   1884960  
  8420.000000   1883506   1882535   1882322   1883041   1884664  
  8410.000000   1886963   1889517   1891865   1893617   1894575  
  8400.000000   1894754   1894345   1893634   1892864   1892178  
  8390.000000   1891574   1890970   1890239   1889288   1888083  
  8380.000000   1886662   1885120   1883567   1882126   1880905  
  8370.000000   1880019   1879559   1879589   1880107   1881040  
  8360.000000   1882245   1883531   1884718   1885671   1886347  
  8350.000000   1886772   1887023   1887171   1887273   1887339  
  8340.000000   1887369   1887355   1887318   1887297   1887330  
  8330.000000   1887422   1887522   1887549   1887413   1887082  
  8320.000000   1886596   1886083   1885708   1885624   1885888  
  8310.000000   1886440   1887108   1887666   1887920   1887757  
  8300.000000   1887199   1886364   1885430   1884556   1883833  
  8290.000000   1883268   1882801   1882368   1881927   1881526  
  8280.000000   1881263   1881278   1881656   1882403   1883398  
  8270.000000   1884420   1885188   1885430   1884968   1883763  
  8260.000000   1881938   1879741   1877477   1875448   1873866  
  8250.000000   1872839   1872326   1872195   1872233   1872245  
  8240.000000   1872055   1871579   1870783   1869703   1868399  
  8230.000000   1866938   1865376   1863727   1861990   1860136  
  8220.000000   1858144   1856010   1853756   1851446   1849166  
  8210.000000   1847039   1845178   1843693   1842638   1842013  
  8200.000000   1841751   1841723   1841762   1841681   1841315  
  8190.000000   1840542   1839319   1837685   1835772   1833766  
  8180.000000   1831888   1830329   1829215   1828573   1828323  
  8170.000000   1828300   1828286   1828075   1827512   1826551  
  8160.000000   1825238   1823716   1822160   1820739   1819563  
  8150.000000   1818651   1817939   1817281   1816512   1815469  
  8140.000000   1814057   1812256   1810133   1807833   1805538  
  8130.000000   1803443   1801705   1800428   1799638   1799292  
  8120.000000   1799285   1799473   1799696   1799796   1799647  
  8110.000000   1799157   1798296   1797080   1795583   1793911  
  8100.000000   1792199   1790572   1789141   1787970   1787068  
  8090.000000   1786397   1785874   1785404   1784895   1784286  
  8080.000000   1783551   1782705   1781783   1780829   1779882  
  8070.000000   1778965   1778092   1777272   1776521   1775861  
  8060.000000   1775314   1774882   1774534   1774199   1773774  
  8050.000000   1773157   1772273   1771114   1769747   1768296  
  8040.000000   1766912   1765717   1764763   1764013   1763355  
  8030.000000   1762645   1761761   1760648   1759347   1757973  
  8020.000000   1756685   1755620   1754859   1754389   1754120  
  8010.000000   1753905   1753591   1753065   1752292   1751326  
  8000.000000   1750304   1749410   1748828   1748685   1749008  
  7990.000000   1749702   1750559   1751307   1751681   1751500  
  7980.000000   1750729   1749488   1748023   1746626   1745538  
  7970.000000   1744884   1744630   1744621   1744642   1744510  
  7960.000000   1744128   1743516   1742767   1742003   1741298  
  7950.000000   1740655   1740004   1739253   1738344   1737281  
  7940.000000   1736162   1735117   1734275   1733692   1733335  
  7930.000000   1733084   1732787   1732313   1731613   1730739  
  7920.000000   1729831   1729073   1728635   1728618   1729023  
  7910.000000   1729748   1730619   1731428   1732004   1732232  
  7900.000000   1732104   1731685   1731103   1730488   1729937  
  7890.000000   1729489   1729121   1728787   1728449   1728122  
  7880.000000   1727874   1727821   1728062   1728644   1729513  
  7870.000000   1730518   1731447   1732083   1732284   1732007  
  7860.000000   1731340   1730436   1729487   1728634   1727960  
  7850.000000   1727456   1727064   1726712   1726347   1725971  
  7840.000000   1725625   1725401   1725383   1725653   1726240  
  7830.000000   1727125   1728225   1729401   1730485   1731297  
  7820.000000   1731693   1731589   1730982   1729953   1728634  
  7810.000000   1727189   1725753   1724431   1723269   1722284  
  7800.000000   1721462   1720789   1720240   1719780   1719347  
  7790.000000   1718856   1718213   1717343   1716225   1714906  
  7780.000000   1713508   1712196   1711135   1710453   1710209  
  7770.000000   1710386   1710901   1711631   1712430   1713149  
  7760.000000   1713647   1713804   1713538   1712822   1711708  
  7750.000000   1710314   1708812   1707380   1706157   1705199  
  7740.000000   1704465   1703850   1703218   1702472   1701580  
  7730.000000   1700595   1699618   1698762   1698095   1697622  
  7720.000000   1697279   1696971   1696613   1696160   1695626  
  7710.000000   1695064   1694543   1694105   1693759   1693464  
  7700.000000   1693162   1692790   1692325   1691777   1691201  
  7690.000000   1690671   1690260   1690014   1689939   1690005  
  7680.000000   1690146   1690292   1690379   1690371   1690261  
  7670.000000   1690072   1689835   1689581   1689319   1689033  
  7660.000000   1688690   1688248   1687678   1686981   1686189  
  7650.000000   1685365   1684580   1683901   1683367   1682991  
  7640.000000   1682753   1682614   1682533   1682469   1682397  
  7630.000000   1682296   1682158   1681977   1681752   1681487  
  7620.000000   1681202   1680921   1680688   1680542   1680528  
  7610.000000   1680668   1680960   1681369   1681832   1682265  
  7600.000000   1682589   1682742   1682709   1682517   1682246  
  7590.000000   1681996   1681874   1681944   1682226   1682668  
  7580.000000   1683180   1683653   1683999   1684180   1684221  
  7570.000000   1684202   1684231   1684413   1684818   1685461  
  7560.000000   1686307   1687279   1688291   1689254   1690095  
  7550.000000   1690759   1691212   1691443   1691469   1691334  
  7540.000000   1691121   1690929   1690874   1691040   1691471  
  7530.000000   1692137   1692944   1693762   1694464   1694973  
  7520.000000   1695291   1695507   1695769   1696240   1697043  
  7510.000000   1698217   1699714   1701403   1703130   1704742  
  7500.000000   1706143   1707297   1708236   1709026   1709752  
  7490.000000   1710482   1711276   1712164   1713173   1714298  
  7480.000000   1715528   1716827   1718151   1719454   1720712  
  7470.000000   1721932   1723164   1724480   1725957   1727636  
  7460.000000   1729516   1731534   1733603   1735618   1737520  
  7450.000000   1739283   1740936   1742516   1744069   1745617  
  7440.000000   1747174   1748748   1750371   1752098   1754003  
  7430.000000   1756150   1758564   1761206   1763979   1766753  
  7420.000000   1769402   1771844   1774054   1776055   1777904  
  7410.000000   1779652   1781335   1782963   1784545   1786093  
  7400.000000   1787635   1789207   1790834   1792517   1794227  
  7390.000000   1795926   1797584   1799212   1800857   1802601  
  7380.000000   1804513   1806622   1808892   1811227   1813514  
  7370.000000   1815651   1817593   1819353   1820994   1822588  
  7360.000000   1824195   1825833   1827492   1829150   1830790  
  7350.000000   1832421   1834069   1835765   1837518   1839317  
  7340.000000   1841130   1842931   1844707   1846471   1848250  
  7330.000000   1850061   1851894   1853697   1855398   1856923  
  7320.000000   1858236   1859355   1860355   1861352   1862465  
  7310.000000   1863791   1865370   1867185   1869159   1871188  
  7300.000000   1873154   1874955   1876515   1877800   1878823  
  7290.000000   1879642   1880344   1881031   1881791   1882688  
  7280.000000   1883743   1884942   1886241   1887589   1888929  
  7270.000000   1890213   1891396   1892444   1893332   1894056  
  7260.000000   1894641   1895136   1895621   1896170   1896846  
  7250.000000   1897663   1898608   1899631   1900696   1901787  
  7240.000000   1902940   1904209   1905661   1907320   1909177  
  7230.000000   1911167   1913235   1915333   1917482   1919731  
  7220.000000   1922166   1924831   1927734   1930803   1933950  
  7210.000000   1937061   1940090   1943026   1945932   1948870  
  7200.000000   1951901   1955031   1958241   1961490   1964771  
  7190.000000   1968106   1971567   1975220   1979108   1983204  
  7180.000000   1987422   1991631   1995716   1999595   2003270  
  7170.000000   2006778   2010212   2013641   2017130   2020689  
  7160.000000   2024322   2028008   2031753   2035558   2039458  
  7150.000000   2043480   2047676   2052089   2056784   2061793  
  7140.000000   2067141   2072781   2078632   2084544   2090390  
  7130.000000   2096054   2101528   2106871   2112246   2117815  
  7120.000000   2123732   2130038   2136693   2143551   2150457  
  7110.000000   2157263   2163912   2170403   2176802   2183173  
  7100.000000   2189574   2196017   2202500   2209004   2215536  
  7090.000000   2222107   2228751   2235486   2242316   2249222  
  7080.000000   2256176   2263150   2270135   2277127   2284131  
  7070.000000   2291128   2298087   2304960   2311708   2318314  
  7060.000000   2324809   2331250   2337715   2344267   2350937  
  7050.000000   2357718   2364565   2371428   2378265   2385061  
  7040.000000   2391819   2398560   2405296   2412029   2418741  
  7030.000000   2425406   2431998   2438499   2444897   2451188  
  7020.000000   2457365   2463425   2469351   2475140   2480788  
  7010.000000   2486321   2491763   2497169   2502573   2508019  
  7000.000000   2513504   2519014   2524482   2529842   2535012  
  6990.000000   2539945   2544617   2549061   2553322   2557466  
  6980.000000   2561521   2565494   2569344   2573034   2576530  
  6970.000000   2579869   2583122   2586417   2589851   2593491  
  6960.000000   2597300   2601180   2604966   2608508   2611695  
  6950.000000   2614508   2616991   2619248   2621382   2623483  
  6940.000000   2625594   2627743   2629920   2632127   2634343  
  6930.000000   2636552   2638708   2640764   2642665   2644392  
  6920.000000   2645953   2647402   2648799   2650201   2651614  
  6910.000000   2653007   2654313   2655483   2656505   2657433  
  6900.000000   2658359   2659397   2660614   2662026   2663572  
  6890.000000   2665158   2666686   2668101   2669395   2670600  
  6880.000000   2671752   2672866   2673915   2674841   2675580  
  6870.000000   2676093   2676390   2676535   2676624   2676770  
  6860.000000   2677065   2677584   2678360   2679402   2680680  
  6850.000000   2682135   2683671   2685175   2686522   2687608  
  6840.000000   2688376   2688826   2689018   2689044   2689004  
  6830.000000   2688977   2689008   2689107   2689264   2689467  
  6820.000000   2689703   2689975   2690273   2690590   2690897  
  6810.000000   2691172   2691389   2691544   2691646   2691719  
  6800.000000   2691786   2691864   2691962   2692084   2692229  
  6790.000000   2692406   2692616   2692856   2693105   2693332  
  6780.000000   2693497   2693572   2693542   2693414   2693202  
  6770.000000   2692916   2692548   2692076   2691478   2690754  
  6760.000000   2689942   2689117   2688376   2687804   2687435  
  6750.000000   2687249   2687166   2687089   2686936   2686672  
  6740.000000   2686318   2685934   2685589   2685336   2685189  
  6730.000000   2685130   2685125   2685142   2685165   2685195  
  6720.000000   2685232   2685269   2685280   2685234   2685099  
  6710.000000   2684863   2684531   2684121   2683649   2683118  
  6700.000000   2682513   2681818   2681023   2680155   2679261  
  6690.000000   2678412   2677664   2677047   2676539   2676089  
  6680.000000   2675618   2675061   2674380   2673576   2672673  
  6670.000000   2671710   2670714   2669695   2668640   2667530  
  6660.000000   2666348   2665097   2663792   2662474   2661181  
  6650.000000   2659959   2658830   2657806   2656864   2655963  
  6640.000000   2655033   2653998   2652782   2651332   2649628  
  6630.000000   2647697   2645602   2643439   2641309   2639310  
  6620.000000   2637502   2635921   2634551   2633354   2632255  
  6610.000000   2631179   2630044   2628794   2627394   2625843  
  6600.000000   2624167   2622405   2620596   2618767   2616931  
  6590.000000   2615093   2613256   2611437   2609660   2607956  
  6580.000000   2606340   2604805   2603313   2601813   2600249  
  6570.000000   2598597   2596868   2595109   2593389   2591767  
  6560.000000   2590272   2588896   2587595   2586311   2584997  
  6550.000000   2583623   2582189   2580704   2579182   2577626  
  6540.000000   2576036   2574409   2572757   2571107   2569502  
  6530.000000   2567986   2566590   2565320   2564156   2563057  
  6520.000000   2561973   2560862   2559694   2558453   2557144  
  6510.000000   2555779   2554388   2553005   2551671   2550421  
  6500.000000   2549277   2548235   2547267   2546325   2545356  
  6490.000000   2544322   2543208   2542025   2540803   2539573  
  6480.000000   2538356   2537157   2535967   2534776   2533581  
  6470.000000   2532386   2531203   2530038   2528882   2527716  
  6460.000000   2526515   2525261   2523951   2522605   2521256  
  6450.000000   2519940   2518683   2517497   2516383   2515337  
  6440.000000   2514355   2513430   2512554   2511702   2510839  
  6430.000000   2509920   2508912   2507805   2506628   2505434  
  6420.000000   2504301   2503287   2502426   2501712   2501114  
  6410.000000   2500589   2500108   2499657   2499242   2498867  
  6400.000000   2498531   2498214   2497888   2497526   2497127  
  6390.000000   2496708   2496306   2495954   2495671   2495444  
  6380.000000   2495239   2495015   2494740   2494410   2494047  
  6370.000000   2493683   2493347   2493044   2492758   2492456  
  6360.000000   2492100   2491670   2491159   2490581   2489950  
  6350.000000   2489284   2488591   2487885   2487178   2486499  
  6340.000000   2485869   2485312   2484821   2484374   2483921  
  6330.000000   2483412   2482799   2482067   2481219   2480285  
  6320.000000   2479298   2478291   2477283   2476288   2475309  
  6310.000000   2474357   2473430   2472531   2471639   2470724  
  6300.000000   2469739   2468640   2467393   2465995   2464464  
  6290.000000   2462845   2461186   2459533   2457911   2456335  
  6280.000000   2454798   2453291   2451794   2450292   2448766  
  6270.000000   2447206   2445602   2443957   2442278   2440580  
  6260.000000   2438874   2437164   2435439   2433677   2431852  
  6250.000000   2429946   2427957   2425906   2423826   2421760  
  6240.000000   2419742   2417796   2415930   2414145   2412430  
  6230.000000   2410778   2409171   2407589   2406003   2404385  
  6220.000000   2402709   2400964   2399157   2397308   2395446  
  6210.000000   2393595   2391768   2389960   2388158   2386350  
  6200.000000   2384532   2382717   2380926   2379182   2377500  
  6190.000000   2375883   2374322   2372803   2371317   2369855  
  6180.000000   2368417   2367000   2365601   2364212   2362826  
  6170.000000   2361444   2360077   2358743   2357463   2356244  
  6160.000000   2355080   2353947   2352812   2351649   2350445  
  6150.000000   2349208   2347962   2346733   2345543   2344401  
  6140.000000   2343300   2342227   2341168   2340110   2339049  
  6130.000000   2337975   2336882   2335760   2334606   2333426  
  6120.000000   2332245   2331101   2330040   2329098   2328296  
  6110.000000   2327627   2327069   2326584   2326141   2325711  
  6100.000000   2325286   2324859   2324439   2324024   2323626  
  6090.000000   2323251   2322918   2322642   2322445   2322332  
  6080.000000   2322305   2322346   2322440   2322562   2322712  
  6070.000000   2322886   2323101   2323361   2323682   2324056  
  6060.000000   2324491   2324983   2325559   2326234   2327049  
  6050.000000   2328015   2329148   2330423   2331818   2333293  
  6040.000000   2334831   2336414   2338057   2339768   2341569  
  6030.000000   2343457   2345433   2347476   2349578   2351722  
  6020.000000   2353911   2356135   2358398   2360685   2362986  
  6010.000000   2365281   2367564   2369824   2372070   2374304  
  6000.000000   2376539   2378775   2381023   2383284   2385575  
  5990.000000   2387904   2390290   2392739   2395253   2397820  
  5980.000000   2400432   2403074   2405755   2408487   2411300  
  5970.000000   2414217   2417260   2420424   2423698   2427050  
  5960.000000   2430454   2433875   2437297   2440692   2444050  
  5950.000000   2447347   2450576   2453732   2456834   2459919  
  5940.000000   2463041   2466261   2469630   2473181   2476917  
  5930.000000   2480813   2484818   2488869   2492894   2496828  
  5920.000000   2500615   2504219   2507623   2510832   2513869  
  5910.000000   2516765   2519555   2522266   2524915   2527514  
  5900.000000   2530069   2532605   2535146   2537742   2540427  
  5890.000000   2543239   2546176   2549222   2552325   2555428  
  5880.000000   2558464   2561378   2564125   2566675   2569016  
  5870.000000   2571149   2573098   2574907   2576638   2578358  
  5860.000000   2580132   2581998   2583966   2586019   2588125  
  5850.000000   2590256   2592402   2594573   2596798   2599105  
  5840.000000   2601513   2604019   2606607   2609247   2611918  
  5830.000000   2614600   2617289   2619973   2622639   2625263  
  5820.000000   2627823   2630306   2632720   2635097   2637475  
  5810.000000   2639894   2642361   2644866   2647353   2649781  
  5800.000000   2652090   2654280   2656346   2658334   2660256  
  5790.000000   2662137   2663937   2665618   2667079   2668245  
  5780.000000   2669002   2669282   2669007   2668158   2666733  
  5770.000000   2664802   2662459   2659854   2657125   2654419  
  5760.000000   2651820   2649391   2647130   2645037   2643087  
  5750.000000   2641282   2639617   2638095   2636702   2635409  
  5740.000000   2634178   2632965   2631755   2630544   2629364  
  5730.000000   2628238   2627198   2626243   2625365   2624537  
  5720.000000   2623750   2622996   2622295   2621661   2621108  
  5710.000000   2620625   2620191   2619771   2619345   2618904  
  5700.000000   2618465   2618053   2617689   2617382   2617122  
  5690.000000   2616892   2616670   2616454   2616241   2616044  
  5680.000000   2615859   2615672   2615438   2615109   2614623  
  5670.000000   2613940   2613028   2611882   2610503   2608911  
  5660.000000   2607122   2605172   2603100   2600963   2598813  
  5650.000000   2596703   2594662   2592702   2590809   2588971  
  5640.000000   2587174   2585422   2583731   2582121   2580603  
  5630.000000   2579173   2577813   2576496   2575206   2573937  
  5620.000000   2572706   2571531   2570433   2569412   2568456  
  5610.000000   2567533   2566615   2565676   2564712   2563731  
  5600.000000   2562755   2561801   2560889   2560024   2559209  
  5590.000000   2558442   2557714   2557013   2556322   2555620  
  5580.000000   2554885   2554101   2553261   2552371   2551438  
  5570.000000   2550475   2549485   2548465   2547411   2546320  
  5560.000000   2545199   2544064   2542932   2541819   2540723  
  5550.000000   2539636   2538538   2537419   2536280   2535144  
  5540.000000   2534037   2532988   2532007   2531085   2530193  
  5530.000000   2529299   2528375   2527413   2526417   2525401  
  5520.000000   2524376   2523347   2522310   2521260   2520196  
  5510.000000   2519126   2518063   2517021   2515996   2514978  
  5500.000000   2513943   2512873   2511756   2510606   2509443  
  5490.000000   2508291   2507158   2506035   2504889   2503687  
  5480.000000   2502396   2501010   2499533   2497996   2496423  
  5470.000000   2494841   2493258   2491679   2490097   2488504  
  5460.000000   2486884   2485214   2483463   2481595   2479583  
  5450.000000   2477419   2475129   2472771   2470423   2468163  
  5440.000000   2466048   2464103   2462324   2460685   2459158  
  5430.000000   2457713   2456332   2454984   2453648   2452286  
  5420.000000   2450886   2449441   2447993   2446592   2445320  
  5410.000000   2444223   2443331   2442608   2442015   2441488  
  5400.000000   2441005   2440560   2440194   2439940   2439845  
  5390.000000   2439905   2440120   2440454   2440907   2441474  
  5380.000000   2442201   2443109   2444239   2445572   2447099  
  5370.000000   2448757   2450532   2452378   2454325   2456369  
  5360.000000   2458570   2460927   2463501   2466287   2469360  
  5350.000000   2472728   2476481   2480624   2485226   2490249  
  5340.000000   2495727   2501601   2507918   2514639   2521838  
  5330.000000   2529474   2537606   2546157   2555163   2564550  
  5320.000000   2574401   2584702   2595608   2607139   2619453  
  5310.000000   2632528   2646454   2661143   2676644   2692866  
  5300.000000   2709889   2727671   2746339   2765886   2786445  
  5290.000000   2807978   2830544   2854014   2878339   2903323  
  5280.000000   2928902   2954947   2981509   3008605   3036379  
  5270.000000   3064871   3094117   3123987   3154297   3184791  
  5260.000000   3215257   3245575   3275724   3305783   3335804  
  5250.000000   3365822   3395704   3425290   3454279   3482502  
  5240.000000   3509763   3536108   3561542   3586265   3610315  
  5230.000000   3633832   3656721   3678976   3700392   3720930  
  5220.000000   3740429   3758961   3776494   3793214   3809152  
  5210.000000   3824492   3839199   3853345   3866773   3879473  
  5200.000000   3891275   3902226   3912258   3921518   3930003  
  5190.000000   3937860   3945048   3951646   3957565   3962862  
  5180.000000   3967466   3971468   3974826   3977631   3979824  
  5170.000000   3981461   3982473   3982928   3982804   3982213  
  5160.000000   3981164   3979763   3977981   3975865   3973343  
  5150.000000   3970442   3967116   3963427   3959371   3955025  
  5140.000000   3950383   3945494   3940335   3934941   3929303  
  5130.000000   3923474   3917466   3911338   3905094   3898768  
  5120.000000   3892351   3885863   3879302   3872696   3866051  
  5110.000000   3859392   3852717   3846034   3839336   3832634  
  5100.000000   3825937   3819270   3812652   3806103   3799623  
  5090.000000   3793208   3786840   3780507   3774197   3767912  
  5080.000000   3761649   3755412   3749193   3742985   3736771  
  5070.000000   3730543   3724288   3718007   3711693   3705347  
  5060.000000   3698956   3692513   3686003   3679426   3672775  
  5050.000000   3666062   3659292   3652479   3645624   3638739  
  5040.000000   3631827   3624900   3617971   3611054   3604158  
  5030.000000   3597287   3590436   3583593   3576752   3569911  
  5020.000000   3563087   3556298   3549581   3542959   3536462  
  5010.000000   3530091   3523859   3517749   3511768   3505899  
  5000.000000   3500161   3494547   3489091   3483795   3478702  
  4990.000000   3473817   3469185   3464805   3460715   3456895  
  4980.000000   3453366   3450093   3447094   3444335   3441853  
  4970.000000   3439630   3437721   3436115   3434868   3433955  
  4960.000000   3433420   3433230   3433423   3433965   3434901  
  4950.000000   3436194   3437884   3439929   3442360   3445132  
  4940.000000   3448284   3451780   3455673   3459934   3464613  
  4930.000000   3469667   3475124   3480926   3487091   3493563  
  4920.000000   3500365   3507459   3514879   3522597   3530646  
  4910.000000   3539003   3547692   3556688   3566000   3575588  
  4900.000000   3585434   3595481   3605685   3615989   3626349  
  4890.000000   3636727   3647085   3657395   3667608   3677687  
  4880.000000   3687559   3697180   3706472   3715405   3723912  
  4870.000000   3731983   3739558   3746639   3753175   3759190  
  4860.000000   3764656   3769633   3774120   3778193   3781855  
  4850.000000   3785169   3788125   3790772   3793100   3795162  
  4840.000000   3796968   3798583   3800026   3801360   3802601  
  4830.000000   3803793   3804946   3806093   3807236   3808396  
  4820.000000   3809570   3810761   3811961   3813167   3814374  
  4810.000000   3815588   3816818   3818074   3819372   3820718  
  4800.000000   3822122   3823584   3825112   3826708   3828380  
  4790.000000   3830130   3831959   3833863   3835832   3837852  
  4780.000000   3839912   3841996   3844096   3846200   3848296  
  4770.000000   3850370   3852407   3854394   3856318   3858176  
  4760.000000   3859963   3861684   3863334   3864916   3866418  
  4750.000000   3867840   3869171   3870416   3871571   3872651  
  4740.000000   3873656   3874602   3875483   3876306   3877061  
  4730.000000   3877745   3878346   3878862   3879290   3879633  
  4720.000000   3879903   3880121   3880316   3880520   3880770  
  4710.000000   3881095   3881522   3882064   3882730   3883514  
  4700.000000   3884417   3885428   3886549   3887778   3889126  
  4690.000000   3890599   3892214   3893973   3895876   3897898  
  4680.000000   3900007   3902139   3904235   3906223   3908063  
  4670.000000   3909725   3911228   3912604   3913924   3915248  
  4660.000000   3916647   3918162   3919833   3921675   3923703  
  4650.000000   3925923   3928342   3930957   3933761   3936730  
  4640.000000   3939831   3943023   3946260   3949504   3952719  
  4630.000000   3955881   3958964   3961950   3964815   3967539  
  4620.000000   3970093   3972459   3974605   3976518   3978171  
  4610.000000   3979560   3980671   3981528   3982142   3982571  
  4600.000000   3982845   3983034   3983159   3983264   3983337  
  4590.000000   3983384   3983364   3983261   3983025   3982639  
  4580.000000   3982060   3981280   3980272   3979046   3977601  
  4570.000000   3975971   3974183   3972285   3970308   3968292  
  4560.000000   3966247   3964192   3962119   3960034   3957926  
  4550.000000   3955799   3953648   3951474   3949273   3947046  
  4540.000000   3944794   3942521   3940245   3937976   3935738  
  4530.000000   3933534   3931381   3929269   3927210   3925193  
  4520.000000   3923251   3921385   3919654   3918068   3916692  
  4510.000000   3915528   3914643   3914034   3913781   3913891  
  4500.000000   3914467   3915521   3917158   3919370   3922248  
  4490.000000   3925759   3929982   3934878   3940531   3946901  
  4480.000000   3954068   3961983   3970707   3980175   3990425  
  4470.000000   4001376   4013045   4025338   4038247   4051663  
  4460.000000   4065562   4079831   4094444   4109308   4124401  
  4450.000000   4139651   4155039   4170506   4186027   4201558  
  4440.000000   4217073   4232548   4247957   4263295   4278523  
  4430.000000   4293640   4308585   4323351   4337855   4352087  
  4420.000000   4365950   4379436   4392440   4404953   4416858  
  4410.000000   4428134   4438654   4448393   4457246   4465222  
  4400.000000   4472281   4478507   4483938   4488717   4492924  
  4390.000000   4496715   4500166   4503408   4506502   4509554  
  4380.000000   4512611   4515760   4519033   4522489   4526147  
  4370.000000   4530037   4534165   4538540   4543159   4548017  
  4360.000000   4553104   4558410   4563911   4569598   4575424  
  4350.000000   4581373   4587362   4593372   4599307   4605173  
  4340.000000   4610903   4616525   4621955   4627119   4631765  
  4330.000000   4635582   4638109   4638913   4637609   4634054  
  4320.000000   4628350   4620927   4612414   4603576   4595101  
  4310.000000   4587552   4581215   4576178   4572316   4569440  
  4300.000000   4567328   4565817   4564800   4564216   4564040  
  4290.000000   4564220   4564730   4565498   4566508   4567713  
  4280.000000   4569121   4570717   4572489   4574412   4576432  
  4270.000000   4578512   4580584   4582598   4584445   4585994  
  4260.000000   4587025   4587297   4586535   4584541   4581206  
  4250.000000   4576603   4570939   4564577   4557906   4551336  
  4240.000000   4545158   4539583   4534653   4530342   4526523  
  4230.000000   4523068   4519835   4516712   4513615   4510481  
  4220.000000   4507294   4504038   4500768   4497523   4494420  
  4210.000000   4491538   4489005   4486884   4485252   4484108  
  4200.000000   4483447   4483198   4483302   4483653   4484187  
  4190.000000   4484806   4485477   4486135   4486790   4487406  
  4180.000000   4488024   4488630   4489284   4489996   4490858  
  4170.000000   4491910   4493272   4494999   4497200   4499896  
  4160.000000   4503143   4506903   4511184   4515915   4521106  
  4150.000000   4526701   4532741   4539192   4546110   4553459  
  4140.000000   4561288   4569549   4578285   4587438   4597048  
  4130.000000   4607058   4617500   4628316   4639544   4651141  
  4120.000000   4663164   4675601   4688529   4701951   4715936  
  4110.000000   4730472   4745593   4761250   4777433   4794056  
  4100.000000   4811074   4828385   4845932   4863632   4881451  
  4090.000000   4899349   4917322   4935365   4953481   4971678  
  4080.000000   4989941   5008275   5026637   5045016   5063324  
  4070.000000   5081511   5099439   5117038   5134167   5150798  
  4060.000000   5166849   5182361   5197294   5211714   5225563  
  4050.000000   5238893   5251629   5263838   5275458   5286579  
  4040.000000   5297135   5307192   5316639   5325502   5333649  
  4030.000000   5341111   5347781   5353711   5358816   5363139  
  4020.000000   5366575   5369185   5370950   5371977   5372252  
  4010.000000   5371943   5371139   5369877   5367950   5365417  
  4000.000000   5362570  
##END= 
