##TITLE= Sample 006 By ssteindl date Dienstag, November 20 2018
##JCAMP-DX= 4.24
##DATA TYPE= INFRARED SPECTRUM
##ORIGIN= Exported PE Spectrum Data File
##OWNER= Sandra Steindl
##DATE= 18/11/20
##TIME= 16:58:06.00
##SPECTROMETER/DATA SYSTEM= PERKIN-ELMER Frontier FT-IR/NIR IR
##INSTRUMENT PARAMETERS=
  APODIZATION=stark
  DETECTOR=INGAAS
##RESOLUTION= 16.000000
##DELTAX= -2.000000
##XUNITS= 1/CM
##YUNITS= A
##XFACTOR= 1.00
##YFACTOR= 0.00000011920928955078
##FIRSTX= 10000.00
##LASTX= 4000.00
##NPOINTS= 3001
##FIRSTY= 0.232519
##MAXY= 0.633595
##MINY= 0.192452
##XYDATA= (X++(Y..Y))
 10000.000000   1950507   1953556   1956615   1959239   1960290  
  9990.000000   1958497   1953243   1944905   1934686   1924174  
  9980.000000   1914819   1907429   1901898   1897478   1893272  
  9970.000000   1888827   1884333   1880603   1878587   1878923  
  9960.000000   1881549   1885737   1890371   1894385   1897155  
  9950.000000   1898549   1898909   1898640   1898147   1897566  
  9940.000000   1896968   1896325   1895645   1894893   1893924  
  9930.000000   1892497   1890309   1887312   1883786   1880559  
  9920.000000   1878677   1879140   1882345   1887817   1894239  
  9910.000000   1899780   1902762   1902135   1897854   1890716  
  9900.000000   1882067   1873263   1865387   1859112   1854796  
  9890.000000   1852672   1852848   1855313   1859693   1865241  
  9880.000000   1870871   1875483   1878322   1879225   1878639  
  9870.000000   1877298   1875828   1874363   1872572   1869906  
  9860.000000   1866132   1861667   1857598   1855296   1855720  
  9850.000000   1858901   1863678   1868093   1870100   1868413  
  9840.000000   1863102   1855523   1847847   1842098   1839449  
  9830.000000   1839831   1842134   1844834   1846652   1847095  
  9820.000000   1846494   1845759   1845871   1847478   1850661  
  9810.000000   1854958   1859569   1863557   1866094   1866541  
  9800.000000   1864588   1860314   1854263   1847488   1841338  
  9790.000000   1837212   1836028   1837928   1842085   1846977  
  9780.000000   1850832   1852265   1850664   1846366   1840396  
  9770.000000   1834041   1828403   1824042   1821050   1819100  
  9760.000000   1817845   1816958   1816281   1815669   1814921  
  9750.000000   1813792   1812072   1809853   1807602   1806183  
  9740.000000   1806564   1809457   1814956   1822404   1830509  
  9730.000000   1837752   1842800   1844921   1844096   1840932  
  9720.000000   1836403   1831478   1826911   1823036   1819830  
  9710.000000   1816962   1813967   1810395   1805919   1800521  
  9700.000000   1794463   1788407   1783165   1779615   1778329  
  9690.000000   1779436   1782514   1786686   1790895   1794142  
  9680.000000   1795803   1795639   1793857   1790841   1787108  
  9670.000000   1783067   1779115   1775536   1772633   1770623  
  9660.000000   1769648   1769699   1770608   1772139   1774028  
  9650.000000   1776152   1778484   1781126   1784133   1787447  
  9640.000000   1790830   1793915   1796355   1797915   1798577  
  9630.000000   1798442   1797667   1796304   1794308   1791563  
  9620.000000   1788020   1783813   1779263   1774868   1771093  
  9610.000000   1768310   1766653   1766094   1766494   1767719  
  9600.000000   1769666   1772198   1775065   1777796   1779800  
  9590.000000   1780477   1779530   1777099   1773843   1770731  
  9580.000000   1768742   1768531   1770201   1773350   1777191  
  9570.000000   1780915   1783879   1785790   1786639   1786580  
  9560.000000   1785805   1784417   1782493   1780077   1777268  
  9550.000000   1774199   1770998   1767782   1764632   1761721  
  9540.000000   1759323   1757884   1757864   1759588   1762996  
  9530.000000   1767520   1772133   1775583   1776810   1775296  
  9520.000000   1771337   1765928   1760508   1756429   1754588  
  9510.000000   1755162   1757654   1761130   1764511   1766931  
  9500.000000   1767867   1767263   1765441   1763017   1760744  
  9490.000000   1759327   1759254   1760587   1762932   1765449  
  9480.000000   1767139   1767137   1765068   1761239   1756564  
  9470.000000   1752333   1749693   1749308   1751058   1754197  
  9460.000000   1757627   1760379   1761886   1762136   1761464  
  9450.000000   1760324   1758974   1757396   1755360   1752603  
  9440.000000   1749059   1744900   1740512   1736269   1732389  
  9430.000000   1728869   1725545   1722299   1719151   1716345  
  9420.000000   1714205   1712988   1712739   1713228   1714088  
  9410.000000   1714933   1715556   1715931   1716171   1716355  
  9400.000000   1716434   1716212   1715481   1714217   1712692  
  9390.000000   1711450   1711054   1711814   1713560   1715643  
  9380.000000   1717172   1717312   1715669   1712362   1708023  
  9370.000000   1703425   1699204   1695607   1692534   1689745  
  9360.000000   1687156   1685030   1683950   1684600   1687378  
  9350.000000   1692175   1698271   1704597   1710070   1713945  
  9340.000000   1716028   1716601   1716270   1715614   1714993  
  9330.000000   1714440   1713771   1712791   1711450   1709896  
  9320.000000   1708369   1707088   1706102   1705302   1704408  
  9310.000000   1703165   1701396   1699129   1696525   1693853  
  9300.000000   1691384   1689356   1687938   1687225   1687233  
  9290.000000   1687869   1688926   1690060   1690864   1690934  
  9280.000000   1690021   1688127   1685537   1682740   1680259  
  9270.000000   1678509   1677684   1677748   1678493   1679618  
  9260.000000   1680832   1681876   1682560   1682701   1682143  
  9250.000000   1680739   1678468   1675473   1672131   1668968  
  9240.000000   1666541   1665306   1665473   1667012   1669614  
  9230.000000   1672866   1676289   1679520   1682292   1684455  
  9220.000000   1685935   1686659   1686602   1685699   1683963  
  9210.000000   1681408   1678157   1674362   1670241   1666069  
  9200.000000   1662165   1658928   1656712   1655853   1656490  
  9190.000000   1658600   1661898   1665923   1670079   1673787  
  9180.000000   1676607   1678273   1678749   1678121   1676610  
  9170.000000   1674450   1671902   1669191   1666534   1664144  
  9160.000000   1662201   1660855   1660130   1659974   1660203  
  9150.000000   1660611   1660964   1661086   1660874   1660302  
  9140.000000   1659411   1658248   1656860   1655287   1653582  
  9130.000000   1651855   1650238   1648907   1648014   1647682  
  9120.000000   1647943   1648691   1649709   1650670   1651253  
  9110.000000   1651103   1649922   1647506   1643864   1639237  
  9100.000000   1634119   1629223   1625405   1623462   1623906  
  9090.000000   1626779   1631596   1637411   1643026   1647296  
  9080.000000   1649445   1649281   1647235   1644201   1641255  
  9070.000000   1639345   1639061   1640486   1643247   1646681  
  9060.000000   1650067   1652781   1654356   1654570   1653395  
  9050.000000   1651008   1647700   1643897   1640115   1636874  
  9040.000000   1634575   1633405   1633290   1633902   1634751  
  9030.000000   1635363   1635435   1634917   1633971   1632876  
  9020.000000   1631902   1631188   1630728   1630418   1630198  
  9010.000000   1630103   1630303   1631008   1632375   1634364  
  9000.000000   1636697   1638905   1640482   1641040   1640440  
  8990.000000   1638846   1636681   1634487   1632765   1631856  
  8980.000000   1631886   1632770   1634246   1635959   1637527  
  8970.000000   1638616   1638978   1638513   1637289   1635561  
  8960.000000   1633707   1632146   1631223   1631115   1631796  
  8950.000000   1633038   1634498   1635822   1636751   1637161  
  8940.000000   1637045   1636486   1635589   1634471   1633233  
  8930.000000   1632009   1630967   1630315   1630225   1630788  
  8920.000000   1631922   1633392   1634811   1635755   1635875  
  8910.000000   1634992   1633182   1630684   1627878   1625104  
  8900.000000   1622634   1620567   1618869   1617435   1616178  
  8890.000000   1615129   1614442   1614401   1615304   1617354  
  8880.000000   1620536   1624556   1628900   1632890   1635902  
  8870.000000   1637477   1637523   1636260   1634209   1631983  
  8860.000000   1630167   1629153   1629094   1629913   1631389  
  8850.000000   1633262   1635287   1637298   1639154   1640776  
  8840.000000   1642085   1643056   1643713   1644159   1644580  
  8830.000000   1645164   1646069   1647309   1648754   1650142  
  8820.000000   1651154   1651550   1651229   1650321   1649125  
  8810.000000   1648060   1647525   1647796   1648940   1650794  
  8800.000000   1652990   1655048   1656477   1656921   1656238  
  8790.000000   1654577   1652339   1650109   1648499   1647970  
  8780.000000   1648696   1650493   1652876   1655189   1656797  
  8770.000000   1657266   1656481   1654665   1652299   1649963  
  8760.000000   1648181   1647281   1647359   1648270   1649725  
  8750.000000   1651362   1652860   1653992   1654679   1654982  
  8740.000000   1655084   1655212   1655586   1656317   1657396  
  8730.000000   1658663   1659902   1660897   1661555   1661942  
  8720.000000   1662288   1662904   1664062   1665893   1668326  
  8710.000000   1671110   1673907   1676396   1678385   1679841  
  8700.000000   1680877   1681670   1682390   1683147   1683975  
  8690.000000   1684879   1685846   1686900   1688070   1689382  
  8680.000000   1690809   1692269   1693622   1694719   1695440  
  8670.000000   1695721   1695564   1695013   1694166   1693133  
  8660.000000   1692067   1691132   1690536   1690457   1691028  
  8650.000000   1692254   1694023   1696108   1698261   1700289  
  8640.000000   1702144   1703933   1705876   1708208   1711078  
  8630.000000   1714474   1718215   1722010   1725564   1728660  
  8620.000000   1731221   1733278   1734939   1736301   1737418  
  8610.000000   1738270   1738802   1738964   1738765   1738307  
  8600.000000   1737756   1737351   1737304   1737816   1738974  
  8590.000000   1740806   1743219   1746061   1749100   1752083  
  8580.000000   1754768   1756948   1758483   1759300   1759430  
  8570.000000   1758970   1758093   1757003   1755948   1755169  
  8560.000000   1754874   1755190   1756125   1757566   1759281  
  8550.000000   1761004   1762501   1763660   1764511   1765218  
  8540.000000   1766004   1767073   1768530   1770338   1772351  
  8530.000000   1774362   1776203   1777765   1779027   1780010  
  8520.000000   1780744   1781236   1781463   1781416   1781144  
  8510.000000   1780781   1780529   1780603   1781165   1782258  
  8500.000000   1783782   1785539   1787287   1788824   1790038  
  8490.000000   1790925   1791575   1792126   1792722   1793474  
  8480.000000   1794455   1795681   1797127   1798712   1800319  
  8470.000000   1801800   1803008   1803839   1804266   1804363  
  8460.000000   1804279   1804207   1804328   1804758   1805521  
  8450.000000   1806567   1807793   1809093   1810371   1811568  
  8440.000000   1812647   1813595   1814411   1815115   1815754  
  8430.000000   1816392   1817090   1817879   1818726   1819552  
  8420.000000   1820246   1820733   1821002   1821150   1821336  
  8410.000000   1821726   1822393   1823270   1824149   1824745  
  8400.000000   1824810   1824218   1823042   1821520   1819988  
  8390.000000   1818755   1818002   1817756   1817908   1818302  
  8380.000000   1818812   1819393   1820094   1820999   1822165  
  8370.000000   1823555   1825029   1826381   1827412   1827993  
  8360.000000   1828114   1827897   1827566   1827377   1827542  
  8350.000000   1828176   1829262   1830660   1832127   1833375  
  8340.000000   1834133   1834223   1833602   1832378   1830770  
  8330.000000   1829067   1827541   1826402   1825730   1825493  
  8320.000000   1825573   1825827   1826119   1826350   1826451  
  8310.000000   1826375   1826086   1825557   1824789   1823826  
  8300.000000   1822776   1821799   1821065   1820704   1820756  
  8290.000000   1821160   1821757   1822352   1822754   1822831  
  8280.000000   1822528   1821863   1820902   1819724   1818410  
  8270.000000   1817020   1815615   1814242   1812949   1811770  
  8260.000000   1810725   1809824   1809058   1808431   1807941  
  8250.000000   1807614   1807465   1807517   1807760   1808151  
  8240.000000   1808614   1809045   1809342   1809400   1809153  
  8230.000000   1808549   1807578   1806253   1804625   1802780  
  8220.000000   1800832   1798925   1797199   1795801   1794836  
  8210.000000   1794387   1794449   1794964   1795766   1796637  
  8200.000000   1797307   1797527   1797115   1796008   1794295  
  8190.000000   1792172   1789901   1787696   1785667   1783793  
  8180.000000   1781951   1780011   1777905   1775712   1773624  
  8170.000000   1771915   1770800   1770356   1770456   1770799  
  8160.000000   1771016   1770781   1769938   1768504   1766669  
  8150.000000   1764686   1762795   1761147   1759799   1758740  
  8140.000000   1757938   1757377   1757048   1756929   1756948  
  8130.000000   1756980   1756870   1756484   1755757   1754716  
  8120.000000   1753457   1752101   1750745   1749428   1748147  
  8110.000000   1746893   1745690   1744606   1743727   1743105  
  8100.000000   1742701   1742367   1741878   1741016   1739660  
  8090.000000   1737848   1735783   1733754   1732031   1730776  
  8080.000000   1729988   1729544   1729261   1728990   1728656  
  8070.000000   1728266   1727859   1727446   1726972   1726325  
  8060.000000   1725391   1724109   1722533   1720810   1719152  
  8050.000000   1717733   1716642   1715853   1715245   1714681  
  8040.000000   1714058   1713369   1712677   1712090   1711695  
  8030.000000   1711517   1711504   1711547   1711519   1711317  
  8020.000000   1710888   1710221   1709352   1708323   1707188  
  8010.000000   1705993   1704787   1703606   1702482   1701423  
  8000.000000   1700429   1699490   1698604   1697796   1697109  
  7990.000000   1696605   1696331   1696294   1696451   1696712  
  7980.000000   1696968   1697122   1697124   1696980   1696737  
  7970.000000   1696460   1696200   1695978   1695784   1695583  
  7960.000000   1695341   1695021   1694600   1694047   1693338  
  7950.000000   1692445   1691368   1690140   1688842   1687591  
  7940.000000   1686517   1685733   1685301   1685227   1685464  
  7930.000000   1685942   1686582   1687319   1688098   1688865  
  7920.000000   1689556   1690095   1690410   1690445   1690193  
  7910.000000   1689689   1689020   1688285   1687586   1686996  
  7900.000000   1686553   1686266   1686118   1686084   1686126  
  7890.000000   1686203   1686268   1686280   1686207   1686049  
  7880.000000   1685836   1685626   1685483   1685454   1685546  
  7870.000000   1685716   1685882   1685946   1685828   1685488  
  7860.000000   1684938   1684233   1683453   1682684   1681996  
  7850.000000   1681441   1681047   1680832   1680795   1680926  
  7840.000000   1681196   1681562   1681958   1682317   1682568  
  7830.000000   1682655   1682549   1682246   1681771   1681168  
  7820.000000   1680492   1679790   1679098   1678432   1677785  
  7810.000000   1677142   1676482   1675802   1675115   1674460  
  7800.000000   1673884   1673428   1673108   1672903   1672760  
  7790.000000   1672605   1672369   1672001   1671484   1670835  
  7780.000000   1670094   1669321   1668571   1667900   1667346  
  7770.000000   1666939   1666680   1666551   1666499   1666439  
  7760.000000   1666278   1665916   1665286   1664350   1663126  
  7750.000000   1661668   1660060   1658407   1656819   1655417  
  7740.000000   1654313   1653617   1653396   1653667   1654364  
  7730.000000   1655343   1656391   1657274   1657791   1657816  
  7720.000000   1657338   1656448   1655324   1654157   1653125  
  7710.000000   1652329   1651789   1651448   1651196   1650914  
  7700.000000   1650496   1649897   1649128   1648273   1647448  
  7690.000000   1646783   1646370   1646237   1646326   1646504  
  7680.000000   1646611   1646505   1646116   1645471   1644681  
  7670.000000   1643906   1643294   1642930   1642817   1642871  
  7660.000000   1642964   1642957   1642756   1642328   1641706  
  7650.000000   1640970   1640220   1639555   1639048   1638746  
  7640.000000   1638663   1638779   1639052   1639409   1639774  
  7630.000000   1640062   1640214   1640188   1639978   1639596  
  7620.000000   1639079   1638475   1637856   1637311   1636950  
  7610.000000   1636878   1637178   1637864   1638865   1640024  
  7600.000000   1641139   1642008   1642501   1642587   1642354  
  7590.000000   1641967   1641631   1641515   1641717   1642246  
  7580.000000   1643037   1643987   1644984   1645933   1646765  
  7570.000000   1647432   1647909   1648200   1648340   1648399  
  7560.000000   1648468   1648631   1648949   1649427   1650030  
  7550.000000   1650685   1651329   1651922   1652469   1653000  
  7540.000000   1653550   1654126   1654708   1655255   1655748  
  7530.000000   1656204   1656704   1657355   1658262   1659467  
  7520.000000   1660942   1662577   1664235   1665791   1667198  
  7510.000000   1668478   1669721   1671022   1672452   1674020  
  7500.000000   1675693   1677412   1679139   1680864   1682609  
  7490.000000   1684393   1686216   1688029   1689757   1691322  
  7480.000000   1692689   1693880   1694979   1696102   1697352  
  7470.000000   1698795   1700436   1702238   1704147   1706118  
  7460.000000   1708133   1710184   1712266   1714337   1716334  
  7450.000000   1718170   1719784   1721152   1722323   1723406  
  7440.000000   1724547   1725885   1727512   1729455   1731675  
  7430.000000   1734089   1736595   1739097   1741528   1743841  
  7420.000000   1746016   1748024   1749850   1751474   1752901  
  7410.000000   1754160   1755329   1756518   1757866   1759500  
  7400.000000   1761502   1763888   1766595   1769501   1772449  
  7390.000000   1775294   1777944   1780368   1782597   1784688  
  7380.000000   1786704   1788678   1790616   1792498   1794313  
  7370.000000   1796075   1797833   1799662   1801631   1803781  
  7360.000000   1806098   1808525   1810970   1813343   1815580  
  7350.000000   1817665   1819615   1821478   1823305   1825133  
  7340.000000   1826981   1828847   1830717   1832575   1834402  
  7330.000000   1836183   1837906   1839569   1841182   1842771  
  7320.000000   1844370   1846014   1847721   1849480   1851249  
  7310.000000   1852968   1854572   1856026   1857330   1858534  
  7300.000000   1859716   1860966   1862352   1863908   1865609  
  7290.000000   1867389   1869142   1870762   1872148   1873250  
  7280.000000   1874064   1874656   1875139   1875651   1876317  
  7270.000000   1877215   1878351   1879652   1880997   1882250  
  7260.000000   1883319   1884169   1884851   1885454   1886096  
  7250.000000   1886859   1887791   1888878   1890090   1891383  
  7240.000000   1892749   1894194   1895762   1897482   1899386  
  7230.000000   1901462   1903697   1906047   1908487   1910978  
  7220.000000   1913504   1916030   1918551   1921056   1923580  
  7210.000000   1926166   1928892   1931816   1934974   1938336  
  7200.000000   1941829   1945335   1948763   1952048   1955212  
  7190.000000   1958319   1961480   1964778   1968269   1971927  
  7180.000000   1975700   1979500   1983276   1987001   1990706  
  7170.000000   1994427   1998223   2002115   2006125   2010240  
  7160.000000   2014464   2018789   2023232   2027792   2032483  
  7150.000000   2037291   2042221   2047258   2052418   2057701  
  7140.000000   2063121   2068653   2074274   2079921   2085564  
  7130.000000   2091172   2096780   2102429   2108206   2114159  
  7120.000000   2120322   2126664   2133138   2139671   2146225  
  7110.000000   2152778   2159360   2165999   2172741   2179594  
  7100.000000   2186563   2193620   2200749   2207922   2215128  
  7090.000000   2222342   2229552   2236734   2243884   2251004  
  7080.000000   2258129   2265288   2272513   2279794   2287102  
  7070.000000   2294374   2301561   2308647   2315676   2322741  
  7060.000000   2329955   2337409   2345135   2353093   2361183  
  7050.000000   2369276   2377259   2385052   2392624   2399969  
  7040.000000   2407096   2414008   2420704   2427201   2433546  
  7030.000000   2439825   2446139   2452590   2459227   2466054  
  7020.000000   2473000   2479979   2486881   2493646   2500234  
  7010.000000   2506657   2512931   2519084   2525131   2531087  
  7000.000000   2536959   2542760   2548483   2554121   2559623  
  6990.000000   2564949   2570041   2574899   2579550   2584094  
  6980.000000   2588630   2593262   2598010   2602835   2607614  
  6970.000000   2612214   2616505   2620437   2624018   2627341  
  6960.000000   2630508   2633631   2636770   2639961   2643190  
  6950.000000   2646446   2649701   2652947   2656163   2659342  
  6940.000000   2662451   2665478   2668398   2671218   2673943  
  6930.000000   2676599   2679192   2681733   2684203   2686587  
  6920.000000   2688862   2691023   2693061   2694984   2696785  
  6910.000000   2698461   2700000   2701407   2702692   2703897  
  6900.000000   2705069   2706271   2707547   2708936   2710441  
  6890.000000   2712058   2713755   2715499   2717239   2718930  
  6880.000000   2720524   2721994   2723335   2724571   2725752  
  6870.000000   2726941   2728183   2729501   2730880   2732285  
  6860.000000   2733671   2735017   2736321   2737608   2738897  
  6850.000000   2740199   2741484   2742709   2743818   2744779  
  6840.000000   2745594   2746301   2746947   2747574   2748187  
  6830.000000   2748765   2749265   2749659   2749944   2750158  
  6820.000000   2750358   2750609   2750953   2751411   2751969  
  6810.000000   2752612   2753313   2754056   2754811   2755537  
  6800.000000   2756172   2756651   2756925   2756986   2756876  
  6790.000000   2756673   2756462   2756301   2756193   2756097  
  6780.000000   2755948   2755708   2755381   2755037   2754765  
  6770.000000   2754643   2754683   2754828   2754961   2754958  
  6760.000000   2754731   2754269   2753640   2752958   2752339  
  6750.000000   2751863   2751546   2751357   2751230   2751104  
  6740.000000   2750934   2750698   2750386   2749998   2749530  
  6730.000000   2748988   2748385   2747746   2747103   2746481  
  6720.000000   2745882   2745291   2744675   2744013   2743297  
  6710.000000   2742557   2741831   2741162   2740566   2740029  
  6700.000000   2739508   2738956   2738335   2737632   2736852  
  6690.000000   2736004   2735083   2734067   2732926   2731650  
  6680.000000   2730262   2728839   2727478   2726286   2725320  
  6670.000000   2724582   2723995   2723448   2722817   2722012  
  6660.000000   2720988   2719758   2718360   2716847   2715261  
  6650.000000   2713636   2711994   2710361   2708760   2707214  
  6640.000000   2705730   2704305   2702911   2701522   2700112  
  6630.000000   2698674   2697211   2695738   2694259   2692767  
  6620.000000   2691241   2689658   2688000   2686273   2684498  
  6610.000000   2682713   2680946   2679223   2677548   2675923  
  6600.000000   2674340   2672793   2671273   2669760   2668220  
  6590.000000   2666605   2664872   2662999   2661000   2658930  
  6580.000000   2656872   2654914   2653118   2651507   2650061  
  6570.000000   2648731   2647466   2646223   2644985   2643743  
  6560.000000   2642497   2641231   2639920   2638534   2637056  
  6550.000000   2635490   2633873   2632253   2630688   2629215  
  6540.000000   2627853   2626594   2625416   2624296   2623217  
  6530.000000   2622168   2621144   2620138   2619145   2618157  
  6520.000000   2617174   2616201   2615249   2614328   2613441  
  6510.000000   2612580   2611726   2610855   2609951   2609006  
  6500.000000   2608024   2607016   2605989   2604950   2603900  
  6490.000000   2602843   2601788   2600752   2599750   2598794  
  6480.000000   2597876   2596973   2596048   2595069   2594019  
  6470.000000   2592902   2591746   2590588   2589464   2588398  
  6460.000000   2587397   2586459   2585581   2584761   2584006  
  6450.000000   2583321   2582705   2582140   2581601   2581051  
  6440.000000   2580459   2579803   2579080   2578294   2577462  
  6430.000000   2576601   2575733   2574881   2574071   2573334  
  6420.000000   2572699   2572184   2571794   2571517   2571324  
  6410.000000   2571181   2571054   2570915   2570745   2570528  
  6400.000000   2570255   2569912   2569498   2569021   2568504  
  6390.000000   2567982   2567494   2567076   2566745   2566498  
  6380.000000   2566311   2566155   2565994   2565806   2565577  
  6370.000000   2565305   2564996   2564660   2564308   2563958  
  6360.000000   2563628   2563331   2563072   2562840   2562608  
  6350.000000   2562339   2561995   2561557   2561028   2560441  
  6340.000000   2559840   2559280   2558796   2558402   2558083  
  6330.000000   2557804   2557516   2557170   2556721   2556142  
  6320.000000   2555415   2554549   2553567   2552514   2551441  
  6310.000000   2550403   2549431   2548541   2547710   2546905  
  6300.000000   2546077   2545195   2544238   2543211   2542121  
  6290.000000   2540980   2539785   2538523   2537175   2535733  
  6280.000000   2534199   2532599   2530962   2529324   2527698  
  6270.000000   2526093   2524495   2522894   2521279   2519654  
  6260.000000   2518023   2516395   2514772   2513150   2511519  
  6250.000000   2509874   2508212   2506534   2504839   2503120  
  6240.000000   2501358   2499535   2497640   2495681   2493689  
  6230.000000   2491710   2489789   2487955   2486205   2484508  
  6220.000000   2482817   2481090   2479304   2477471   2475621  
  6210.000000   2473799   2472037   2470347   2468718   2467126  
  6200.000000   2465542   2463944   2462319   2460660   2458962  
  6190.000000   2457216   2455417   2453563   2451669   2449760  
  6180.000000   2447875   2446050   2444311   2442663   2441095  
  6170.000000   2439584   2438105   2436640   2435183   2433733  
  6160.000000   2432295   2430868   2429453   2428045   2426640  
  6150.000000   2425237   2423840   2422451   2421078   2419722  
  6140.000000   2418388   2417076   2415788   2414518   2413260  
  6130.000000   2411999   2410722   2409417   2408086   2406744  
  6120.000000   2405422   2404150   2402957   2401849   2400821  
  6110.000000   2399849   2398914   2398003   2397129   2396310  
  6100.000000   2395573   2394927   2394366   2393854   2393350  
  6090.000000   2392807   2392208   2391554   2390885   2390247  
  6080.000000   2389699   2389279   2389014   2388896   2388906  
  6070.000000   2388998   2389130   2389254   2389341   2389375  
  6060.000000   2389376   2389372   2389419   2389556   2389820  
  6050.000000   2390206   2390698   2391247   2391820   2392385  
  6040.000000   2392944   2393513   2394131   2394828   2395631  
  6030.000000   2396548   2397580   2398717   2399956   2401284  
  6020.000000   2402691   2404147   2405623   2407074   2408474  
  6010.000000   2409806   2411085   2412339   2413611   2414927  
  6000.000000   2416304   2417725   2419172   2420613   2422039  
  5990.000000   2423449   2424867   2426313   2427814   2429380  
  5980.000000   2431018   2432724   2434501   2436348   2438274  
  5970.000000   2440278   2442360   2444505   2446705   2448943  
  5960.000000   2451223   2453541   2455909   2458321   2460778  
  5950.000000   2463262   2465768   2468287   2470835   2473428  
  5940.000000   2476095   2478854   2481709   2484646   2487642  
  5930.000000   2490666   2493701   2496733   2499757   2502765  
  5920.000000   2505742   2508662   2511495   2514214   2516811  
  5910.000000   2519290   2521675   2523994   2526273   2528532  
  5900.000000   2530785   2533048   2535336   2537671   2540071  
  5890.000000   2542547   2545087   2547668   2550248   2552790  
  5880.000000   2555262   2557653   2559962   2562197   2564369  
  5870.000000   2566480   2568531   2570524   2572470   2574389  
  5860.000000   2576308   2578252   2580238   2582275   2584367  
  5850.000000   2586519   2588744   2591061   2593492   2596044  
  5840.000000   2598705   2601438   2604191   2606909   2609548  
  5830.000000   2612088   2614531   2616898   2619214   2621504  
  5820.000000   2623781   2626055   2628328   2630606   2632883  
  5810.000000   2635156   2637400   2639595   2641704   2643715  
  5800.000000   2645612   2647420   2649148   2650835   2652478  
  5790.000000   2654083   2655610   2657037   2658307   2659390  
  5780.000000   2660231   2660799   2661036   2660914   2660399  
  5770.000000   2659509   2658285   2656821   2655221   2653602  
  5760.000000   2652049   2650623   2649339   2648200   2647187  
  5750.000000   2646296   2645522   2644865   2644319   2643869  
  5740.000000   2643491   2643157   2642853   2642570   2642319  
  5730.000000   2642105   2641942   2641821   2641743   2641693  
  5720.000000   2641676   2641697   2641774   2641912   2642111  
  5710.000000   2642348   2642594   2642819   2643013   2643183  
  5700.000000   2643356   2643567   2643843   2644193   2644605  
  5690.000000   2645058   2645524   2645988   2646433   2646858  
  5680.000000   2647249   2647596   2647871   2648052   2648114  
  5670.000000   2648049   2647846   2647504   2647010   2646360  
  5660.000000   2645540   2644560   2643444   2642245   2641021  
  5650.000000   2639834   2638719   2637692   2636732   2635811  
  5640.000000   2634898   2633975   2633039   2632097   2631158  
  5630.000000   2630227   2629304   2628390   2627494   2626633  
  5620.000000   2625831   2625106   2624462   2623883   2623337  
  5610.000000   2622786   2622201   2621571   2620899   2620204  
  5600.000000   2619497   2618786   2618065   2617325   2616560  
  5590.000000   2615778   2614989   2614209   2613439   2612671  
  5580.000000   2611877   2611032   2610114   2609124   2608078  
  5570.000000   2607005   2605933   2604881   2603852   2602839  
  5560.000000   2601832   2600826   2599818   2598810   2597802  
  5550.000000   2596789   2595761   2594713   2593648   2592581  
  5540.000000   2591534   2590528   2589572   2588656   2587756  
  5530.000000   2586845   2585897   2584903   2583872   2582823  
  5520.000000   2581776   2580746   2579739   2578752   2577781  
  5510.000000   2576821   2575868   2574922   2573975   2573020  
  5500.000000   2572047   2571053   2570041   2569023   2568006  
  5490.000000   2566993   2565966   2564899   2563757   2562521  
  5480.000000   2561185   2559771   2558311   2556841   2555376  
  5470.000000   2553913   2552424   2550879   2549253   2547545  
  5460.000000   2545766   2543946   2542102   2540248   2538380  
  5450.000000   2536493   2534580   2532646   2530703   2528765  
  5440.000000   2526844   2524945   2523070   2521225   2519427  
  5430.000000   2517698   2516061   2514522   2513072   2511679  
  5420.000000   2510319   2508972   2507662   2506425   2505328  
  5410.000000   2504410   2503694   2503145   2502722   2502357  
  5400.000000   2502026   2501712   2501453   2501272   2501211  
  5390.000000   2501267   2501438   2501691   2502027   2502446  
  5380.000000   2503000   2503723   2504669   2505837   2507233  
  5370.000000   2508802   2510525   2512351   2514290   2516323  
  5360.000000   2518492   2520792   2523280   2525956   2528901  
  5350.000000   2532130   2535733   2539718   2544146   2548980  
  5340.000000   2554247   2559888   2565946   2572380   2579260  
  5330.000000   2586543   2594284   2602411   2610961   2619866  
  5320.000000   2629205   2638963   2649281   2660166   2671757  
  5310.000000   2684023   2697046   2710744   2725178   2740278  
  5300.000000   2756139   2772739   2790212   2808560   2827913  
  5290.000000   2848233   2869576   2891811   2914886   2938602  
  5280.000000   2962890   2987614   3012816   3038503   3064821  
  5270.000000   3091817   3119547   3147907   3176745   3205824  
  5260.000000   3234946   3263979   3292885   3321712   3350493  
  5250.000000   3379245   3407843   3436136   3463853   3490843  
  5240.000000   3516931   3542164   3566551   3590278   3613381  
  5230.000000   3635991   3658018   3679456   3700108   3719938  
  5220.000000   3738789   3756727   3773716   3789925   3805374  
  5210.000000   3820229   3834442   3848074   3860970   3873126  
  5200.000000   3884390   3894823   3904378   3913211   3921324  
  5190.000000   3928856   3935756   3942086   3947745   3952781  
  5180.000000   3957128   3960885   3964028   3966664   3968747  
  5170.000000   3970336   3971356   3971855   3971785   3971232  
  5160.000000   3970183   3968731   3966850   3964596   3961918  
  5150.000000   3958859   3955388   3951567   3947393   3942931  
  5140.000000   3938169   3933156   3927874   3922373   3916659  
  5130.000000   3910800   3904815   3898759   3892628   3886444  
  5120.000000   3880183   3873860   3867467   3861033   3854558  
  5110.000000   3848062   3841528   3834950   3828305   3821594  
  5100.000000   3814823   3808025   3801228   3794468   3787755  
  5090.000000   3781096   3774478   3767894   3761328   3754780  
  5080.000000   3748238   3741696   3735130   3728520   3721843  
  5070.000000   3715095   3708276   3701413   3694522   3687629  
  5060.000000   3680732   3673828   3666896   3659927   3652911  
  5050.000000   3645860   3638789   3631718   3624653   3617598  
  5040.000000   3610539   3603467   3596375   3589267   3582156  
  5030.000000   3575059   3567996   3560976   3554008   3547091  
  5020.000000   3540233   3533438   3526725   3520103   3513596  
  5010.000000   3507205   3500943   3494799   3488783   3482879  
  5000.000000   3477105   3471451   3465946   3460587   3455418  
  4990.000000   3450441   3445708   3441222   3437028   3433112  
  4980.000000   3429500   3426155   3423094   3420280   3417746  
  4970.000000   3415478   3413533   3411906   3410651   3409741  
  4960.000000   3409205   3408993   3409121   3409543   3410290  
  4950.000000   3411330   3412708   3414399   3416445   3418813  
  4940.000000   3421541   3424594   3428009   3431747   3435837  
  4930.000000   3440231   3444947   3449934   3455215   3460759  
  4920.000000   3466607   3472739   3479194   3485942   3492997  
  4910.000000   3500315   3507899   3515712   3523765   3532036  
  4900.000000   3540534   3549228   3558102   3567110   3576220  
  4890.000000   3585391   3594598   3603821   3613042   3622245  
  4880.000000   3631398   3640472   3649423   3658220   3666821  
  4870.000000   3675209   3683349   3691236   3698837   3706155  
  4860.000000   3713166   3719890   3726317   3732485   3738391  
  4850.000000   3744076   3749535   3754803   3759871   3764771  
  4840.000000   3769498   3774086   3778529   3782858   3787061  
  4830.000000   3791160   3795139   3799013   3802762   3806394  
  4820.000000   3809888   3813247   3816457   3819532   3822475  
  4810.000000   3825315   3828063   3830744   3833358   3835912  
  4800.000000   3838395   3840813   3843168   3845485   3847785  
  4790.000000   3850104   3852453   3854844   3857255   3859670  
  4780.000000   3862054   3864392   3866667   3868884   3871043  
  4770.000000   3873160   3875229   3877252   3879207   3881083  
  4760.000000   3882853   3884507   3886022   3887398   3888619  
  4750.000000   3889694   3890611   3891386   3892008   3892491  
  4740.000000   3892823   3893017   3893062   3892973   3892749  
  4730.000000   3892412   3891963   3891420   3890774   3890028  
  4720.000000   3889165   3888187   3887089   3885893   3884625  
  4710.000000   3883330   3882048   3880820   3879669   3878610  
  4700.000000   3877637   3876740   3875898   3875095   3874318  
  4690.000000   3873563   3872831   3872126   3871454   3870810  
  4680.000000   3870188   3869560   3868902   3868174   3867355  
  4670.000000   3866425   3865393   3864278   3863128   3861987  
  4660.000000   3860913   3859947   3859133   3858494   3858055  
  4650.000000   3857826   3857820   3858034   3858465   3859090  
  4640.000000   3859885   3860810   3861833   3862911   3864018  
  4630.000000   3865121   3866201   3867232   3868197   3869078  
  4620.000000   3869863   3870543   3871116   3871583   3871946  
  4610.000000   3872210   3872374   3872452   3872451   3872402  
  4600.000000   3872325   3872259   3872220   3872231   3872282  
  4590.000000   3872366   3872453   3872523   3872545   3872505  
  4580.000000   3872379   3872161   3871834   3871397   3870841  
  4570.000000   3870178   3869414   3868571   3867657   3866686  
  4560.000000   3865651   3864550   3863366   3862098   3860744  
  4550.000000   3859320   3857841   3856328   3854791   3853235  
  4540.000000   3851659   3850060   3848444   3846820   3845208  
  4530.000000   3843625   3842094   3840617   3839210   3837859  
  4520.000000   3836587   3835385   3834296   3833320   3832519  
  4510.000000   3831898   3831526   3831413   3831643   3832232  
  4500.000000   3833276   3834782   3836839   3839424   3842604  
  4490.000000   3846336   3850682   3855606   3861184   3867391  
  4480.000000   3874304   3881887   3890191   3899156   3908804  
  4470.000000   3919057   3929916   3941291   3953161   3965422  
  4460.000000   3978033   3990887   4003941   4017103   4030345  
  4450.000000   4043607   4056872   4070104   4083291   4096412  
  4440.000000   4109455   4122415   4135281   4148065   4160753  
  4430.000000   4173370   4185888   4198333   4210655   4222867  
  4420.000000   4234890   4246716   4258238   4269429   4280158  
  4410.000000   4290384   4299966   4308859   4316931   4324164  
  4400.000000   4330473   4335897   4340426   4344168   4347175  
  4390.000000   4349593   4351500   4353035   4354267   4355306  
  4380.000000   4356200   4357033   4357845   4358708   4359673  
  4370.000000   4360816   4362202   4363904   4365986   4368494  
  4360.000000   4371460   4374886   4378758   4383035   4387661  
  4350.000000   4392578   4397715   4403026   4408454   4413982  
  4340.000000   4419568   4425187   4430756   4436160   4441199  
  4330.000000   4445632   4449167   4451549   4452589   4452249  
  4320.000000   4450639   4448053   4444866   4441531   4438415  
  4310.000000   4435826   4433886   4432630   4431946   4431714  
  4300.000000   4431766   4431991   4432290   4432609   4432911  
  4290.000000   4433169   4433378   4433532   4433657   4433782  
  4280.000000   4433950   4434205   4434571   4435069   4435682  
  4270.000000   4436409   4437202   4438029   4438801   4439419  
  4260.000000   4439728   4439567   4438766   4437208   4434842  
  4250.000000   4431730   4428010   4423911   4419669   4415529  
  4240.000000   4411652   4408157   4405052   4402314   4399855  
  4230.000000   4397595   4395436   4393303   4391126   4388848  
  4220.000000   4386437   4383865   4381149   4378309   4375423  
  4210.000000   4372552   4369797   4367221   4364901   4362863  
  4200.000000   4361140   4359719   4358598   4357739   4357125  
  4190.000000   4356700   4356450   4356320   4356315   4356401  
  4180.000000   4356619   4356956   4357480   4358193   4359174  
  4170.000000   4360437   4362072   4364103   4366630   4369666  
  4160.000000   4373286   4377456   4382195   4387418   4393112  
  4150.000000   4399182   4405638   4412421   4419589   4427123  
  4140.000000   4435112   4443548   4452517   4461996   4472052  
  4130.000000   4482642   4493807   4505492   4517722   4530438  
  4120.000000   4543661   4557341   4571502   4586103   4601172  
  4110.000000   4616668   4632608   4648936   4665640   4682641  
  4100.000000   4699905   4717349   4734946   4752652   4770474  
  4090.000000   4788412   4806490   4824722   4843112   4861666  
  4080.000000   4880366   4899213   4918178   4937253   4956372  
  4070.000000   4975486   4994466   5013227   5031629   5049627  
  4060.000000   5067141   5084213   5100813   5117010   5132751  
  4050.000000   5148083   5162918   5177302   5191154   5204538  
  4040.000000   5217360   5229659   5241289   5252255   5262394  
  4030.000000   5271738   5280174   5287778   5294472   5300315  
  4020.000000   5305179   5309102   5312013   5313975   5314911  
  4010.000000   5314983   5314291   5312902   5310611   5307536  
  4000.000000   5304070  
##END= 
