##TITLE= Sample 007 By ssteindl date Dienstag, November 20 2018
##JCAMP-DX= 4.24
##DATA TYPE= INFRARED SPECTRUM
##ORIGIN= Exported PE Spectrum Data File
##OWNER= Sandra Steindl
##DATE= 18/11/20
##TIME= 16:59:17.00
##SPECTROMETER/DATA SYSTEM= PERKIN-ELMER Frontier FT-IR/NIR IR
##INSTRUMENT PARAMETERS=
  APODIZATION=stark
  DETECTOR=INGAAS
##RESOLUTION= 16.000000
##DELTAX= -2.000000
##XUNITS= 1/CM
##YUNITS= A
##XFACTOR= 1.00
##YFACTOR= 0.00000011920928955078
##FIRSTX= 10000.00
##LASTX= 4000.00
##NPOINTS= 3001
##FIRSTY= 0.230467
##MAXY= 0.598389
##MINY= 0.194016
##XYDATA= (X++(Y..Y))
 10000.000000   1933296   1930866   1929517   1930739   1934546  
  9990.000000   1939525   1943760   1945540   1943662   1937783  
  9980.000000   1928771   1918200   1907799   1898735   1891487  
  9970.000000   1885748   1880748   1875675   1870072   1864081  
  9960.000000   1858401   1854148   1852408   1853978   1858979  
  9950.000000   1866787   1876150   1885385   1892968   1897711  
  9940.000000   1899265   1897900   1894506   1890078   1885525  
  9930.000000   1881381   1877913   1875248   1873590   1873333  
  9920.000000   1874866   1878462   1883850   1890317   1896696  
  9910.000000   1901867   1905081   1906244   1905911   1904917  
  9900.000000   1904007   1903384   1902708   1901253   1898411  
  9890.000000   1894073   1888799   1883664   1879768   1877845  
  9880.000000   1877913   1879429   1881515   1883453   1884896  
  9870.000000   1885964   1886966   1888140   1889394   1890369  
  9860.000000   1890635   1890025   1888740   1887322   1886285  
  9850.000000   1885856   1885700   1885076   1883125   1879323  
  9840.000000   1873787   1867210   1860597   1854685   1849640  
  9830.000000   1844916   1839621   1832987   1824921   1816161  
  9820.000000   1808167   1802552   1800557   1802564   1808027  
  9810.000000   1815679   1823977   1831548   1837555   1841744  
  9800.000000   1844454   1846287   1848022   1850259   1853397  
  9790.000000   1857407   1861880   1866036   1868949   1869856  
  9780.000000   1868452   1865187   1861151   1857897   1856766  
  9770.000000   1858485   1862717   1868222   1873226   1876108  
  9760.000000   1875950   1872849   1867758   1862072   1857012  
  9750.000000   1853256   1850786   1849124   1847692   1846140  
  9740.000000   1844484   1842979   1841872   1841178   1840621  
  9730.000000   1839781   1838325   1836209   1833712   1831295  
  9720.000000   1829373   1828118   1827437   1827073   1826873  
  9710.000000   1826895   1827466   1828891   1831200   1833885  
  9700.000000   1835939   1836207   1833864   1828921   1822373  
  9690.000000   1816006   1811791   1811201   1814610   1821128  
  9680.000000   1828841   1835451   1839025   1838563   1834245  
  9670.000000   1827224   1819163   1811687   1805930   1802358  
  9660.000000   1800824   1800802   1801673   1802931   1804242  
  9650.000000   1805444   1806393   1806964   1806977   1806284  
  9640.000000   1804857   1802789   1800376   1797934   1795793  
  9630.000000   1794109   1792873   1791935   1791095   1790254  
  9620.000000   1789440   1788842   1788696   1789181   1790320  
  9610.000000   1791915   1793616   1794979   1795660   1795462  
  9600.000000   1794449   1792864   1791079   1789471   1788347  
  9590.000000   1787914   1788260   1789381   1791174   1793457  
  9580.000000   1795956   1798350   1800300   1801533   1801908  
  9570.000000   1801458   1800385   1798980   1797533   1796234  
  9560.000000   1795140   1794215   1793365   1792548   1791731  
  9550.000000   1790967   1790265   1789646   1789070   1788500  
  9540.000000   1787922   1787345   1786817   1786324   1785754  
  9530.000000   1784833   1783184   1780470   1776588   1771843  
  9520.000000   1766943   1762869   1760529   1760479   1762645  
  9510.000000   1766368   1770546   1774013   1775870   1775720  
  9500.000000   1773737   1770490   1766724   1763044   1759785  
  9490.000000   1756945   1754334   1751719   1749013   1746301  
  9480.000000   1743834   1741883   1740664   1740220   1740452  
  9470.000000   1741084   1741784   1742168   1741966   1741060  
  9460.000000   1739603   1738009   1736907   1736988   1738818  
  9450.000000   1742658   1748340   1755264   1762492   1768961  
  9440.000000   1773726   1776207   1776323   1774481   1771429  
  9430.000000   1768026   1765001   1762809   1761546   1761012  
  9420.000000   1760794   1760456   1759640   1758208   1756201  
  9410.000000   1753838   1751374   1749052   1747011   1745294  
  9400.000000   1743864   1742663   1741673   1740956   1740645  
  9390.000000   1740895   1741782   1743230   1744994   1746686  
  9380.000000   1747898   1748268   1747613   1745919   1743383  
  9370.000000   1740324   1737144   1734235   1731934   1730481  
  9360.000000   1729986   1730428   1731615   1733223   1734808  
  9350.000000   1735944   1736298   1735768   1734497   1732851  
  9340.000000   1731282   1730186   1729769   1729970   1730510  
  9330.000000   1730985   1731040   1730465   1729232   1727461  
  9320.000000   1725290   1722860   1720246   1717557   1714956  
  9310.000000   1712702   1711095   1710368   1710561   1711419  
  9300.000000   1712403   1712805   1712012   1709711   1706092  
  9290.000000   1701731   1697470   1694071   1692028   1691395  
  9280.000000   1691824   1692777   1693756   1694575   1695352  
  9270.000000   1696456   1698236   1700874   1704238   1707883  
  9260.000000   1711181   1713469   1714299   1713451   1711007  
  9250.000000   1707202   1702414   1697073   1691660   1686697  
  9240.000000   1682668   1679982   1678796   1679017   1680226  
  9230.000000   1681868   1683371   1684370   1684801   1684847  
  9220.000000   1684829   1684941   1685172   1685201   1684621  
  9210.000000   1683089   1680622   1677619   1674808   1672997  
  9200.000000   1672768   1674269   1677103   1680525   1683677  
  9190.000000   1685910   1686958   1686962   1686364   1685634  
  9180.000000   1685088   1684754   1684472   1683962   1683033  
  9170.000000   1681643   1679970   1678324   1677016   1676302  
  9160.000000   1676270   1676924   1678149   1679811   1681767  
  9150.000000   1683876   1686007   1687984   1689607   1690659  
  9140.000000   1690961   1690413   1689011   1686911   1684403  
  9130.000000   1681920   1679911   1678797   1678828   1680038  
  9120.000000   1682157   1684622   1686696   1687640   1686952  
  9110.000000   1684424   1680220   1674845   1669077   1663773  
  9100.000000   1659647   1657208   1656691   1658093   1661131  
  9090.000000   1665347   1670141   1674867   1678874   1681616  
  9080.000000   1682751   1682186   1680106   1676866   1672984  
  9070.000000   1668988   1665408   1662619   1660836   1660078  
  9060.000000   1660182   1660827   1661540   1661858   1661445  
  9050.000000   1660226   1658409   1656463   1654996   1654539  
  9040.000000   1655362   1657368   1660170   1663200   1665941  
  9030.000000   1668063   1669517   1670447   1671052   1671464  
  9020.000000   1671697   1671667   1671299   1670639   1669904  
  9010.000000   1669412   1669414   1670009   1671041   1672198  
  9000.000000   1673108   1673533   1673472   1673125   1672768  
  8990.000000   1672561   1672452   1672171   1671357   1669783  
  8980.000000   1667527   1665017   1662905   1661861   1662309  
  8970.000000   1664268   1667303   1670704   1673698   1675691  
  8960.000000   1676392   1675850   1674403   1672511   1670647  
  8950.000000   1669159   1668270   1668012   1668243   1668666  
  8940.000000   1668894   1668585   1667551   1665901   1664032  
  8930.000000   1662573   1662157   1663194   1665665   1669066  
  8920.000000   1672546   1675179   1676298   1675716   1673791  
  8910.000000   1671275   1669035   1667742   1667651   1668549  
  8900.000000   1669887   1671024   1671461   1670999   1669735  
  8890.000000   1668007   1666216   1664724   1663734   1663292  
  8880.000000   1663312   1663607   1663971   1664171   1664028  
  8870.000000   1663409   1662288   1660761   1659043   1657438  
  8860.000000   1656249   1655719   1655962   1656941   1658491  
  8850.000000   1660373   1662353   1664223   1665843   1667088  
  8840.000000   1667895   1668185   1667921   1667073   1665699  
  8830.000000   1663942   1662052   1660366   1659242   1659026  
  8820.000000   1659930   1662021   1665119   1668858   1672710  
  8810.000000   1676115   1678605   1679883   1679915   1678864  
  8800.000000   1677079   1674925   1672743   1670750   1669068  
  8790.000000   1667753   1666853   1666462   1666696   1667675  
  8780.000000   1669421   1671845   1674713   1677710   1680495  
  8770.000000   1682795   1684460   1685488   1686021   1686277  
  8760.000000   1686504   1686910   1687628   1688676   1689951  
  8750.000000   1691244   1692277   1692776   1692537   1691506  
  8740.000000   1689811   1687747   1685697   1684029   1682991  
  8730.000000   1682673   1682996   1683788   1684836   1685996  
  8720.000000   1687200   1688476   1689894   1691501   1693302  
  8710.000000   1695207   1697073   1698694   1699867   1700413  
  8700.000000   1700237   1699370   1698006   1696503   1695325  
  8690.000000   1694916   1695566   1697277   1699720   1702289  
  8680.000000   1704266   1705044   1704347   1702346   1699633  
  8670.000000   1697043   1695384   1695197   1696601   1699303  
  8660.000000   1702718   1706177   1709123   1711237   1712479  
  8650.000000   1713009   1713089   1712951   1712762   1712585  
  8640.000000   1712447   1712334   1712269   1712274   1712412  
  8630.000000   1712737   1713304   1714139   1715231   1716525  
  8620.000000   1717931   1719338   1720665   1721887   1723083  
  8610.000000   1724410   1726078   1728245   1730965   1734115  
  8600.000000   1737436   1740587   1743276   1745347   1746833  
  8590.000000   1747934   1748908   1749993   1751308   1752853  
  8580.000000   1754531   1756227   1757858   1759405   1760867  
  8570.000000   1762233   1763410   1764270   1764663   1764535  
  8560.000000   1763952   1763141   1762407   1762058   1762271  
  8550.000000   1763059   1764239   1765527   1766608   1767259  
  8540.000000   1767387   1767035   1766336   1765457   1764564  
  8530.000000   1763780   1763201   1762865   1762777   1762891  
  8520.000000   1763126   1763383   1763588   1763731   1763887  
  8510.000000   1764203   1764834   1765886   1767353   1769092  
  8500.000000   1770878   1772451   1773656   1774436   1774888  
  8490.000000   1775162   1775426   1775756   1776139   1776498  
  8480.000000   1776779   1777023   1777377   1778097   1779443  
  8470.000000   1781600   1784554   1788100   1791873   1795440  
  8460.000000   1798411   1800510   1801640   1801862   1801364  
  8450.000000   1800413   1799303   1798327   1797735   1797708  
  8440.000000   1798318   1799524   1801143   1802909   1804490  
  8430.000000   1805610   1806088   1805910   1805213   1804253  
  8420.000000   1803344   1802754   1802649   1803055   1803876  
  8410.000000   1804941   1806057   1807083   1807947   1808670  
  8400.000000   1809306   1809934   1810591   1811278   1811939  
  8390.000000   1812503   1812912   1813145   1813211   1813139  
  8380.000000   1812938   1812598   1812072   1811317   1810318  
  8370.000000   1809117   1807811   1806531   1805372   1804377  
  8360.000000   1803488   1802608   1801636   1800549   1799429  
  8350.000000   1798449   1797800   1797607   1797851   1798345  
  8340.000000   1798795   1798897   1798470   1797512   1796218  
  8330.000000   1794887   1793820   1793199   1793028   1793156  
  8320.000000   1793358   1793437   1793311   1793019   1792691  
  8310.000000   1792461   1792392   1792444   1792491   1792383  
  8300.000000   1792015   1791378   1790570   1789759   1789122  
  8290.000000   1788797   1788837   1789222   1789860   1790623  
  8280.000000   1791347   1791873   1792052   1791783   1791034  
  8270.000000   1789864   1788421   1786915   1785552   1784468  
  8260.000000   1783676   1783067   1782456   1781657   1780554  
  8250.000000   1779155   1777580   1776024   1774660   1773595  
  8240.000000   1772819   1772241   1771738   1771215   1770648  
  8230.000000   1770078   1769584   1769216   1768960   1768719  
  8220.000000   1768345   1767690   1766664   1765272   1763614  
  8210.000000   1761862   1760204   1758796   1757719   1756977  
  8200.000000   1756495   1756160   1755834   1755394   1754731  
  8190.000000   1753785   1752533   1751012   1749313   1747571  
  8180.000000   1745940   1744556   1743501   1742778   1742295  
  8170.000000   1741899   1741396   1740633   1739525   1738103  
  8160.000000   1736484   1734831   1733290   1731929   1730721  
  8150.000000   1729535   1728204   1726572   1724571   1722251  
  8140.000000   1719766   1717339   1715188   1713487   1712314  
  8130.000000   1711667   1711468   1711600   1711927   1712297  
  8120.000000   1712558   1712538   1712093   1711107   1709564  
  8110.000000   1707544   1705247   1702926   1700845   1699197  
  8100.000000   1698065   1697416   1697123   1697029   1696995  
  8090.000000   1696937   1696827   1696662   1696433   1696091  
  8080.000000   1695566   1694777   1693696   1692360   1690896  
  8070.000000   1689489   1688337   1687599   1687341   1687532  
  8060.000000   1688023   1688609   1689050   1689150   1688788  
  8050.000000   1687951   1686733   1685298   1683837   1682502  
  8040.000000   1681371   1680422   1679564   1678675   1677668  
  8030.000000   1676537   1675358   1674281   1673451   1672974  
  8020.000000   1672857   1673026   1673349   1673685   1673928  
  8010.000000   1674012   1673910   1673591   1673018   1672139  
  8000.000000   1670930   1669425   1667750   1666098   1664691  
  7990.000000   1663699   1663177   1663049   1663119   1663162  
  7980.000000   1662991   1662531   1661832   1661031   1660294  
  7970.000000   1659727   1659365   1659143   1658969   1658743  
  7960.000000   1658420   1657999   1657522   1657047   1656622  
  7950.000000   1656296   1656111   1656122   1656387   1656940  
  7940.000000   1657766   1658769   1659790   1660622   1661084  
  7930.000000   1661062   1660559   1659689   1658646   1657645  
  7920.000000   1656876   1656460   1656436   1656776   1657390  
  7910.000000   1658163   1658959   1659652   1660135   1660345  
  7900.000000   1660275   1659969   1659509   1658980   1658444  
  7890.000000   1657920   1657400   1656874   1656366   1655955  
  7880.000000   1655758   1655889   1656396   1657222   1658192  
  7870.000000   1659060   1659591   1659644   1659236   1658534  
  7860.000000   1657803   1657313   1657244   1657630   1658366  
  7850.000000   1659251   1660070   1660664   1660962   1660984  
  7840.000000   1660797   1660486   1660113   1659725   1659351  
  7830.000000   1659032   1658815   1658755   1658879   1659179  
  7820.000000   1659581   1659977   1660237   1660253   1659964  
  7810.000000   1659368   1658515   1657480   1656347   1655179  
  7800.000000   1654026   1652924   1651908   1651030   1650353  
  7790.000000   1649944   1649844   1650061   1650534   1651158  
  7780.000000   1651790   1652296   1652582   1652617   1652443  
  7770.000000   1652139   1651790   1651442   1651088   1650662  
  7760.000000   1650084   1649296   1648305   1647189   1646081  
  7750.000000   1645120   1644394   1643924   1643642   1643448  
  7740.000000   1643246   1643000   1642745   1642569   1642565  
  7730.000000   1642773   1643155   1643589   1643908   1643958  
  7720.000000   1643656   1643007   1642113   1641121   1640184  
  7710.000000   1639405   1638820   1638394   1638042   1637671  
  7700.000000   1637200   1636600   1635895   1635169   1634537  
  7690.000000   1634125   1634017   1634232   1634698   1635261  
  7680.000000   1635732   1635932   1635767   1635245   1634483  
  7670.000000   1633659   1632945   1632448   1632179   1632060  
  7660.000000   1631970   1631797   1631495   1631086   1630648  
  7650.000000   1630263   1629980   1629798   1629675   1629564  
  7640.000000   1629451   1629365   1629372   1629536   1629875  
  7630.000000   1630347   1630852   1631276   1631540   1631640  
  7620.000000   1631644   1631668   1631815   1632132   1632583  
  7610.000000   1633052   1633395   1633482   1633249   1632709  
  7600.000000   1631941   1631054   1630151   1629315   1628595  
  7590.000000   1628033   1627662   1627523   1627647   1628041  
  7580.000000   1628665   1629429   1630209   1630872   1631321  
  7570.000000   1631512   1631475   1631286   1631052   1630859  
  7560.000000   1630762   1630769   1630865   1631022   1631225  
  7550.000000   1631471   1631765   1632110   1632483   1632847  
  7540.000000   1633158   1633391   1633562   1633730   1633990  
  7530.000000   1634426   1635082   1635925   1636854   1637720  
  7520.000000   1638389   1638783   1638923   1638911   1638908  
  7510.000000   1639058   1639448   1640070   1640847   1641661  
  7500.000000   1642421   1643086   1643696   1644334   1645090  
  7490.000000   1646013   1647095   1648275   1649475   1650628  
  7480.000000   1651725   1652795   1653909   1655121   1656458  
  7470.000000   1657888   1659345   1660745   1662028   1663172  
  7460.000000   1664208   1665194   1666209   1667314   1668540  
  7450.000000   1669887   1671328   1672822   1674327   1675806  
  7440.000000   1677235   1678605   1679919   1681195   1682451  
  7430.000000   1683710   1684986   1686283   1687593   1688904  
  7420.000000   1690205   1691491   1692770   1694053   1695352  
  7410.000000   1696667   1697989   1699292   1700550   1701744  
  7400.000000   1702875   1703964   1705058   1706211   1707489  
  7390.000000   1708942   1710606   1712486   1714564   1716793  
  7380.000000   1719109   1721434   1723697   1725839   1727826  
  7370.000000   1729642   1731288   1732778   1734134   1735384  
  7360.000000   1736567   1737731   1738927   1740200   1741568  
  7350.000000   1743021   1744510   1745971   1747337   1748576  
  7340.000000   1749698   1750759   1751835   1753000   1754294  
  7330.000000   1755718   1757236   1758795   1760344   1761853  
  7320.000000   1763310   1764723   1766100   1767449   1768774  
  7310.000000   1770088   1771406   1772748   1774121   1775511  
  7300.000000   1776871   1778137   1779249   1780185   1780983  
  7290.000000   1781736   1782564   1783572   1784799   1786218  
  7280.000000   1787732   1789224   1790597   1791807   1792875  
  7270.000000   1793860   1794823   1795794   1796763   1797686  
  7260.000000   1798530   1799286   1800002   1800753   1801628  
  7250.000000   1802684   1803941   1805370   1806928   1808571  
  7240.000000   1810283   1812060   1813910   1815809   1817723  
  7230.000000   1819589   1821378   1823083   1824774   1826541  
  7220.000000   1828494   1830696   1833160   1835824   1838603  
  7210.000000   1841403   1844182   1846940   1849733   1852613  
  7200.000000   1855620   1858730   1861883   1864978   1867938  
  7190.000000   1870714   1873324   1875832   1878345   1880977  
  7180.000000   1883821   1886924   1890278   1893810   1897411  
  7170.000000   1900931   1904243   1907241   1909905   1912276  
  7160.000000   1914484   1916681   1919029   1921637   1924570  
  7150.000000   1927832   1931403   1935242   1939322   1943617  
  7140.000000   1948106   1952744   1957473   1962196   1966835  
  7130.000000   1971309   1975594   1979693   1983672   1987603  
  7120.000000   1991592   1995710   2000030   2004574   2009344  
  7110.000000   2014296   2019371   2024482   2029562   2034564  
  7100.000000   2039499   2044420   2049429   2054622   2060073  
  7090.000000   2065785   2071711   2077749   2083801   2089787  
  7080.000000   2095687   2101514   2107306   2113085   2118845  
  7070.000000   2124543   2130128   2135561   2140847   2146024  
  7060.000000   2151161   2156318   2161535   2166816   2172141  
  7050.000000   2177489   2182851   2188241   2193687   2199211  
  7040.000000   2204812   2210466   2216123   2221740   2227281  
  7030.000000   2232738   2238120   2243445   2248729   2253983  
  7020.000000   2259206   2264403   2269571   2274707   2279783  
  7010.000000   2284755   2289558   2294137   2298458   2302552  
  7000.000000   2306491   2310397   2314377   2318511   2322799  
  6990.000000   2327194   2331592   2335901   2340042   2343991  
  6980.000000   2347739   2351299   2354666   2357838   2360802  
  6970.000000   2363582   2366221   2368807   2371416   2374112  
  6960.000000   2376896   2379736   2382550   2385279   2387881  
  6950.000000   2390374   2392795   2395196   2397596   2399986  
  6940.000000   2402315   2404536   2406615   2408560   2410403  
  6930.000000   2412203   2414006   2415847   2417727   2419641  
  6920.000000   2421568   2423493   2425388   2427217   2428930  
  6910.000000   2430476   2431816   2432949   2433916   2434795  
  6900.000000   2435671   2436615   2437651   2438768   2439923  
  6890.000000   2441082   2442229   2443385   2444574   2445820  
  6880.000000   2447105   2448384   2449592   2450682   2451640  
  6870.000000   2452505   2453342   2454218   2455167   2456177  
  6860.000000   2457199   2458172   2459051   2459825   2460512  
  6850.000000   2461148   2461758   2462353   2462926   2463478  
  6840.000000   2464027   2464623   2465326   2466184   2467200  
  6830.000000   2468324   2469459   2470496   2471342   2471958  
  6820.000000   2472358   2472600   2472754   2472886   2473032  
  6810.000000   2473210   2473417   2473656   2473924   2474216  
  6800.000000   2474511   2474782   2474985   2475093   2475096  
  6790.000000   2475016   2474896   2474785   2474718   2474703  
  6780.000000   2474719   2474734   2474718   2474662   2474576  
  6770.000000   2474483   2474408   2474366   2474360   2474386  
  6760.000000   2474444   2474542   2474693   2474904   2475176  
  6750.000000   2475486   2475804   2476094   2476336   2476523  
  6740.000000   2476672   2476802   2476935   2477082   2477248  
  6730.000000   2477433   2477639   2477872   2478137   2478432  
  6720.000000   2478746   2479059   2479350   2479606   2479823  
  6710.000000   2480007   2480165   2480292   2480375   2480398  
  6700.000000   2480356   2480265   2480165   2480109   2480135  
  6690.000000   2480255   2480430   2480601   2480697   2480684  
  6680.000000   2480564   2480390   2480225   2480119   2480067  
  6670.000000   2480014   2479865   2479526   2478942   2478123  
  6660.000000   2477128   2476061   2475009   2474047   2473196  
  6650.000000   2472463   2471828   2471286   2470824   2470431  
  6640.000000   2470068   2469679   2469187   2468521   2467641  
  6630.000000   2466547   2465284   2463921   2462524   2461142  
  6620.000000   2459789   2458467   2457166   2455898   2454678  
  6610.000000   2453543   2452506   2451569   2450691   2449819  
  6600.000000   2448885   2447842   2446666   2445362   2443955  
  6590.000000   2442476   2440953   2439408   2437851   2436294  
  6580.000000   2434742   2433205   2431689   2430207   2428768  
  6570.000000   2427384   2426062   2424806   2423602   2422420  
  6560.000000   2421216   2419934   2418537   2417009   2415374  
  6550.000000   2413693   2412048   2410520   2409166   2408005  
  6540.000000   2407019   2406156   2405350   2404536   2403656  
  6530.000000   2402671   2401560   2400321   2398973   2397554  
  6520.000000   2396117   2394712   2393383   2392149   2391002  
  6510.000000   2389918   2388861   2387806   2386742   2385674  
  6500.000000   2384609   2383549   2382477   2381360   2380163  
  6490.000000   2378861   2377455   2375969   2374444   2372926  
  6480.000000   2371445   2370020   2368651   2367341   2366094  
  6470.000000   2364921   2363828   2362804   2361819   2360821  
  6460.000000   2359756   2358583   2357296   2355923   2354521  
  6450.000000   2353148   2351853   2350651   2349536   2348481  
  6440.000000   2347464   2346470   2345503   2344568   2343674  
  6430.000000   2342816   2341992   2341187   2340407   2339660  
  6420.000000   2338972   2338360   2337842   2337416   2337073  
  6410.000000   2336798   2336588   2336443   2336373   2336380  
  6400.000000   2336454   2336560   2336655   2336692   2336640  
  6390.000000   2336492   2336268   2336005   2335747   2335526  
  6380.000000   2335357   2335235   2335135   2335029   2334883  
  6370.000000   2334671   2334374   2333990   2333529   2333022  
  6360.000000   2332509   2332037   2331644   2331353   2331154  
  6350.000000   2331018   2330892   2330725   2330463   2330079  
  6340.000000   2329562   2328925   2328196   2327415   2326620  
  6330.000000   2325846   2325113   2324424   2323760   2323090  
  6320.000000   2322374   2321591   2320733   2319830   2318919  
  6310.000000   2318048   2317239   2316487   2315752   2314974  
  6300.000000   2314098   2313093   2311962   2310743   2309486  
  6290.000000   2308240   2307030   2305868   2304742   2303645  
  6280.000000   2302574   2301536   2300534   2299566   2298604  
  6270.000000   2297614   2296550   2295382   2294102   2292722  
  6260.000000   2291273   2289788   2288288   2286784   2285273  
  6250.000000   2283759   2282250   2280768   2279336   2277975  
  6240.000000   2276685   2275455   2274260   2273077   2271888  
  6230.000000   2270687   2269473   2268245   2266998   2265721  
  6220.000000   2264408   2263059   2261690   2260325   2258990  
  6210.000000   2257701   2256463   2255264   2254091   2252938  
  6200.000000   2251811   2250723   2249690   2248714   2247782  
  6190.000000   2246861   2245922   2244942   2243923   2242890  
  6180.000000   2241878   2240918   2240027   2239197   2238408  
  6170.000000   2237633   2236849   2236048   2235230   2234399  
  6160.000000   2233555   2232698   2231826   2230943   2230059  
  6150.000000   2229194   2228362   2227567   2226797   2226027  
  6140.000000   2225229   2224385   2223494   2222568   2221628  
  6130.000000   2220688   2219753   2218811   2217852   2216872  
  6120.000000   2215890   2214937   2214057   2213284   2212637  
  6110.000000   2212107   2211675   2211307   2210984   2210690  
  6100.000000   2210425   2210187   2209975   2209778   2209590  
  6090.000000   2209402   2209227   2209076   2208977   2208941  
  6080.000000   2208978   2209072   2209212   2209375   2209560  
  6070.000000   2209766   2210011   2210303   2210657   2211069  
  6060.000000   2211547   2212090   2212718   2213443   2214290  
  6050.000000   2215258   2216349   2217532   2218794   2220105  
  6040.000000   2221472   2222895   2224400   2225995   2227693  
  6030.000000   2229481   2231353   2233294   2235307   2237391  
  6020.000000   2239558   2241797   2244094   2246411   2248719  
  6010.000000   2250986   2253214   2255411   2257615   2259847  
  6000.000000   2262133   2264467   2266845   2269250   2271686  
  5990.000000   2274158   2276696   2279318   2282047   2284881  
  5980.000000   2287823   2290859   2293995   2297232   2300588  
  5970.000000   2304060   2307649   2311323   2315057   2318812  
  5960.000000   2322580   2326350   2330144   2333969   2337845  
  5950.000000   2341764   2345730   2349735   2353800   2357954  
  5940.000000   2362245   2366714   2371381   2376235   2381226  
  5930.000000   2386280   2391313   2396250   2401036   2405641  
  5920.000000   2410050   2414259   2418265   2422065   2425655  
  5910.000000   2429038   2432223   2435233   2438095   2440861  
  5900.000000   2443573   2446296   2449076   2451970   2454992  
  5890.000000   2458154   2461417   2464739   2468050   2471297  
  5880.000000   2474428   2477416   2480238   2482882   2485331  
  5870.000000   2487574   2489599   2491417   2493055   2494563  
  5860.000000   2496000   2497424   2498875   2500383   2501953  
  5850.000000   2503598   2505320   2507135   2509044   2511041  
  5840.000000   2513098   2515173   2517221   2519207   2521128  
  5830.000000   2523005   2524880   2526791   2528765   2530797  
  5820.000000   2532870   2534954   2537033   2539105   2541183  
  5810.000000   2543283   2545408   2547549   2549675   2551773  
  5800.000000   2553826   2555869   2557925   2560053   2562253  
  5790.000000   2564524   2566786   2568957   2570905   2572530  
  5780.000000   2573716   2574399   2574514   2574045   2572985  
  5770.000000   2571389   2569326   2566927   2564321   2561659  
  5760.000000   2559046   2556574   2554270   2552155   2550208  
  5750.000000   2548429   2546794   2545296   2543905   2542591  
  5740.000000   2541312   2540029   2538716   2537363   2535984  
  5730.000000   2534589   2533201   2531821   2530454   2529090  
  5720.000000   2527735   2526393   2525085   2523820   2522609  
  5710.000000   2521445   2520319   2519217   2518137   2517086  
  5700.000000   2516078   2515124   2514229   2513389   2512590  
  5690.000000   2511830   2511110   2510450   2509855   2509330  
  5680.000000   2508839   2508332   2507728   2506959   2505964  
  5670.000000   2504720   2503220   2501481   2499515   2497338  
  5660.000000   2494959   2492404   2489710   2486942   2484171  
  5650.000000   2481470   2478881   2476421   2474075   2471821  
  5640.000000   2469636   2467518   2465479   2463537   2461706  
  5630.000000   2459977   2458332   2456739   2455181   2453645  
  5620.000000   2452148   2450700   2449319   2448000   2446732  
  5610.000000   2445489   2444258   2443031   2441823   2440647  
  5600.000000   2439523   2438451   2437429   2436443   2435485  
  5590.000000   2434556   2433666   2432827   2432045   2431315  
  5580.000000   2430619   2429936   2429249   2428551   2427839  
  5570.000000   2427115   2426370   2425586   2424735   2423796  
  5560.000000   2422759   2421635   2420456   2419260   2418082  
  5550.000000   2416943   2415848   2414788   2413753   2412738  
  5540.000000   2411744   2410773   2409825   2408891   2407956  
  5530.000000   2407010   2406046   2405074   2404112   2403180  
  5520.000000   2402284   2401421   2400568   2399700   2398794  
  5510.000000   2397842   2396845   2395817   2394767   2393702  
  5500.000000   2392620   2391522   2390405   2389279   2388145  
  5490.000000   2387006   2385844   2384635   2383347   2381961  
  5480.000000   2380473   2378911   2377313   2375727   2374183  
  5470.000000   2372692   2371238   2369795   2368336   2366848  
  5460.000000   2365328   2363788   2362232   2360665   2359078  
  5450.000000   2357465   2355822   2354159   2352493   2350846  
  5440.000000   2349234   2347662   2346130   2344632   2343167  
  5430.000000   2341733   2340333   2338956   2337589   2336208  
  5420.000000   2334807   2333390   2332002   2330697   2329549  
  5410.000000   2328594   2327847   2327263   2326792   2326369  
  5400.000000   2325973   2325595   2325277   2325049   2324953  
  5390.000000   2324986   2325152   2325421   2325805   2326308  
  5380.000000   2326978   2327835   2328908   2330163   2331575  
  5370.000000   2333071   2334631   2336220   2337876   2339613  
  5360.000000   2341498   2343540   2345788   2348228   2350906  
  5350.000000   2353815   2357023   2360533   2364416   2368652  
  5340.000000   2373291   2378290   2383701   2389488   2395712  
  5330.000000   2402330   2409388   2416816   2424647   2432819  
  5320.000000   2441408   2450406   2459947   2470048   2480846  
  5310.000000   2492315   2504534   2517424   2531027   2545261  
  5300.000000   2560189   2575763   2592084   2609135   2627032  
  5290.000000   2645748   2665354   2685756   2706933   2728724  
  5280.000000   2751069   2773837   2797050   2820695   2844884  
  5270.000000   2869647   2895033   2920950   2947270   2973789  
  5260.000000   3000341   3026817   3053201   3079548   3105908  
  5250.000000   3132306   3158645   3184785   3210483   3235588  
  5240.000000   3259943   3283586   3306541   3328987   3350982  
  5230.000000   3372654   3393933   3414799   3435065   3454664  
  5220.000000   3473440   3491430   3508603   3525112   3540990  
  5210.000000   3556391   3571280   3585700   3599499   3612646  
  5200.000000   3624986   3636558   3647321   3657424   3666889  
  5190.000000   3675859   3684300   3692266   3699647   3706460  
  5180.000000   3712609   3718156   3723062   3727423   3731207  
  5170.000000   3734486   3737211   3739439   3741130   3742362  
  5160.000000   3743115   3743468   3743391   3742939   3742068  
  5150.000000   3740827   3739188   3737214   3734892   3732277  
  5140.000000   3729343   3726126   3722596   3718801   3714744  
  5130.000000   3710493   3706066   3701513   3696824   3692013  
  5120.000000   3687053   3681961   3676742   3671446   3666105  
  5110.000000   3660765   3655436   3650124   3644810   3639488  
  5100.000000   3634154   3628832   3623550   3618347   3613243  
  5090.000000   3608248   3603345   3598513   3593719   3588941  
  5080.000000   3584155   3579348   3574500   3569602   3564638  
  5070.000000   3559607   3554509   3549361   3544176   3538973  
  5060.000000   3533753   3528518   3523249   3517935   3512552  
  5050.000000   3507093   3501543   3495904   3490168   3484343  
  5040.000000   3478433   3472460   3466447   3460424   3454414  
  5030.000000   3448432   3442474   3436524   3430559   3424560  
  5020.000000   3418523   3412461   3406408   3400403   3394495  
  5010.000000   3388712   3383080   3377598   3372269   3367073  
  5000.000000   3362011   3357062   3352240   3347532   3342962  
  4990.000000   3338528   3334264   3330168   3326279   3322588  
  4980.000000   3319127   3315876   3312864   3310069   3307527  
  4970.000000   3305221   3303195   3301429   3299958   3298746  
  4960.000000   3297821   3297147   3296766   3296662   3296902  
  4950.000000   3297481   3298462   3299817   3301584   3303709  
  4940.000000   3306219   3309070   3312310   3315915   3319949  
  4930.000000   3324385   3329264   3334533   3340212   3346241  
  4920.000000   3352648   3359397   3366540   3374061   3382012  
  4910.000000   3390370   3399159   3408336   3417888   3427757  
  4900.000000   3437905   3448266   3458786   3469403   3480057  
  4890.000000   3490698   3501261   3511703   3521949   3531955  
  4880.000000   3541634   3550951   3559819   3568223   3576082  
  4870.000000   3583395   3590079   3596136   3601487   3606151  
  4860.000000   3610072   3613307   3615839   3617754   3619056  
  4850.000000   3619840   3620113   3619964   3619409   3618538  
  4840.000000   3617377   3616015   3614484   3612863   3611180  
  4830.000000   3609501   3607853   3606290   3604835   3603520  
  4820.000000   3602354   3601339   3600467   3599725   3599113  
  4810.000000   3598623   3598275   3598067   3598019   3598114  
  4800.000000   3598351   3598694   3599136   3599646   3600235  
  4790.000000   3600899   3601664   3602536   3603537   3604660  
  4780.000000   3605912   3607277   3608758   3610339   3612020  
  4770.000000   3613783   3615612   3617478   3619357   3621216  
  4760.000000   3623040   3624812   3626531   3628194   3629802  
  4750.000000   3631350   3632836   3634259   3635623   3636941  
  4740.000000   3638235   3639532   3640853   3642220   3643638  
  4730.000000   3645105   3646609   3648130   3649651   3651148  
  4720.000000   3652610   3654020   3655385   3656704   3658012  
  4710.000000   3659333   3660729   3662248   3663958   3665898  
  4700.000000   3668112   3670604   3673380   3676411   3679685  
  4690.000000   3683171   3686866   3690754   3694842   3699112  
  4680.000000   3703551   3708103   3712719   3717311   3721822  
  4670.000000   3726181   3730374   3734390   3738276   3742072  
  4660.000000   3745853   3749673   3753599   3757676   3761949  
  4650.000000   3766448   3771192   3776186   3781411   3786836  
  4640.000000   3792403   3798060   3803741   3809404   3815005  
  4630.000000   3820526   3825934   3831214   3836321   3841224  
  4620.000000   3845859   3850187   3854147   3857717   3860858  
  4610.000000   3863584   3865887   3867822   3869408   3870727  
  4600.000000   3871813   3872751   3873559   3874300   3874957  
  4590.000000   3875552   3876033   3876388   3876548   3876486  
  4580.000000   3876141   3875501   3874534   3873260   3871686  
  4570.000000   3869867   3867837   3865663   3863382   3861052  
  4560.000000   3858694   3856344   3854008   3851705   3849424  
  4550.000000   3847168   3844912   3842642   3840329   3837960  
  4540.000000   3835522   3833023   3830479   3827917   3825360  
  4530.000000   3822824   3820315   3817819   3815325   3812805  
  4520.000000   3810258   3807670   3805069   3802460   3799898  
  4510.000000   3797396   3795028   3792817   3790856   3789178  
  4500.000000   3787889   3787010   3786635   3786753   3787438  
  4490.000000   3788659   3790491   3792915   3796028   3799818  
  4480.000000   3804383   3809688   3815798   3822640   3830250  
  4470.000000   3838541   3847541   3857167   3867444   3878284  
  4460.000000   3889697   3901584   3913939   3926668   3939767  
  4450.000000   3953164   3966863   3980811   3995006   4009398  
  4440.000000   4023964   4038650   4053417   4068214   4082996  
  4430.000000   4097732   4112373   4126910   4141292   4155516  
  4420.000000   4169522   4183302   4196773   4209909   4222601  
  4410.000000   4234800   4246383   4257306   4267471   4276880  
  4400.000000   4285506   4293428   4300690   4307432   4313733  
  4390.000000   4319742   4325532   4331230   4336880   4342569  
  4380.000000   4348297   4354100   4359934   4365790   4371611  
  4370.000000   4377380   4383064   4388671   4394202   4399684  
  4360.000000   4405127   4410564   4415989   4421443   4426893  
  4350.000000   4432385   4437850   4443334   4448747   4454140  
  4340.000000   4459429   4464647   4469657   4474345   4478367  
  4330.000000   4481335   4482681   4481894   4478527   4472424  
  4320.000000   4463727   4452957   4440872   4428390   4416345  
  4310.000000   4405419   4395985   4388170   4381856   4376827  
  4300.000000   4372824   4369638   4367136   4365228   4363897  
  4290.000000   4363092   4362821   4363025   4363720   4364859  
  4280.000000   4366458   4368472   4370869   4373575   4376501  
  4270.000000   4379562   4382651   4385673   4388481   4390898  
  4260.000000   4392663   4393492   4393074   4391186   4387711  
  4250.000000   4382732   4376482   4369365   4361815   4354298  
  4240.000000   4347149   4340630   4334815   4329708   4325194  
  4230.000000   4321153   4317430   4313898   4310451   4307004  
  4220.000000   4303524   4299983   4296434   4292914   4289546  
  4210.000000   4286403   4283616   4281234   4279331   4277895  
  4200.000000   4276927   4276367   4276179   4276287   4276655  
  4190.000000   4277214   4277949   4278803   4279777   4280821  
  4180.000000   4281942   4283091   4284280   4285469   4286697  
  4170.000000   4287965   4289353   4290906   4292731   4294875  
  4160.000000   4297421   4300371   4303761   4307546   4311738  
  4150.000000   4316288   4321224   4326515   4332210   4338286  
  4140.000000   4344794   4351698   4359040   4366766   4374911  
  4130.000000   4383419   4392325   4401578   4411221   4421221  
  4120.000000   4431634   4442452   4453750   4465541   4477905  
  4110.000000   4490851   4504433   4518615   4533383   4548634  
  4100.000000   4564284   4580196   4596271   4612405   4628553  
  4090.000000   4644685   4660805   4676928   4693055   4709193  
  4080.000000   4725309   4741395   4757390   4773278   4788972  
  4070.000000   4804438   4819550   4834254   4848416   4862011  
  4060.000000   4874951   4887275   4898942   4910026   4920492  
  4050.000000   4930418   4939767   4948629   4956975   4964897  
  4040.000000   4972342   4979357   4985837   4991791   4997107  
  4030.000000   5001820   5005872   5009345   5012230   5014617  
  4020.000000   5016474   5017883   5018855   5019459   5019652  
  4010.000000   5019515   5019081   5018308   5016958   5015041  
  4000.000000   5012835  
##END= 
