##TITLE= Sample 031 By ssteindl date Dienstag, November 20 2018
##JCAMP-DX= 4.24
##DATA TYPE= INFRARED SPECTRUM
##ORIGIN= Exported PE Spectrum Data File
##OWNER= Sandra Steindl
##DATE= 18/11/20
##TIME= 17:29:34.00
##SPECTROMETER/DATA SYSTEM= PERKIN-ELMER Frontier FT-IR/NIR IR
##INSTRUMENT PARAMETERS=
  APODIZATION=stark
  DETECTOR=INGAAS
##RESOLUTION= 16.000000
##DELTAX= -2.000000
##XUNITS= 1/CM
##YUNITS= A
##XFACTOR= 1.00
##YFACTOR= 0.00000011920928955078
##FIRSTX= 10000.00
##LASTX= 4000.00
##NPOINTS= 3001
##FIRSTY= 0.219883
##MAXY= 0.630062
##MINY= 0.188309
##XYDATA= (X++(Y..Y))
 10000.000000   1844511   1836857   1829803   1824253   1820758  
  9990.000000   1819225   1819285   1820392   1821955   1823520  
  9980.000000   1825064   1826936   1829751   1834022   1839996  
  9970.000000   1847325   1855126   1862059   1866802   1868396  
  9960.000000   1866680   1862357   1856762   1851501   1847795  
  9950.000000   1846285   1846761   1848549   1850727   1852620  
  9940.000000   1853840   1854317   1853984   1852623   1849756  
  9930.000000   1844811   1837461   1827883   1816960   1806051  
  9920.000000   1796639   1789812   1785920   1784575   1784865  
  9910.000000   1785864   1786944   1787972   1789154   1790753  
  9900.000000   1792814   1795015   1796829   1797706   1797441  
  9890.000000   1796171   1794414   1792681   1791347   1790394  
  9880.000000   1789579   1788573   1787212   1785595   1783976  
  9870.000000   1782625   1781597   1780790   1779992   1779201  
  9860.000000   1778671   1778966   1780630   1783893   1788390  
  9850.000000   1793126   1796809   1798223   1796782   1792618  
  9840.000000   1786583   1779786   1773209   1767403   1762466  
  9830.000000   1758326   1754992   1752811   1752349   1754160  
  9820.000000   1758385   1764542   1771520   1777894   1782360  
  9810.000000   1784134   1783165   1780034   1775738   1771326  
  9800.000000   1767711   1765516   1765069   1766403   1769203  
  9790.000000   1772825   1776277   1778455   1778381   1775604  
  9780.000000   1770394   1763759   1757152   1751962   1749053  
  9770.000000   1748442   1749391   1750742   1751421   1750865  
  9760.000000   1749153   1746904   1744920   1743840   1743916  
  9750.000000   1744974   1746597   1748288   1749684   1750549  
  9740.000000   1750801   1750405   1749402   1747944   1746339  
  9730.000000   1745058   1744567   1745148   1746710   1748755  
  9720.000000   1750548   1751376   1750866   1749114   1746651  
  9710.000000   1744176   1742250   1741046   1740311   1739566  
  9700.000000   1738384   1736703   1734851   1733463   1733139  
  9690.000000   1734200   1736513   1739550   1742599   1744965  
  9680.000000   1746189   1746025   1744462   1741588   1737615  
  9670.000000   1732891   1727975   1723619   1720654   1719738  
  9660.000000   1721131   1724533   1729124   1733801   1737473  
  9650.000000   1739444   1739546   1738194   1736163   1734334  
  9640.000000   1733415   1733795   1735499   1738239   1741480  
  9630.000000   1744546   1746697   1747283   1745879   1742456  
  9620.000000   1737408   1731508   1725668   1720688   1716986  
  9610.000000   1714522   1712846   1711372   1709633   1707529  
  9600.000000   1705327   1703523   1702557   1702561   1703277  
  9590.000000   1704103   1704382   1703593   1701626   1698730  
  9580.000000   1695508   1692634   1690722   1690123   1690899  
  9570.000000   1692840   1695527   1698447   1701071   1703000  
  9560.000000   1704041   1704312   1704189   1704213   1704856  
  9550.000000   1706323   1708434   1710617   1712119   1712225  
  9540.000000   1710562   1707203   1702665   1697711   1693083  
  9530.000000   1689317   1686594   1684871   1683922   1683585  
  9520.000000   1683745   1684408   1685601   1687296   1689382  
  9510.000000   1691583   1693551   1694829   1694992   1693651  
  9500.000000   1690633   1686038   1680390   1674620   1669945  
  9490.000000   1667577   1668314   1672246   1678583   1685892  
  9480.000000   1692472   1696933   1698579   1697600   1694904  
  9470.000000   1691733   1689180   1687829   1687660   1688192  
  9460.000000   1688811   1689025   1688617   1687598   1686068  
  9450.000000   1684106   1681697   1678828   1675562   1672140  
  9440.000000   1668947   1666403   1664794   1664172   1664346  
  9430.000000   1665020   1665929   1666972   1668177   1669602  
  9420.000000   1671194   1672672   1673610   1673539   1672227  
  9410.000000   1669753   1666560   1663249   1660379   1658257  
  9400.000000   1656885   1656047   1655487   1655086   1654905  
  9390.000000   1655125   1655858   1657034   1658336   1659354  
  9380.000000   1659731   1659361   1658437   1657380   1656651  
  9370.000000   1656530   1657000   1657743   1658307   1658269  
  9360.000000   1657403   1655687   1653294   1650451   1647396  
  9350.000000   1644307   1641338   1638659   1636468   1634989  
  9340.000000   1634365   1634633   1635657   1637219   1639080  
  9330.000000   1641084   1643168   1645308   1647448   1649410  
  9320.000000   1650902   1651557   1651070   1649342   1646579  
  9310.000000   1643270   1640063   1637559   1636161   1635955  
  9300.000000   1636669   1637748   1638450   1638116   1636328  
  9290.000000   1633107   1628902   1624534   1620978   1619123  
  9280.000000   1619461   1621877   1625628   1629547   1632460  
  9270.000000   1633502   1632447   1629667   1626048   1622546  
  9260.000000   1619895   1618317   1617586   1617213   1616759  
  9250.000000   1616105   1615494   1615523   1616792   1619729  
  9240.000000   1624279   1629980   1636042   1641582   1645824  
  9230.000000   1648179   1648393   1646437   1642567   1637192  
  9220.000000   1630904   1624393   1618377   1613477   1610057  
  9210.000000   1608220   1607748   1608311   1609482   1610987  
  9200.000000   1612655   1614459   1616394   1618369   1620218  
  9190.000000   1621628   1622328   1622060   1620776   1618564  
  9180.000000   1615722   1612640   1609781   1607622   1606571  
  9170.000000   1606917   1608674   1611623   1615257   1618953  
  9160.000000   1622064   1624155   1625094   1625080   1624496  
  9150.000000   1623733   1623029   1622375   1621573   1620359  
  9140.000000   1618574   1616264   1613657   1611074   1608749  
  9130.000000   1606760   1604994   1603264   1601412   1599416  
  9120.000000   1597399   1595544   1594007   1592822   1591931  
  9110.000000   1591234   1590732   1590519   1590790   1591685  
  9100.000000   1593187   1595036   1596793   1598012   1598458  
  9090.000000   1598233   1597765   1597649   1598404   1600212  
  9080.000000   1602822   1605616   1607857   1608922   1608518  
  9070.000000   1606733   1603987   1600848   1597851   1595388  
  9060.000000   1593679   1592806   1592750   1593424   1594667  
  9050.000000   1596248   1597877   1599295   1600323   1600961  
  9040.000000   1601349   1601733   1602335   1603255   1604430  
  9030.000000   1605649   1606677   1607331   1607543   1607350  
  9020.000000   1606797   1605898   1604579   1602771   1600476  
  9010.000000   1597873   1595296   1593176   1591851   1591428  
  9000.000000   1591673   1592102   1592155   1591408   1589748  
  8990.000000   1587402   1584872   1582685   1581203   1580486  
  8980.000000   1580331   1580393   1580365   1580120   1579785  
  8970.000000   1579650   1580032   1581116   1582864   1584997  
  8960.000000   1587079   1588654   1589410   1589226   1588233  
  8950.000000   1586716   1585090   1583726   1582891   1582657  
  8940.000000   1582936   1583503   1584082   1584457   1584534  
  8930.000000   1584425   1584373   1584747   1585856   1587903  
  8920.000000   1590858   1594476   1598326   1601880   1604637  
  8910.000000   1606193   1606361   1605136   1602728   1599469  
  8900.000000   1595791   1592112   1588781   1586056   1584071  
  8890.000000   1582888   1582472   1582800   1583827   1585530  
  8880.000000   1587822   1590531   1593394   1596028   1598062  
  8870.000000   1599154   1599183   1598207   1596515   1594508  
  8860.000000   1592626   1591257   1590660   1590978   1592210  
  8850.000000   1594301   1597097   1600378   1603802   1606946  
  8840.000000   1609369   1610680   1610673   1609348   1606985  
  8830.000000   1604019   1600968   1598267   1596209   1594917  
  8820.000000   1594365   1594483   1595174   1596406   1598138  
  8810.000000   1600331   1602851   1605483   1607953   1609972  
  8800.000000   1611352   1611977   1611896   1611219   1610146  
  8790.000000   1608869   1607581   1606463   1605687   1605426  
  8780.000000   1605822   1606964   1608839   1611309   1614102  
  8770.000000   1616859   1619217   1620887   1621757   1621903  
  8760.000000   1621603   1621241   1621214   1621810   1623129  
  8750.000000   1625082   1627419   1629844   1632082   1633982  
  8740.000000   1635504   1636702   1637637   1638313   1638671  
  8730.000000   1638591   1637988   1636844   1635292   1633565  
  8720.000000   1631963   1630757   1630136   1630182   1630887  
  8710.000000   1632186   1633993   1636210   1638709   1641321  
  8700.000000   1643836   1646050   1647866   1649318   1650640  
  8690.000000   1652124   1654066   1656557   1659451   1662345  
  8680.000000   1664728   1666177   1666549   1666091   1665372  
  8670.000000   1665118   1665944   1668160   1671648   1675930  
  8660.000000   1680308   1684110   1686852   1688382   1688856  
  8650.000000   1688667   1688286   1688135   1688487   1689415  
  8640.000000   1690819   1692438   1693953   1695029   1695426  
  8630.000000   1695062   1694056   1692732   1691509   1690830  
  8620.000000   1691008   1692182   1694275   1697057   1700215  
  8610.000000   1703458   1706572   1709423   1711920   1713969  
  8600.000000   1715482   1716363   1716596   1716243   1715512  
  8590.000000   1714667   1713998   1713713   1713911   1714577  
  8580.000000   1715604   1716885   1718334   1719943   1721724  
  8570.000000   1723704   1725868   1728160   1730487   1732747  
  8560.000000   1734863   1736776   1738447   1739831   1740881  
  8550.000000   1741566   1741902   1741994   1742022   1742208  
  8540.000000   1742725   1743632   1744814   1746025   1746950  
  8530.000000   1747344   1747124   1746428   1745577   1744967  
  8520.000000   1744932   1745627   1746997   1748786   1750659  
  8510.000000   1752290   1753512   1754314   1754855   1755366  
  8500.000000   1756083   1757161   1758631   1760431   1762452  
  8490.000000   1764601   1766823   1769131   1771562   1774149  
  8480.000000   1776833   1779472   1781839   1783673   1784763  
  8470.000000   1784991   1784402   1783170   1781566   1779877  
  8460.000000   1778337   1777117   1776303   1775958   1776115  
  8450.000000   1776834   1778140   1780027   1782371   1784961  
  8440.000000   1787512   1789739   1791444   1792555   1793167  
  8430.000000   1793458   1793649   1793878   1794200   1794545  
  8420.000000   1794805   1794878   1794741   1794463   1794169  
  8410.000000   1794015   1794111   1794534   1795296   1796401  
  8400.000000   1797843   1799624   1801704   1803986   1806286  
  8390.000000   1808364   1809970   1810932   1811219   1810965  
  8380.000000   1810433   1809920   1809659   1809742   1810093  
  8370.000000   1810510   1810744   1810606   1810031   1809108  
  8360.000000   1808021   1807009   1806273   1805945   1806054  
  8350.000000   1806557   1807366   1808386   1809523   1810699  
  8340.000000   1811834   1812858   1813705   1814326   1814706  
  8330.000000   1814857   1814830   1814676   1814441   1814148  
  8320.000000   1813793   1813369   1812861   1812288   1811691  
  8310.000000   1811142   1810711   1810454   1810383   1810469  
  8300.000000   1810634   1810779   1810800   1810621   1810218  
  8290.000000   1809625   1808933   1808264   1807756   1807515  
  8280.000000   1807586   1807929   1808425   1808899   1809172  
  8270.000000   1809112   1808670   1807914   1807004   1806150  
  8260.000000   1805538   1805272   1805336   1805607   1805898  
  8250.000000   1806020   1805841   1805329   1804545   1803612  
  8240.000000   1802659   1801786   1801028   1800381   1799810  
  8230.000000   1799287   1798802   1798362   1797971   1797614  
  8220.000000   1797246   1796807   1796234   1795501   1794614  
  8210.000000   1793620   1792567   1791501   1790435   1789365  
  8200.000000   1788284   1787195   1786121   1785094   1784115  
  8190.000000   1783143   1782075   1780792   1779201   1777305  
  8180.000000   1775224   1773183   1771440   1770200   1769538  
  8170.000000   1769355   1769397   1769332   1768860   1767810  
  8160.000000   1766194   1764187   1762067   1760115   1758541  
  8150.000000   1757431   1756752   1756369   1756112   1755819  
  8140.000000   1755373   1754723   1753868   1752865   1751791  
  8130.000000   1750749   1749825   1749077   1748509   1748071  
  8120.000000   1747659   1747150   1746426   1745414   1744097  
  8110.000000   1742520   1740774   1738958   1737161   1735438  
  8100.000000   1733812   1732271   1730789   1729337   1727895  
  8090.000000   1726474   1725111   1723884   1722880   1722188  
  8080.000000   1721852   1721849   1722071   1722341   1722462  
  8070.000000   1722256   1721641   1720629   1719336   1717909  
  8060.000000   1716490   1715145   1713864   1712582   1711243  
  8050.000000   1709847   1708488   1707325   1706521   1706176  
  8040.000000   1706255   1706606   1706982   1707144   1706943  
  8030.000000   1706364   1705537   1704665   1703944   1703478  
  8020.000000   1703243   1703099   1702847   1702311   1701403  
  8010.000000   1700159   1698718   1697283   1696047   1695131  
  8000.000000   1694551   1694209   1693925   1693486   1692715  
  7990.000000   1691521   1689940   1688131   1686342   1684843  
  7980.000000   1683850   1683462   1683628   1684168   1684842  
  7970.000000   1685419   1685762   1685852   1685772   1685648  
  7960.000000   1685576   1685573   1685572   1685457   1685136  
  7950.000000   1684591   1683907   1683243   1682763   1682568  
  7940.000000   1682635   1682824   1682923   1682731   1682134  
  7930.000000   1681143   1679890   1678568   1677366   1676403  
  7920.000000   1675704   1675208   1674815   1674422   1673974  
  7910.000000   1673464   1672934   1672446   1672069   1671855  
  7900.000000   1671832   1672006   1672354   1672832   1673377  
  7890.000000   1673916   1674390   1674758   1675014   1675175  
  7880.000000   1675269   1675308   1675282   1675149   1674866  
  7870.000000   1674418   1673839   1673230   1672728   1672475  
  7860.000000   1672546   1672938   1673536   1674165   1674627  
  7850.000000   1674772   1674536   1673948   1673110   1672153  
  7840.000000   1671192   1670289   1669460   1668680   1667916  
  7830.000000   1667148   1666381   1665647   1664981   1664434  
  7820.000000   1664030   1663792   1663716   1663786   1663968  
  7810.000000   1664202   1664417   1664524   1664439   1664094  
  7800.000000   1663453   1662522   1661354   1660045   1658714  
  7790.000000   1657494   1656492   1655783   1655371   1655208  
  7780.000000   1655181   1655161   1655024   1654686   1654130  
  7770.000000   1653390   1652541   1651651   1650764   1649873  
  7760.000000   1648944   1647933   1646830   1645681   1644582  
  7750.000000   1643660   1643021   1642717   1642714   1642907  
  7740.000000   1643144   1643276   1643200   1642872   1642315  
  7730.000000   1641589   1640770   1639920   1639076   1638253  
  7720.000000   1637454   1636679   1635936   1635241   1634618  
  7710.000000   1634085   1633649   1633304   1633015   1632736  
  7700.000000   1632403   1631963   1631387   1630686   1629925  
  7690.000000   1629198   1628616   1628254   1628130   1628181  
  7680.000000   1628287   1628310   1628145   1627760   1627212  
  7670.000000   1626619   1626117   1625800   1625695   1625738  
  7660.000000   1625820   1625809   1625615   1625206   1624623  
  7650.000000   1623948   1623284   1622718   1622311   1622094  
  7640.000000   1622075   1622243   1622576   1623030   1623546  
  7630.000000   1624050   1624468   1624750   1624882   1624890  
  7620.000000   1624834   1624779   1624780   1624861   1625015  
  7610.000000   1625210   1625407   1625572   1625685   1625741  
  7600.000000   1625744   1625703   1625627   1625531   1625435  
  7590.000000   1625371   1625375   1625480   1625712   1626075  
  7580.000000   1626557   1627131   1627763   1628412   1629044  
  7570.000000   1629631   1630157   1630620   1631040   1631440  
  7560.000000   1631855   1632299   1632772   1633241   1633669  
  7550.000000   1634017   1634287   1634515   1634791   1635207  
  7540.000000   1635846   1636726   1637809   1638994   1640171  
  7530.000000   1641246   1642200   1643076   1643981   1645022  
  7520.000000   1646283   1647782   1649481   1651293   1653132  
  7510.000000   1654928   1656658   1658325   1659956   1661566  
  7500.000000   1663161   1664728   1666253   1667722   1669141  
  7490.000000   1670520   1671883   1673246   1674630   1676047  
  7480.000000   1677521   1679067   1680704   1682428   1684220  
  7470.000000   1686039   1687845   1689615   1691371   1693171  
  7460.000000   1695111   1697276   1699719   1702424   1705310  
  7450.000000   1708248   1711115   1713818   1716338   1718709  
  7440.000000   1721020   1723351   1725758   1728237   1730742  
  7430.000000   1733200   1735550   1737763   1739861   1741910  
  7420.000000   1743992   1746188   1748544   1751066   1753708  
  7410.000000   1756399   1759050   1761584   1763946   1766126  
  7400.000000   1768153   1770094   1772030   1774038   1776170  
  7390.000000   1778428   1780767   1783099   1785325   1787359  
  7380.000000   1789159   1790743   1792196   1793642   1795217  
  7370.000000   1797026   1799127   1801511   1804119   1806858  
  7360.000000   1809639   1812393   1815089   1817723   1820306  
  7350.000000   1822842   1825319   1827710   1829991   1832160  
  7340.000000   1834252   1836335   1838489   1840782   1843230  
  7330.000000   1845809   1848438   1851031   1853509   1855833  
  7320.000000   1858002   1860039   1861964   1863774   1865436  
  7310.000000   1866916   1868191   1869303   1870338   1871440  
  7300.000000   1872735   1874325   1876217   1878343   1880557  
  7290.000000   1882695   1884599   1886176   1887388   1888260  
  7280.000000   1888851   1889241   1889514   1889754   1890037  
  7270.000000   1890424   1890956   1891637   1892436   1893294  
  7260.000000   1894143   1894930   1895640   1896293   1896953  
  7250.000000   1897684   1898552   1899582   1900783   1902123  
  7240.000000   1903584   1905137   1906783   1908517   1910349  
  7230.000000   1912264   1914262   1916315   1918427   1920586  
  7220.000000   1922808   1925084   1927418   1929783   1932175  
  7210.000000   1934588   1937064   1939658   1942457   1945520  
  7200.000000   1948884   1952514   1956340   1960252   1964163  
  7190.000000   1967996   1971747   1975424   1979082   1982746  
  7180.000000   1986448   1990171   1993918   1997679   2001493  
  7170.000000   2005406   2009498   2013829   2018452   2023369  
  7160.000000   2028562   2033974   2039554   2045237   2050984  
  7150.000000   2056742   2062491   2068193   2073850   2079453  
  7140.000000   2085032   2090599   2096189   2101802   2107453  
  7130.000000   2113133   2118868   2124678   2130626   2136760  
  7120.000000   2143141   2149774   2156648   2163692   2170836  
  7110.000000   2177993   2185130   2192232   2199350   2206538  
  7100.000000   2213877   2221407   2229159   2237101   2245188  
  7090.000000   2253340   2261497   2269603   2277643   2285620  
  7080.000000   2293572   2301533   2309541   2317607   2325733  
  7070.000000   2333896   2342080   2350262   2358433   2366577  
  7060.000000   2374683   2382724   2390679   2398533   2406301  
  7050.000000   2414027   2421784   2429642   2437639   2445764  
  7040.000000   2453941   2462068   2470045   2477834   2485462  
  7030.000000   2493032   2500659   2508442   2516384   2524409  
  7020.000000   2532355   2540057   2547378   2554283   2560811  
  7010.000000   2567080   2573198   2579257   2585271   2591224  
  7000.000000   2597063   2602771   2608350   2613860   2619351  
  6990.000000   2624882   2630446   2636023   2641541   2646948  
  6980.000000   2652190   2657260   2662157   2666911   2671526  
  6970.000000   2676021   2680383   2684616   2688703   2692647  
  6960.000000   2696432   2700058   2703504   2706777   2709873  
  6950.000000   2712830   2715675   2718464   2721227   2723998  
  6940.000000   2726773   2729546   2732285   2734964   2737539  
  6930.000000   2739983   2742262   2744372   2746324   2748173  
  6920.000000   2749988   2751860   2753851   2755991   2758242  
  6910.000000   2760525   2762731   2764771   2766594   2768214  
  6900.000000   2769685   2771093   2772504   2773959   2775454  
  6890.000000   2776970   2778477   2779964   2781426   2782868  
  6880.000000   2784277   2785627   2786870   2787972   2788916  
  6870.000000   2789733   2790488   2791263   2792125   2793107  
  6860.000000   2794189   2795322   2796435   2797476   2798419  
  6850.000000   2799273   2800067   2800840   2801616   2802410  
  6840.000000   2803221   2804042   2804862   2805670   2806454  
  6830.000000   2807205   2807910   2808569   2809182   2809768  
  6820.000000   2810340   2810921   2811511   2812109   2812699  
  6810.000000   2813266   2813794   2814273   2814686   2815014  
  6800.000000   2815221   2815274   2815146   2814843   2814401  
  6790.000000   2813898   2813417   2813044   2812824   2812767  
  6780.000000   2812843   2813007   2813204   2813395   2813545  
  6770.000000   2813629   2813614   2813472   2813180   2812742  
  6760.000000   2812191   2811595   2811028   2810561   2810217  
  6750.000000   2809981   2809787   2809561   2809225   2808736  
  6740.000000   2808077   2807267   2806331   2805305   2804222  
  6730.000000   2803120   2802036   2801014   2800082   2799250  
  6720.000000   2798491   2797758   2796985   2796132   2795185  
  6710.000000   2794182   2793181   2792247   2791415   2790681  
  6700.000000   2789999   2789307   2788549   2787693   2786739  
  6690.000000   2785705   2784610   2783467   2782266   2781004  
  6680.000000   2779676   2778305   2776922   2775571   2774269  
  6670.000000   2773021   2771794   2770555   2769261   2767903  
  6660.000000   2766481   2765018   2763532   2762034   2760521  
  6650.000000   2758986   2757416   2755809   2754158   2752463  
  6640.000000   2750705   2748871   2746950   2744958   2742935  
  6630.000000   2740949   2739067   2737332   2735732   2734206  
  6620.000000   2732658   2730993   2729157   2727160   2725065  
  6610.000000   2722969   2720956   2719068   2717294   2715582  
  6600.000000   2713871   2712121   2710325   2708507   2706699  
  6590.000000   2704917   2703150   2701363   2699524   2697615  
  6580.000000   2695659   2693698   2691793   2689982   2688277  
  6570.000000   2686654   2685069   2683484   2681880   2680266  
  6560.000000   2678676   2677145   2675703   2674354   2673087  
  6550.000000   2671876   2670694   2669515   2668319   2667083  
  6540.000000   2665790   2664424   2662984   2661485   2659965  
  6530.000000   2658474   2657063   2655768   2654600   2653542  
  6520.000000   2652560   2651610   2650656   2649676   2648662  
  6510.000000   2647617   2646552   2645478   2644409   2643360  
  6500.000000   2642352   2641404   2640531   2639734   2638999  
  6490.000000   2638293   2637575   2636802   2635941   2634975  
  6480.000000   2633908   2632764   2631580   2630398   2629261  
  6470.000000   2628201   2627236   2626364   2625564   2624802  
  6460.000000   2624031   2623210   2622306   2621306   2620220  
  6450.000000   2619078   2617930   2616825   2615811   2614919  
  6440.000000   2614156   2613498   2612901   2612306   2611661  
  6430.000000   2610927   2610105   2609223   2608338   2607507  
  6420.000000   2606776   2606154   2605620   2605125   2604621  
  6410.000000   2604072   2603475   2602852   2602239   2601662  
  6400.000000   2601128   2600618   2600098   2599534   2598917  
  6390.000000   2598258   2597594   2596967   2596407   2595920  
  6380.000000   2595486   2595069   2594633   2594154   2593630  
  6370.000000   2593077   2592521   2591987   2591490   2591034  
  6360.000000   2590609   2590202   2589793   2589361   2588886  
  6350.000000   2588350   2587738   2587046   2586281   2585465  
  6340.000000   2584624   2583790   2582982   2582211   2581468  
  6330.000000   2580739   2579999   2579234   2578429   2577587  
  6320.000000   2576717   2575839   2574968   2574121   2573292  
  6310.000000   2572469   2571614   2570691   2569657   2568498  
  6300.000000   2567214   2565846   2564438   2563043   2561682  
  6290.000000   2560357   2559025   2557642   2556158   2554558  
  6280.000000   2552847   2551069   2549263   2547470   2545692  
  6270.000000   2543918   2542109   2540235   2538268   2536206  
  6260.000000   2534054   2531828   2529533   2527181   2524775  
  6250.000000   2522337   2519891   2517479   2515132   2512873  
  6240.000000   2510692   2508565   2506450   2504316   2502139  
  6230.000000   2499924   2497681   2495424   2493156   2490870  
  6220.000000   2488546   2486167   2483723   2481218   2478662  
  6210.000000   2476072   2473458   2470829   2468194   2465573  
  6200.000000   2462993   2460492   2458100   2455832   2453674  
  6190.000000   2451592   2449538   2447467   2445355   2443200  
  6180.000000   2441023   2438854   2436720   2434636   2432610  
  6170.000000   2430637   2428714   2426834   2424988   2423159  
  6160.000000   2421323   2419449   2417515   2415513   2413457  
  6150.000000   2411384   2409339   2407362   2405479   2403690  
  6140.000000   2401978   2400318   2398690   2397080   2395490  
  6130.000000   2393921   2392375   2390847   2389332   2387823  
  6120.000000   2386323   2384841   2383392   2381983   2380622  
  6110.000000   2379296   2377999   2376716   2375447   2374193  
  6100.000000   2372966   2371771   2370612   2369483   2368384  
  6090.000000   2367313   2366285   2365314   2364428   2363632  
  6080.000000   2362934   2362315   2361765   2361261   2360806  
  6070.000000   2360400   2360062   2359795   2359612   2359499  
  6060.000000   2359456   2359469   2359551   2359705   2359956  
  6050.000000   2360308   2360767   2361316   2361942   2362622  
  6040.000000   2363353   2364126   2364956   2365841   2366788  
  6030.000000   2367786   2368833   2369923   2371067   2372273  
  6020.000000   2373560   2374930   2376377   2377877   2379401  
  6010.000000   2380918   2382413   2383873   2385301   2386694  
  6000.000000   2388050   2389358   2390614   2391819   2392996  
  5990.000000   2394176   2395403   2396705   2398105   2399597  
  5980.000000   2401173   2402813   2404515   2406278   2408117  
  5970.000000   2410037   2412041   2414107   2416217   2418345  
  5960.000000   2420486   2422642   2424837   2427085   2429401  
  5950.000000   2431773   2434187   2436615   2439044   2441469  
  5940.000000   2443910   2446383   2448912   2451501   2454144  
  5930.000000   2456826   2459528   2462236   2464945   2467654  
  5920.000000   2470362   2473065   2475755   2478415   2481037  
  5910.000000   2483606   2486116   2488553   2490909   2493172  
  5900.000000   2495345   2497446   2499511   2501597   2503764  
  5890.000000   2506064   2508520   2511131   2513862   2516671  
  5880.000000   2519507   2522330   2525106   2527804   2530394  
  5870.000000   2532838   2535104   2537169   2539041   2540754  
  5860.000000   2542372   2543968   2545611   2547345   2549196  
  5850.000000   2551165   2553246   2555436   2557731   2560133  
  5840.000000   2562636   2565224   2567872   2570548   2573227  
  5830.000000   2575894   2578549   2581194   2583831   2586448  
  5820.000000   2589022   2591525   2593929   2596223   2598403  
  5810.000000   2600486   2602473   2604375   2606174   2607866  
  5800.000000   2609426   2610869   2612193   2613435   2614599  
  5790.000000   2615705   2616726   2617643   2618396   2618947  
  5780.000000   2619238   2619239   2618915   2618261   2617277  
  5770.000000   2616006   2614502   2612860   2611172   2609541  
  5760.000000   2608037   2606707   2605556   2604569   2603714  
  5750.000000   2602965   2602302   2601717   2601213   2600789  
  5740.000000   2600448   2600183   2599995   2599871   2599813  
  5730.000000   2599806   2599844   2599907   2599988   2600073  
  5720.000000   2600175   2600301   2600479   2600718   2601029  
  5710.000000   2601394   2601793   2602196   2602589   2602966  
  5700.000000   2603341   2603735   2604165   2604642   2605164  
  5690.000000   2605727   2606321   2606950   2607619   2608335  
  5680.000000   2609090   2609867   2610621   2611304   2611858  
  5670.000000   2612243   2612423   2612391   2612145   2611700  
  5660.000000   2611077   2610311   2609439   2608515   2607586  
  5650.000000   2606700   2605878   2605133   2604448   2603805  
  5640.000000   2603174   2602542   2601895   2601232   2600550  
  5630.000000   2599852   2599135   2598405   2597673   2596953  
  5620.000000   2596267   2595624   2595026   2594455   2593885  
  5610.000000   2593291   2592654   2591973   2591263   2590547  
  5600.000000   2589845   2589174   2588534   2587920   2587320  
  5590.000000   2586724   2586120   2585495   2584828   2584100  
  5580.000000   2583286   2582373   2581363   2580273   2579131  
  5570.000000   2577969   2576806   2575649   2574489   2573316  
  5560.000000   2572118   2570897   2569660   2568425   2567202  
  5550.000000   2565998   2564810   2563630   2562454   2561282  
  5540.000000   2560121   2558981   2557866   2556778   2555714  
  5530.000000   2554671   2553647   2552649   2551683   2550753  
  5520.000000   2549854   2548973   2548091   2547190   2546258  
  5510.000000   2545289   2544284   2543245   2542171   2541063  
  5500.000000   2539919   2538755   2537590   2536455   2535371  
  5490.000000   2534346   2533359   2532372   2531334   2530208  
  5480.000000   2528969   2527630   2526211   2524751   2523265  
  5470.000000   2521760   2520219   2518622   2516949   2515195  
  5460.000000   2513364   2511468   2509510   2507493   2505413  
  5450.000000   2503275   2501094   2498905   2496749   2494662  
  5440.000000   2492666   2490759   2488926   2487140   2485388  
  5430.000000   2483654   2481940   2480231   2478522   2476787  
  5420.000000   2475027   2473251   2471515   2469885   2468450  
  5410.000000   2467258   2466331   2465621   2465069   2464594  
  5400.000000   2464158   2463737   2463364   2463065   2462890  
  5390.000000   2462844   2462943   2463166   2463529   2464033  
  5380.000000   2464720   2465603   2466709   2468011   2469495  
  5370.000000   2471101   2472819   2474613   2476511   2478502  
  5360.000000   2480634   2482892   2485329   2487936   2490795  
  5350.000000   2493927   2497439   2501345   2505721   2510528  
  5340.000000   2515797   2521463   2527575   2534096   2541104  
  5330.000000   2548564   2556535   2564940   2573812   2583071  
  5320.000000   2592792   2602958   2613711   2625064   2637164  
  5310.000000   2649976   2663584   2677898   2692971   2708719  
  5300.000000   2725231   2742469   2760564   2779509   2799433  
  5290.000000   2820304   2842190   2864980   2888645   2913010  
  5280.000000   2938019   2963550   2989640   3016294   3043635  
  5270.000000   3071689   3100478   3129866   3159661   3189601  
  5260.000000   3219462   3249113   3278518   3307746   3336846  
  5250.000000   3365859   3394666   3423127   3450960   3478015  
  5240.000000   3504102   3529271   3553525   3577060   3599910  
  5230.000000   3622219   3643892   3664927   3685117   3704421  
  5220.000000   3722670   3739930   3756157   3771533   3786087  
  5210.000000   3800009   3813269   3825951   3837913   3849154  
  5200.000000   3859509   3869025   3877628   3885453   3892486  
  5190.000000   3898863   3904542   3909606   3913980   3917742  
  5180.000000   3920842   3923386   3925345   3926806   3927700  
  5170.000000   3928066   3927815   3926996   3925574   3923655  
  5160.000000   3921253   3918481   3915329   3911854   3908003  
  5150.000000   3903807   3899225   3894316   3889073   3883570  
  5140.000000   3877801   3871823   3865624   3859252   3852709  
  5130.000000   3846051   3839286   3832452   3825532   3818532  
  5120.000000   3811423   3804219   3796920   3789568   3782188  
  5110.000000   3774816   3767450   3760090   3752702   3745272  
  5100.000000   3737784   3730252   3722690   3715129   3707582  
  5090.000000   3700059   3692555   3685066   3677586   3670123  
  5080.000000   3662681   3655270   3647884   3640517   3633147  
  5070.000000   3625762   3618348   3610912   3603461   3596012  
  5060.000000   3588574   3581152   3573738   3566326   3558905  
  5050.000000   3551476   3544044   3536618   3529207   3521814  
  5040.000000   3514437   3507070   3499713   3492368   3485050  
  5030.000000   3477772   3470558   3463420   3456373   3449417  
  5020.000000   3442562   3435805   3429162   3422632   3416236  
  5010.000000   3409968   3403840   3397836   3391966   3386212  
  5000.000000   3380602   3375134   3369855   3364772   3359936  
  4990.000000   3355345   3351039   3346999   3343255   3339779  
  4980.000000   3336601   3333691   3331081   3328740   3326708  
  4970.000000   3324959   3323541   3322437   3321703   3321321  
  4960.000000   3321343   3321742   3322557   3323750   3325351  
  4950.000000   3327315   3329668   3332358   3335409   3338764  
  4940.000000   3342444   3346401   3350662   3355188   3360020  
  4930.000000   3365128   3370556   3376280   3382337   3388698  
  4920.000000   3395390   3402372   3409655   3417190   3424979  
  4910.000000   3432977   3441193   3449595   3458197   3466974  
  4900.000000   3475934   3485048   3494312   3503702   3513215  
  4890.000000   3522834   3532553   3542351   3552196   3562042  
  4880.000000   3571830   3581507   3591019   3600341   3609449  
  4870.000000   3618346   3627021   3635479   3643696   3651674  
  4860.000000   3659386   3666850   3674059   3681054   3687841  
  4850.000000   3694464   3700916   3707225   3713367   3719357  
  4840.000000   3725168   3730818   3736291   3741611   3746772  
  4830.000000   3751802   3756694   3761471   3766111   3770623  
  4820.000000   3774973   3779161   3783158   3786978   3790615  
  4810.000000   3794105   3797456   3800700   3803833   3806866  
  4800.000000   3809781   3812580   3815254   3817821   3820287  
  4790.000000   3822683   3825013   3827298   3829527   3831707  
  4780.000000   3833824   3835890   3837898   3839863   3841775  
  4770.000000   3843639   3845429   3847139   3848738   3850225  
  4760.000000   3851581   3852819   3853927   3854921   3855786  
  4750.000000   3856529   3857129   3857589   3857882   3858013  
  4740.000000   3857953   3857706   3857247   3856585   3855709  
  4730.000000   3854642   3853386   3851972   3850406   3848712  
  4720.000000   3846888   3844951   3842899   3840753   3838525  
  4710.000000   3836251   3833952   3831668   3829414   3827210  
  4700.000000   3825053   3822938   3820848   3818769   3816685  
  4690.000000   3814596   3812503   3810421   3808364   3806342  
  4680.000000   3804358   3802401   3800449   3798468   3796433  
  4670.000000   3794313   3792105   3789813   3787469   3785106  
  4660.000000   3782778   3780521   3778384   3776391   3774566  
  4650.000000   3772913   3771439   3770132   3768989   3767994  
  4640.000000   3767145   3766432   3765860   3765420   3765111  
  4630.000000   3764910   3764795   3764720   3764648   3764530  
  4620.000000   3764340   3764057   3763683   3763225   3762702  
  4610.000000   3762129   3761520   3760888   3760244   3759604  
  4600.000000   3758987   3758411   3757890   3757432   3757032  
  4590.000000   3756680   3756358   3756054   3755754   3755450  
  4580.000000   3755133   3754795   3754421   3753997   3753508  
  4570.000000   3752947   3752310   3751603   3750826   3749984  
  4560.000000   3749069   3748078   3747001   3745843   3744614  
  4550.000000   3743336   3742029   3740713   3739395   3738069  
  4540.000000   3736725   3735353   3733958   3732553   3731176  
  4530.000000   3729855   3728636   3727530   3726569   3725734  
  4520.000000   3725048   3724488   3724088   3723836   3723788  
  4510.000000   3723942   3724377   3725102   3726219   3727745  
  4500.000000   3729792   3732368   3735563   3739353   3743801  
  4490.000000   3748859   3754589   3760947   3768009   3775740  
  4480.000000   3784208   3793359   3803231   3813741   3824900  
  4470.000000   3836619   3848898   3861657   3874890   3888520  
  4460.000000   3902526   3916822   3931368   3946069   3960870  
  4450.000000   3975676   3990430   4005061   4019530   4033813  
  4440.000000   4047906   4061829   4075593   4089238   4102755  
  4430.000000   4116176   4129458   4142619   4155582   4168353  
  4420.000000   4180826   4192989   4204711   4215966   4226613  
  4410.000000   4236629   4245882   4254370   4261986   4268748  
  4400.000000   4274576   4279510   4283503   4286621   4288859  
  4390.000000   4290319   4291045   4291170   4290776   4290012  
  4380.000000   4288980   4287825   4286657   4285610   4284794  
  4370.000000   4284326   4284305   4284813   4285915   4287641  
  4360.000000   4290009   4292995   4296573   4300679   4305253  
  4350.000000   4310213   4315485   4321000   4326704   4332565  
  4340.000000   4338562   4344675   4350851   4356990   4362915  
  4330.000000   4368388   4373123   4376852   4379369   4380613  
  4320.000000   4380665   4379784   4378311   4376659   4375164  
  4310.000000   4374105   4373584   4373628   4374125   4374966  
  4300.000000   4375993   4377111   4378221   4379279   4380232  
  4290.000000   4381052   4381708   4382184   4382482   4382621  
  4280.000000   4382630   4382557   4382428   4382288   4382147  
  4270.000000   4382041   4381963   4381928   4381890   4381797  
  4260.000000   4381529   4380957   4379926   4378324   4376085  
  4250.000000   4373236   4369875   4366181   4362346   4358574  
  4240.000000   4355008   4351749   4348813   4346183   4343787  
  4230.000000   4341555   4339401   4337257   4335063   4332766  
  4220.000000   4330341   4327765   4325063   4322259   4319431  
  4210.000000   4316643   4313987   4311519   4309300   4307342  
  4200.000000   4305660   4304227   4303032   4302032   4301217  
  4190.000000   4300536   4299987   4299521   4299148   4298834  
  4180.000000   4298620   4298495   4298535   4298757   4299263  
  4170.000000   4300091   4301357   4303099   4305421   4308331  
  4160.000000   4311892   4316054   4320829   4326124   4331939  
  4150.000000   4338185   4344890   4351996   4359568   4367574  
  4140.000000   4376094   4385103   4394677   4404784   4415483  
  4130.000000   4426726   4438545   4450869   4463707   4476983  
  4120.000000   4490707   4504819   4519350   4534262   4549593  
  4110.000000   4565307   4581427   4597900   4614721   4631821  
  4100.000000   4649182   4666743   4684494   4702406   4720490  
  4090.000000   4738743   4757175   4775784   4794556   4813480  
  4080.000000   4832526   4851689   4870942   4890285   4909674  
  4070.000000   4929084   4948420   4967628   4986589   5005267  
  4060.000000   5023572   5041523   5059061   5076226   5092946  
  4050.000000   5109251   5125047   5140373   5155134   5169382  
  4040.000000   5183006   5196040   5208336   5219916   5230636  
  4030.000000   5240547   5249536   5257667   5264823   5271029  
  4020.000000   5276113   5280104   5282931   5284691   5285344  
  4010.000000   5285098   5284072   5282356   5279744   5276358  
  4000.000000   5272582  
##END= 
