##TITLE= Sample 022 By ssteindl date Dienstag, November 20 2018
##JCAMP-DX= 4.24
##DATA TYPE= INFRARED SPECTRUM
##ORIGIN= Exported PE Spectrum Data File
##OWNER= Sandra Steindl
##DATE= 18/11/20
##TIME= 17:16:11.00
##SPECTROMETER/DATA SYSTEM= PERKIN-ELMER Frontier FT-IR/NIR IR
##INSTRUMENT PARAMETERS=
  APODIZATION=stark
  DETECTOR=INGAAS
##RESOLUTION= 16.000000
##DELTAX= -2.000000
##XUNITS= 1/CM
##YUNITS= A
##XFACTOR= 1.00
##YFACTOR= 0.00000011920928955078
##FIRSTX= 10000.00
##LASTX= 4000.00
##NPOINTS= 3001
##FIRSTY= 0.187368
##MAXY= 0.502905
##MINY= 0.163670
##XYDATA= (X++(Y..Y))
 10000.000000   1571758   1571184   1571915   1575188   1580151  
  9990.000000   1585002   1588855   1591827   1593934   1594878  
  9980.000000   1594578   1593135   1590634   1587124   1582900  
  9970.000000   1578404   1574036   1570122   1566792   1564111  
  9960.000000   1562035   1560701   1560305   1561201   1563611  
  9950.000000   1567499   1572375   1577311   1581152   1582765  
  9940.000000   1581459   1577085   1570206   1561839   1553281  
  9930.000000   1545734   1540056   1536633   1535312   1535606  
  9920.000000   1536821   1538342   1539756   1540933   1541958  
  9910.000000   1542978   1544053   1544995   1545433   1544834  
  9900.000000   1542877   1539528   1535327   1531186   1528204  
  9890.000000   1527242   1528557   1531711   1535659   1539233  
  9880.000000   1541568   1542496   1542533   1542639   1543706  
  9870.000000   1546136   1549622   1553247   1555923   1556802  
  9860.000000   1555678   1552962   1549469   1546021   1543092  
  9850.000000   1540753   1538760   1536912   1535233   1534077  
  9840.000000   1533883   1534928   1537031   1539565   1541652  
  9830.000000   1542529   1541910   1540054   1537670   1535499  
  9820.000000   1534007   1533155   1532527   1531632   1530251  
  9810.000000   1528645   1527454   1527407   1528910   1531815  
  9800.000000   1535416   1538743   1540953   1541644   1540976  
  9790.000000   1539487   1537832   1536457   1535507   1534871  
  9780.000000   1534390   1534021   1533884   1534162   1534919  
  9770.000000   1535994   1537011   1537559   1537408   1536652  
  9760.000000   1535720   1535142   1535325   1536281   1537634  
  9750.000000   1538769   1539149   1538607   1537433   1536296  
  9740.000000   1535935   1536886   1539263   1542770   1546817  
  9730.000000   1550747   1553984   1556145   1557012   1556532  
  9720.000000   1554789   1552050   1548774   1545601   1543205  
  9710.000000   1542093   1542352   1543578   1544913   1545406  
  9700.000000   1544311   1541482   1537375   1532932   1529172  
  9690.000000   1526809   1526038   1526462   1527378   1527972  
  9680.000000   1527676   1526228   1523722   1520475   1516900  
  9670.000000   1513460   1510609   1508834   1508580   1510162  
  9660.000000   1513636   1518661   1524535   1530266   1534857  
  9650.000000   1537509   1537871   1536055   1532623   1528345  
  9640.000000   1524063   1520479   1518105   1517211   1517837  
  9630.000000   1519805   1522725   1526085   1529287   1531840  
  9620.000000   1533404   1533955   1533695   1533050   1532461  
  9610.000000   1532297   1532733   1533757   1535194   1536782  
  9600.000000   1538213   1539158   1539276   1538229   1535754  
  9590.000000   1531751   1526377   1520062   1513465   1507309  
  9580.000000   1502259   1498731   1496876   1496548   1497422  
  9570.000000   1499080   1501108   1503175   1505031   1506582  
  9560.000000   1507862   1509103   1510649   1512925   1516244  
  9550.000000   1520687   1525991   1531530   1536480   1539953  
  9540.000000   1541277   1540057   1536311   1530338   1522705  
  9530.000000   1514077   1505201   1496852   1489767   1484649  
  9520.000000   1481934   1481836   1484100   1488256   1493548  
  9510.000000   1499305   1504932   1510059   1514464   1517916  
  9500.000000   1520200   1520919   1519778   1516509   1511191  
  9490.000000   1504151   1496017   1487553   1479519   1472617  
  9480.000000   1467396   1464313   1463639   1465475   1469567  
  9470.000000   1475285   1481562   1487115   1490757   1491794  
  9460.000000   1490326   1487223   1483906   1481783   1481822  
  9450.000000   1484149   1488108   1492487   1495981   1497623  
  9440.000000   1497000   1494340   1490271   1485630   1481166  
  9430.000000   1477454   1474851   1473507   1473404   1474277  
  9420.000000   1475639   1476793   1477005   1475759   1472958  
  9410.000000   1469059   1464939   1461639   1460023   1460486  
  9400.000000   1462885   1466599   1470787   1474638   1477572  
  9390.000000   1479316   1479854   1479328   1477966   1476053  
  9380.000000   1473969   1472154   1471044   1470903   1471688  
  9370.000000   1473013   1474236   1474734   1474122   1472448  
  9360.000000   1470168   1467974   1466521   1466116   1466614  
  9350.000000   1467454   1467951   1467601   1466287   1464325  
  9340.000000   1462282   1460805   1460366   1461199   1463214  
  9330.000000   1466094   1469353   1472443   1474841   1476067  
  9320.000000   1475810   1473960   1470746   1466692   1462526  
  9310.000000   1458958   1456438   1455062   1454540   1454418  
  9300.000000   1454267   1453970   1453736   1453999   1455125  
  9290.000000   1457122   1459575   1461672   1462559   1461560  
  9280.000000   1458516   1453835   1448425   1443407   1439754  
  9270.000000   1438120   1438701   1441375   1445721   1451157  
  9260.000000   1456952   1462309   1466441   1468679   1468632  
  9250.000000   1466265   1462030   1456701   1451270   1446565  
  9240.000000   1443120   1441033   1440068   1439830   1439908  
  9230.000000   1440105   1440406   1441007   1442086   1443755  
  9220.000000   1445968   1448549   1451255   1453782   1455857  
  9210.000000   1457210   1457690   1457225   1455919   1454022  
  9200.000000   1451923   1450047   1448723   1448092   1448056  
  9190.000000   1448347   1448621   1448647   1448367   1447954  
  9180.000000   1447652   1447694   1448125   1448827   1449548  
  9170.000000   1450042   1450191   1450034   1449746   1449487  
  9160.000000   1449294   1448990   1448254   1446763   1444379  
  9150.000000   1441241   1437783   1434599   1432276   1431183  
  9140.000000   1431332   1432428   1433957   1435417   1436447  
  9130.000000   1436956   1437111   1437220   1437614   1438472  
  9120.000000   1439805   1441368   1442796   1443648   1443607  
  9110.000000   1442516   1440472   1437821   1435120   1433018  
  9100.000000   1432063   1432623   1434748   1438188   1442380  
  9090.000000   1446641   1450324   1452980   1454436   1454792  
  9080.000000   1454361   1453507   1452520   1451503   1450403  
  9070.000000   1449090   1447479   1445637   1443776   1442271  
  9060.000000   1441466   1441597   1442589   1444131   1445723  
  9050.000000   1446857   1447170   1446537   1445120   1443229  
  9040.000000   1441209   1439272   1437478   1435748   1433987  
  9030.000000   1432183   1430486   1429181   1428587   1428903  
  9020.000000   1430087   1431852   1433739   1435280   1436154  
  9010.000000   1436286   1435870   1435270   1434865   1434922  
  9000.000000   1435496   1436465   1437569   1438533   1439148  
  8990.000000   1439309   1439019   1438320   1437263   1435842  
  8980.000000   1434007   1431683   1428830   1425497   1421869  
  8970.000000   1418277   1415173   1413025   1412203   1412855  
  8960.000000   1414837   1417698   1420779   1423377   1424961  
  8950.000000   1425330   1424677   1423517   1422515   1422283  
  8940.000000   1423201   1425303   1428289   1431629   1434737  
  8930.000000   1437087   1438309   1438210   1436789   1434207  
  8920.000000   1430766   1426870   1422998   1419628   1417154  
  8910.000000   1415797   1415558   1416249   1417548   1419126  
  8900.000000   1420710   1422153   1423411   1424495   1425426  
  8890.000000   1426187   1426781   1427217   1427592   1428038  
  8880.000000   1428720   1429730   1431055   1432555   1434018  
  8870.000000   1435255   1436157   1436759   1437175   1437563  
  8860.000000   1438008   1438514   1438986   1439323   1439466  
  8850.000000   1439456   1439398   1439399   1439480   1439537  
  8840.000000   1439357   1438709   1437441   1435572   1433307  
  8830.000000   1430995   1429015   1427673   1427111   1427308  
  8820.000000   1428094   1429231   1430456   1431555   1432377  
  8810.000000   1432860   1433018   1432939   1432758   1432608  
  8800.000000   1432590   1432704   1432874   1432934   1432731  
  8790.000000   1432158   1431240   1430108   1428956   1427960  
  8780.000000   1427200   1426668   1426288   1426018   1425885  
  8770.000000   1426034   1426658   1427920   1429839   1432234  
  8760.000000   1434765   1437002   1438577   1439257   1439017  
  8750.000000   1437995   1436454   1434688   1432986   1431590  
  8740.000000   1430705   1430476   1430966   1432117   1433713  
  8730.000000   1435424   1436865   1437736   1437923   1437550  
  8720.000000   1436954   1436545   1436669   1437451   1438778  
  8710.000000   1440338   1441758   1442768   1443285   1443460  
  8700.000000   1443574   1443943   1444783   1446127   1447829  
  8690.000000   1449579   1451019   1451788   1451650   1450516  
  8680.000000   1448500   1445912   1443199   1440899   1439504  
  8670.000000   1439379   1440646   1443161   1446543   1450267  
  8660.000000   1453805   1456715   1458728   1459735   1459798  
  8650.000000   1459078   1457843   1456394   1455079   1454239  
  8640.000000   1454166   1455039   1456845   1459395   1462331  
  8630.000000   1465268   1467846   1469851   1471201   1471943  
  8620.000000   1472191   1472060   1471655   1471056   1470376  
  8610.000000   1469746   1469312   1469180   1469357   1469755  
  8600.000000   1470182   1470475   1470549   1470490   1470501  
  8590.000000   1470838   1471677   1473007   1474622   1476165  
  8580.000000   1477292   1477765   1477564   1476848   1475910  
  8570.000000   1475031   1474404   1474099   1474103   1474396  
  8560.000000   1474969   1475876   1477149   1478781   1480629  
  8550.000000   1482500   1484180   1485536   1486546   1487269  
  8540.000000   1487817   1488201   1488324   1487946   1486846  
  8530.000000   1484895   1482185   1479064   1476058   1473743  
  8520.000000   1472530   1472615   1473922   1476191   1479051  
  8510.000000   1482139   1485175   1487934   1490241   1491919  
  8500.000000   1492847   1492963   1492352   1491255   1490072  
  8490.000000   1489245   1489144   1489958   1491648   1493971  
  8480.000000   1496527   1498904   1500749   1501856   1502157  
  8470.000000   1501723   1500746   1499482   1498239   1497285  
  8460.000000   1496826   1496931   1497518   1498375   1499223  
  8450.000000   1499831   1500089   1500097   1500098   1500418  
  8440.000000   1501300   1502825   1504852   1507065   1509080  
  8430.000000   1510568   1511378   1511542   1511242   1510702  
  8420.000000   1510101   1509522   1508948   1508324   1507617  
  8410.000000   1506877   1506220   1505795   1505706   1505978  
  8400.000000   1506532   1507214   1507842   1508268   1508412  
  8390.000000   1508264   1507872   1507312   1506693   1506138  
  8380.000000   1505784   1505758   1506156   1506993   1508174  
  8370.000000   1509482   1510629   1511336   1511438   1510936  
  8360.000000   1510017   1508998   1508221   1507957   1508297  
  8350.000000   1509170   1510369   1511671   1512905   1514017  
  8340.000000   1515050   1516081   1517140   1518153   1518942  
  8330.000000   1519267   1518928   1517849   1516147   1514100  
  8320.000000   1512077   1510449   1509460   1509208   1509596  
  8310.000000   1510417   1511405   1512331   1513041   1513465  
  8300.000000   1513607   1513489   1513138   1512554   1511734  
  8290.000000   1510689   1509480   1508225   1507103   1506323  
  8280.000000   1506068   1506449   1507440   1508886   1510506  
  8270.000000   1511968   1512958   1513250   1512776   1511625  
  8260.000000   1510028   1508273   1506644   1505350   1504496  
  8250.000000   1504097   1504089   1504393   1504914   1505583  
  8240.000000   1506310   1507007   1507555   1507837   1507752  
  8230.000000   1507251   1506358   1505154   1503770   1502328  
  8220.000000   1500923   1499596   1498340   1497127   1495916  
  8210.000000   1494713   1493550   1492515   1491697   1491189  
  8200.000000   1491031   1491200   1491594   1492039   1492312  
  8190.000000   1492183   1491488   1490168   1488323   1486175  
  8180.000000   1484032   1482186   1480834   1480017   1479617  
  8170.000000   1479412   1479164   1478718   1478055   1477287  
  8160.000000   1476593   1476128   1475953   1475997   1476106  
  8150.000000   1476088   1475820   1475276   1474545   1473776  
  8140.000000   1473107   1472614   1472280   1472036   1471792  
  8130.000000   1471498   1471150   1470780   1470417   1470046  
  8120.000000   1469595   1468957   1468033   1466776   1465233  
  8110.000000   1463523   1461812   1460255   1458954   1457942  
  8100.000000   1457189   1456633   1456206   1455860   1455564  
  8090.000000   1455302   1455062   1454827   1454583   1454323  
  8080.000000   1454046   1453757   1453456   1453124   1452734  
  8070.000000   1452255   1451677   1451017   1450321   1449642  
  8060.000000   1449014   1448427   1447822   1447120   1446246  
  8050.000000   1445189   1444006   1442826   1441806   1441078  
  8040.000000   1440699   1440633   1440755   1440893   1440879  
  8030.000000   1440591   1439984   1439091   1438004   1436848  
  8020.000000   1435749   1434809   1434093   1433609   1433322  
  8010.000000   1433151   1433001   1432783   1432448   1431993  
  8000.000000   1431468   1430947   1430499   1430161   1429921  
  7990.000000   1429732   1429539   1429303   1429034   1428775  
  7980.000000   1428592   1428525   1428570   1428660   1428689  
  7970.000000   1428541   1428144   1427494   1426658   1425767  
  7960.000000   1424960   1424367   1424058   1424057   1424321  
  7950.000000   1424773   1425302   1425785   1426104   1426145  
  7940.000000   1425831   1425120   1424034   1422644   1421076  
  7930.000000   1419479   1418011   1416804   1415957   1415520  
  7920.000000   1415489   1415818   1416410   1417148   1417891  
  7910.000000   1418516   1418933   1419112   1419091   1418958  
  7900.000000   1418830   1418800   1418919   1419154   1419422  
  7890.000000   1419586   1419519   1419123   1418368   1417290  
  7880.000000   1415987   1414600   1413285   1412195   1411450  
  7870.000000   1411135   1411266   1411807   1412653   1413668  
  7860.000000   1414692   1415590   1416267   1416677   1416829  
  7850.000000   1416750   1416487   1416061   1415497   1414803  
  7840.000000   1414004   1413139   1412268   1411458   1410759  
  7830.000000   1410211   1409815   1409564   1409435   1409418  
  7820.000000   1409500   1409667   1409886   1410100   1410236  
  7810.000000   1410213   1409979   1409514   1408851   1408056  
  7800.000000   1407212   1406396   1405665   1405056   1404591  
  7790.000000   1404296   1404184   1404267   1404518   1404875  
  7780.000000   1405227   1405444   1405407   1405041   1404346  
  7770.000000   1403382   1402261   1401104   1400009   1399041  
  7760.000000   1398220   1397561   1397068   1396764   1396667  
  7750.000000   1396782   1397067   1397428   1397727   1397806  
  7740.000000   1397539   1396854   1395768   1394376   1392835  
  7730.000000   1391324   1390007   1389006   1388376   1388115  
  7720.000000   1388157   1388406   1388742   1389054   1389252  
  7710.000000   1389274   1389095   1388708   1388134   1387392  
  7700.000000   1386514   1385541   1384534   1383577   1382774  
  7690.000000   1382237   1382047   1382241   1382772   1383527  
  7680.000000   1384329   1384994   1385364   1385345   1384928  
  7670.000000   1384166   1383169   1382050   1380915   1379835  
  7660.000000   1378855   1377996   1377272   1376698   1376290  
  7650.000000   1376068   1376036   1376189   1376496   1376912  
  7640.000000   1377375   1377826   1378214   1378498   1378668  
  7630.000000   1378717   1378656   1378487   1378211   1377817  
  7620.000000   1377297   1376662   1375949   1375236   1374620  
  7610.000000   1374209   1374070   1374217   1374586   1375052  
  7600.000000   1375465   1375690   1375649   1375338   1374829  
  7590.000000   1374234   1373681   1373260   1373023   1372961  
  7580.000000   1373039   1373204   1373416   1373657   1373928  
  7570.000000   1374247   1374631   1375091   1375618   1376187  
  7560.000000   1376762   1377294   1377743   1378077   1378293  
  7550.000000   1378407   1378459   1378493   1378550   1378644  
  7540.000000   1378766   1378889   1378983   1379037   1379071  
  7530.000000   1379134   1379290   1379590   1380056   1380660  
  7520.000000   1381340   1382005   1382572   1382980   1383214  
  7510.000000   1383299   1383301   1383301   1383400   1383691  
  7500.000000   1384261   1385157   1386381   1387871   1389513  
  7490.000000   1391152   1392637   1393851   1394753   1395383  
  7480.000000   1395853   1396301   1396852   1397571   1398466  
  7470.000000   1399479   1400530   1401531   1402429   1403198  
  7460.000000   1403847   1404407   1404925   1405461   1406091  
  7450.000000   1406889   1407926   1409234   1410800   1412541  
  7440.000000   1414330   1416023   1417512   1418747   1419763  
  7430.000000   1420649   1421532   1422511   1423637   1424892  
  7420.000000   1426219   1427546   1428829   1430061   1431279  
  7410.000000   1432540   1433887   1435332   1436846   1438376  
  7400.000000   1439866   1441279   1442616   1443909   1445212  
  7390.000000   1446575   1448025   1449557   1451128   1452678  
  7380.000000   1454137   1455453   1456605   1457613   1458531  
  7370.000000   1459427   1460368   1461395   1462511   1463676  
  7360.000000   1464825   1465888   1466820   1467613   1468309  
  7350.000000   1468986   1469740   1470657   1471783   1473124  
  7340.000000   1474636   1476251   1477889   1479482   1480983  
  7330.000000   1482371   1483648   1484835   1485960   1487052  
  7320.000000   1488124   1489176   1490190   1491142   1492011  
  7310.000000   1492798   1493519   1494219   1494937   1495709  
  7300.000000   1496528   1497367   1498169   1498885   1499479  
  7290.000000   1499952   1500328   1500644   1500929   1501195  
  7280.000000   1501431   1501623   1501769   1501888   1502017  
  7270.000000   1502200   1502464   1502806   1503190   1503565  
  7260.000000   1503894   1504169   1504433   1504756   1505224  
  7250.000000   1505884   1506751   1507769   1508857   1509909  
  7240.000000   1510855   1511657   1512350   1513000   1513714  
  7230.000000   1514585   1515695   1517076   1518724   1520578  
  7220.000000   1522550   1524525   1526408   1528130   1529687  
  7210.000000   1531128   1532563   1534109   1535881   1537927  
  7200.000000   1540240   1542740   1545326   1547886   1550350  
  7190.000000   1552675   1554876   1556979   1559037   1561086  
  7180.000000   1563176   1565336   1567614   1570039   1572656  
  7170.000000   1575480   1578522   1581753   1585145   1588643  
  7160.000000   1592209   1595795   1599383   1602948   1606497  
  7150.000000   1610033   1613598   1617225   1620975   1624872  
  7140.000000   1628936   1633131   1637417   1641732   1646050  
  7130.000000   1650365   1654723   1659168   1663757   1668493  
  7120.000000   1673362   1678300   1683259   1688200   1693136  
  7110.000000   1698100   1703151   1708317   1713613   1719008  
  7100.000000   1724477   1729986   1735544   1741163   1746873  
  7090.000000   1752671   1758531   1764390   1770191   1775895  
  7080.000000   1781523   1787132   1792809   1798620   1804591  
  7070.000000   1810687   1816836   1822953   1828983   1834912  
  7060.000000   1840764   1846571   1852358   1858111   1863802  
  7050.000000   1869394   1874880   1880288   1885676   1891106  
  7040.000000   1896619   1902214   1907856   1913496   1919101  
  7030.000000   1924677   1930262   1935915   1941672   1947541  
  7020.000000   1953475   1959403   1965238   1970922   1976421  
  7010.000000   1981732   1986861   1991816   1996585   2001165  
  7000.000000   2005549   2009770   2013865   2017906   2021941  
  6990.000000   2026019   2030132   2034260   2038340   2042322  
  6980.000000   2046136   2049746   2053114   2056241   2059137  
  6970.000000   2061850   2064433   2066964   2069494   2072070  
  6960.000000   2074688   2077341   2079993   2082638   2085268  
  6950.000000   2087909   2090562   2093225   2095839   2098325  
  6940.000000   2100587   2102557   2104215   2105602   2106796  
  6930.000000   2107892   2108953   2110009   2111045   2112042  
  6920.000000   2112982   2113898   2114838   2115882   2117074  
  6910.000000   2118434   2119918   2121457   2122958   2124346  
  6900.000000   2125567   2126599   2127442   2128115   2128645  
  6890.000000   2129075   2129452   2129842   2130298   2130869  
  6880.000000   2131563   2132368   2133236   2134119   2134971  
  6870.000000   2135768   2136497   2137158   2137739   2138221  
  6860.000000   2138581   2138806   2138910   2138934   2138943  
  6850.000000   2139006   2139170   2139454   2139838   2140292  
  6840.000000   2140774   2141263   2141747   2142228   2142703  
  6830.000000   2143158   2143567   2143903   2144147   2144300  
  6820.000000   2144375   2144398   2144388   2144359   2144312  
  6810.000000   2144248   2144173   2144103   2144052   2144027  
  6800.000000   2144013   2143976   2143864   2143644   2143298  
  6790.000000   2142859   2142382   2141945   2141608   2141405  
  6780.000000   2141324   2141320   2141318   2141240   2141012  
  6770.000000   2140584   2139928   2139054   2138001   2136845  
  6760.000000   2135683   2134619   2133734   2133066   2132591  
  6750.000000   2132237   2131894   2131463   2130877   2130130  
  6740.000000   2129262   2128349   2127466   2126664   2125949  
  6730.000000   2125297   2124654   2123971   2123209   2122358  
  6720.000000   2121423   2120431   2119410   2118393   2117396  
  6710.000000   2116435   2115499   2114570   2113614   2112600  
  6700.000000   2111499   2110306   2109034   2107715   2106381  
  6690.000000   2105062   2103766   2102495   2101234   2099979  
  6680.000000   2098726   2097481   2096243   2095001   2093726  
  6670.000000   2092383   2090942   2089401   2087785   2086150  
  6660.000000   2084556   2083053   2081657   2080353   2079096  
  6650.000000   2077841   2076547   2075194   2073773   2072283  
  6640.000000   2070713   2069054   2067298   2065458   2063568  
  6630.000000   2061687   2059873   2058172   2056592   2055107  
  6620.000000   2053668   2052223   2050737   2049204   2047637  
  6610.000000   2046058   2044477   2042891   2041286   2039650  
  6600.000000   2037988   2036316   2034663   2033042   2031445  
  6590.000000   2029840   2028182   2026441   2024622   2022768  
  6580.000000   2020952   2019250   2017711   2016337   2015085  
  6570.000000   2013886   2012670   2011390   2010037   2008630  
  6560.000000   2007205   2005796   2004427   2003104   2001827  
  6550.000000   2000594   1999404   1998252   1997127   1996005  
  6540.000000   1994856   1993653   1992384   1991058   1989702  
  6530.000000   1988353   1987043   1985791   1984596   1983448  
  6520.000000   1982332   1981239   1980169   1979127   1978116  
  6510.000000   1977132   1976167   1975208   1974247   1973284  
  6500.000000   1972330   1971395   1970490   1969614   1968761  
  6490.000000   1967915   1967066   1966211   1965353   1964506  
  6480.000000   1963682   1962896   1962157   1961466   1960820  
  6470.000000   1960203   1959593   1958957   1958262   1957480  
  6460.000000   1956601   1955637   1954622   1953604   1952626  
  6450.000000   1951720   1950895   1950140   1949434   1948755  
  6440.000000   1948086   1947419   1946746   1946056   1945336  
  6430.000000   1944571   1943761   1942920   1942084   1941293  
  6420.000000   1940579   1939943   1939357   1938769   1938124  
  6410.000000   1937391   1936574   1935712   1934865   1934087  
  6400.000000   1933407   1932820   1932298   1931804   1931310  
  6390.000000   1930809   1930303   1929804   1929313   1928818  
  6380.000000   1928302   1927749   1927155   1926533   1925902  
  6370.000000   1925275   1924647   1923996   1923290   1922508  
  6360.000000   1921652   1920758   1919881   1919083   1918398  
  6350.000000   1917835   1917362   1916934   1916494   1916007  
  6340.000000   1915449   1914819   1914122   1913368   1912562  
  6330.000000   1911711   1910819   1909901   1908963   1908015  
  6320.000000   1907050   1906059   1905026   1903945   1902816  
  6310.000000   1901659   1900488   1899324   1898164   1896999  
  6300.000000   1895804   1894569   1893285   1891969   1890635  
  6290.000000   1889301   1887962   1886607   1885204   1883733  
  6280.000000   1882178   1880548   1878856   1877129   1875374  
  6270.000000   1873598   1871790   1869947   1868067   1866169  
  6260.000000   1864270   1862392   1860538   1858702   1856862  
  6250.000000   1855002   1853106   1851180   1849233   1847281  
  6240.000000   1845330   1843381   1841425   1839457   1837476  
  6230.000000   1835490   1833509   1831539   1829577   1827612  
  6220.000000   1825631   1823628   1821608   1819583   1817569  
  6210.000000   1815566   1813564   1811539   1809468   1807348  
  6200.000000   1805202   1803078   1801033   1799112   1797333  
  6190.000000   1795674   1794088   1792513   1790902   1789225  
  6180.000000   1787480   1785678   1783838   1781969   1780080  
  6170.000000   1778175   1776269   1774382   1772543   1770773  
  6160.000000   1769082   1767461   1765892   1764350   1762821  
  6150.000000   1761306   1759817   1758371   1756979   1755638  
  6140.000000   1754337   1753054   1751778   1750505   1749241  
  6130.000000   1747994   1746770   1745563   1744362   1743148  
  6120.000000   1741913   1740652   1739373   1738084   1736796  
  6110.000000   1735511   1734235   1732973   1731744   1730568  
  6100.000000   1729478   1728494   1727633   1726889   1726246  
  6090.000000   1725677   1725161   1724672   1724198   1723722  
  6080.000000   1723236   1722725   1722190   1721629   1721066  
  6070.000000   1720522   1720032   1719607   1719258   1718971  
  6060.000000   1718732   1718520   1718339   1718196   1718119  
  6050.000000   1718130   1718252   1718485   1718827   1719259  
  6040.000000   1719773   1720355   1721007   1721720   1722491  
  6030.000000   1723305   1724151   1725013   1725891   1726783  
  6020.000000   1727701   1728649   1729630   1730635   1731654  
  6010.000000   1732674   1733688   1734693   1735693   1736686  
  6000.000000   1737670   1738634   1739573   1740482   1741372  
  5990.000000   1742255   1743151   1744071   1745023   1746001  
  5980.000000   1747004   1748033   1749104   1750236   1751455  
  5970.000000   1752768   1754170   1755631   1757116   1758583  
  5960.000000   1760012   1761394   1762741   1764067   1765391  
  5950.000000   1766717   1768054   1769403   1770776   1772186  
  5940.000000   1773652   1775185   1776785   1778437   1780122  
  5930.000000   1781818   1783516   1785218   1786937   1788684  
  5920.000000   1790466   1792273   1794090   1795897   1797683  
  5910.000000   1799443   1801183   1802906   1804616   1806304  
  5900.000000   1807967   1809602   1811221   1812847   1814510  
  5890.000000   1816239   1818047   1819931   1821873   1823851  
  5880.000000   1825841   1827828   1829798   1831732   1833608  
  5870.000000   1835392   1837055   1838576   1839967   1841260  
  5860.000000   1842515   1843792   1845145   1846605   1848181  
  5850.000000   1849867   1851652   1853529   1855500   1857565  
  5840.000000   1859721   1861950   1864229   1866528   1868827  
  5830.000000   1871113   1873390   1875663   1877934   1880192  
  5820.000000   1882413   1884567   1886628   1888583   1890430  
  5810.000000   1892185   1893855   1895459   1896989   1898451  
  5800.000000   1899829   1901136   1902360   1903523   1904610  
  5790.000000   1905631   1906558   1907384   1908067   1908590  
  5780.000000   1908905   1908981   1908768   1908238   1907370  
  5770.000000   1906183   1904723   1903080   1901349   1899633  
  5760.000000   1898005   1896513   1895170   1893976   1892917  
  5750.000000   1891991   1891196   1890530   1889987   1889545  
  5740.000000   1889179   1888859   1888571   1888307   1888085  
  5730.000000   1887913   1887811   1887774   1887802   1887873  
  5720.000000   1887984   1888125   1888305   1888524   1888790  
  5710.000000   1889091   1889424   1889776   1890151   1890557  
  5700.000000   1891014   1891536   1892129   1892784   1893482  
  5690.000000   1894204   1894932   1895665   1896405   1897156  
  5680.000000   1897912   1898659   1899365   1900006   1900556  
  5670.000000   1901008   1901353   1901590   1901706   1901682  
  5660.000000   1901492   1901129   1900599   1899944   1899221  
  5650.000000   1898498   1897824   1897229   1896705   1896235  
  5640.000000   1895786   1895338   1894882   1894427   1893980  
  5630.000000   1893550   1893136   1892734   1892334   1891934  
  5620.000000   1891536   1891143   1890756   1890370   1889976  
  5610.000000   1889565   1889130   1888673   1888200   1887718  
  5600.000000   1887226   1886719   1886183   1885609   1884993  
  5590.000000   1884343   1883670   1882989   1882305   1881618  
  5580.000000   1880919   1880208   1879485   1878762   1878048  
  5570.000000   1877345   1876634   1875887   1875068   1874157  
  5560.000000   1873154   1872090   1871013   1869977   1869014  
  5550.000000   1868132   1867310   1866515   1865715   1864894  
  5540.000000   1864057   1863220   1862398   1861599   1860814  
  5530.000000   1860027   1859223   1858400   1857564   1856729  
  5520.000000   1855911   1855114   1854332   1853556   1852773  
  5510.000000   1851980   1851174   1850359   1849532   1848686  
  5500.000000   1847810   1846901   1845960   1845004   1844051  
  5490.000000   1843114   1842185   1841243   1840247   1839165  
  5480.000000   1837975   1836688   1835326   1833931   1832532  
  5470.000000   1831146   1829766   1828382   1826974   1825542  
  5460.000000   1824085   1822613   1821124   1819612   1818056  
  5450.000000   1816441   1814760   1813027   1811266   1809509  
  5440.000000   1807779   1806084   1804424   1802791   1801190  
  5430.000000   1799630   1798131   1796700   1795332   1793998  
  5420.000000   1792670   1791320   1789957   1788612   1787353  
  5410.000000   1786236   1785307   1784558   1783964   1783470  
  5400.000000   1783046   1782668   1782359   1782140   1782049  
  5390.000000   1782088   1782260   1782528   1782886   1783315  
  5380.000000   1783844   1784486   1785282   1786227   1787330  
  5370.000000   1788548   1789871   1791256   1792717   1794235  
  5360.000000   1795852   1797561   1799417   1801425   1803661  
  5350.000000   1806153   1808988   1812182   1815794   1819783  
  5340.000000   1824164   1828865   1833907   1839247   1844943  
  5330.000000   1850971   1857394   1864166   1871334   1878840  
  5320.000000   1886751   1895045   1903836   1913126   1923037  
  5310.000000   1933546   1944733   1956528   1968984   1982031  
  5300.000000   1995740   2010075   2025142   2040930   2057550  
  5290.000000   2074973   2093262   2112323   2132138   2152560  
  5280.000000   2173548   2194995   2216934   2239358   2262371  
  5270.000000   2285989   2310237   2335005   2360147   2385455  
  5260.000000   2410753   2435934   2460967   2485900   2510769  
  5250.000000   2535596   2560277   2584686   2608579   2631813  
  5240.000000   2654210   2675791   2696537   2716601   2736008  
  5230.000000   2754886   2773177   2790905   2807920   2824211  
  5220.000000   2839641   2854266   2868033   2881075   2893386  
  5210.000000   2905097   2916157   2926623   2936370   2945414  
  5200.000000   2953636   2961108   2967791   2973822   2979194  
  5190.000000   2984023   2988257   2991954   2995030   2997539  
  5180.000000   2999429   3000791   3001602   3001952   3001799  
  5170.000000   3001200   3000101   2998564   2996573   2994223  
  5160.000000   2991521   2988548   2985274   2981730   2977849  
  5150.000000   2973647   2969085   2964216   2959047   2953650  
  5140.000000   2948036   2942256   2936301   2930207   2923964  
  5130.000000   2917608   2911137   2904584   2897942   2891231  
  5120.000000   2884442   2877599   2870708   2863805   2856902  
  5110.000000   2850017   2843142   2836267   2829369   2822443  
  5100.000000   2815487   2808523   2801574   2794668   2787816  
  5090.000000   2781020   2774264   2767529   2760799   2754070  
  5080.000000   2747344   2740636   2733956   2727314   2720708  
  5070.000000   2714135   2707583   2701044   2694503   2687955  
  5060.000000   2681386   2674792   2668166   2661512   2654838  
  5050.000000   2648160   2641495   2634858   2628255   2621685  
  5040.000000   2615135   2608590   2602040   2595480   2588923  
  5030.000000   2582381   2575886   2569456   2563119   2556885  
  5020.000000   2550774   2544789   2538951   2533261   2527740  
  5010.000000   2522382   2517201   2512176   2507312   2502583  
  5000.000000   2497998   2493541   2489239   2485085   2481116  
  4990.000000   2477328   2473756   2470390   2467263   2464359  
  4980.000000   2461713   2459305   2457171   2455288   2453693  
  4970.000000   2452364   2451342   2450609   2450204   2450108  
  4960.000000   2450353   2450908   2451799   2452989   2454502  
  4950.000000   2456305   2458426   2460831   2463549   2466541  
  4940.000000   2469831   2473378   2477206   2481277   2485614  
  4930.000000   2490182   2494998   2500024   2505274   2510713  
  4920.000000   2516358   2522184   2528216   2534438   2540875  
  4910.000000   2547511   2554362   2561409   2568654   2576068  
  4900.000000   2583641   2591337   2599137   2607006   2614927  
  4890.000000   2622874   2630835   2638791   2646730   2654634  
  4880.000000   2662487   2670274   2677975   2685583   2693076  
  4870.000000   2700444   2707663   2714725   2721605   2728310  
  4860.000000   2734830   2741188   2747386   2753449   2759369  
  4850.000000   2765162   2770811   2776333   2781720   2787001  
  4840.000000   2792180   2797286   2802304   2807241   2812057  
  4830.000000   2816741   2821257   2825611   2829793   2833835  
  4820.000000   2837740   2841533   2845200   2848742   2852127  
  4810.000000   2855346   2858371   2861210   2863857   2866340  
  4800.000000   2868672   2870893   2873019   2875089   2877111  
  4790.000000   2879110   2881076   2883017   2884909   2886749  
  4780.000000   2888513   2890205   2891809   2893332   2894759  
  4770.000000   2896092   2897306   2898397   2899339   2900136  
  4760.000000   2900771   2901262   2901601   2901809   2901872  
  4750.000000   2901800   2901566   2901169   2900580   2899800  
  4740.000000   2898811   2897631   2896256   2894721   2893033  
  4730.000000   2891225   2889303   2887287   2885172   2882968  
  4720.000000   2880668   2878284   2875818   2873297   2870735  
  4710.000000   2868161   2865592   2863049   2860539   2858066  
  4700.000000   2855626   2853212   2850812   2848418   2846016  
  4690.000000   2843605   2841182   2838755   2836335   2833934  
  4680.000000   2831564   2829223   2826907   2824593   2822259  
  4670.000000   2819878   2817442   2814946   2812416   2809877  
  4660.000000   2807378   2804956   2802655   2800498   2798516  
  4650.000000   2796714   2795112   2793703   2792495   2791471  
  4640.000000   2790625   2789929   2789372   2788928   2788596  
  4630.000000   2788357   2788214   2788149   2788157   2788211  
  4620.000000   2788300   2788397   2788497   2788584   2788659  
  4610.000000   2788712   2788745   2788749   2788728   2788688  
  4600.000000   2788647   2788628   2788657   2788754   2788930  
  4590.000000   2789181   2789493   2789850   2790229   2790617  
  4580.000000   2791000   2791373   2791723   2792044   2792320  
  4570.000000   2792547   2792716   2792828   2792880   2792875  
  4560.000000   2792803   2792660   2792435   2792125   2791729  
  4550.000000   2791258   2790722   2790134   2789497   2788809  
  4540.000000   2788069   2787275   2786446   2785606   2784803  
  4530.000000   2784072   2783462   2782983   2782659   2782472  
  4520.000000   2782436   2782532   2782794   2783217   2783856  
  4510.000000   2784710   2785842   2787247   2788997   2791090  
  4500.000000   2793610   2796554   2799998   2803919   2808376  
  4490.000000   2813325   2818820   2824825   2831405   2838538  
  4480.000000   2846290   2854628   2863594   2873128   2883241  
  4470.000000   2893858   2904974   2916510   2928447   2940702  
  4460.000000   2953244   2965985   2978885   2991862   3004880  
  4450.000000   3017875   3030818   3043673   3056422   3069056  
  4440.000000   3081568   3093971   3106257   3118447   3130512  
  4430.000000   3142469   3154262   3165902   3177314   3188505  
  4420.000000   3199382   3209944   3220080   3229774   3238897  
  4410.000000   3247425   3255231   3262299   3268518   3273898  
  4400.000000   3278363   3281957   3284651   3286529   3287613  
  4390.000000   3288026   3287836   3287187   3286169   3284915  
  4380.000000   3283510   3282063   3280648   3279358   3278275  
  4370.000000   3277489   3277094   3277170   3277798   3279016  
  4360.000000   3280865   3283328   3286392   3289991   3294064  
  4350.000000   3298523   3303290   3308294   3313491   3318865  
  4340.000000   3324420   3330166   3336078   3342073   3347977  
  4330.000000   3353533   3358424   3362334   3365008   3366337  
  4320.000000   3366372   3365353   3363630   3361635   3359740  
  4310.000000   3358263   3357347   3357049   3357276   3357923  
  4300.000000   3358822   3359864   3360928   3361953   3362878  
  4290.000000   3363668   3364293   3364735   3364993   3365079  
  4280.000000   3365019   3364855   3364630   3364409   3364241  
  4270.000000   3364202   3364324   3364640   3365105   3365638  
  4260.000000   3366071   3366216   3365857   3364833   3363048  
  4250.000000   3360521   3357368   3353796   3350039   3346342  
  4240.000000   3342882   3339784   3337077   3334739   3332688  
  4230.000000   3330838   3329087   3327358   3325586   3323729  
  4220.000000   3321772   3319708   3317569   3315385   3313220  
  4210.000000   3311120   3309153   3307352   3305756   3304365  
  4200.000000   3303187   3302192   3301371   3300681   3300108  
  4190.000000   3299605   3299172   3298771   3298429   3298134  
  4180.000000   3297944   3297871   3297993   3298329   3298966  
  4170.000000   3299926   3301303   3303124   3305485   3308399  
  4160.000000   3311941   3316081   3320846   3326161   3332024  
  4150.000000   3338342   3345117   3352272   3359832   3367744  
  4140.000000   3376061   3384754   3393895   3403465   3413533  
  4130.000000   3424063   3435091   3446550   3458441   3470686  
  4120.000000   3483285   3496187   3509419   3522963   3536864  
  4110.000000   3551109   3565727   3580685   3595980   3611551  
  4100.000000   3627374   3643385   3659564   3675868   3692299  
  4090.000000   3708848   3725530   3742348   3759307   3776406  
  4080.000000   3793629   3810971   3828408   3845936   3863522  
  4070.000000   3881157   3898787   3916396   3933909   3951316  
  4060.000000   3968538   3985569   4002315   4018759   4034787  
  4050.000000   4050390   4065465   4080053   4094089   4107648  
  4040.000000   4120651   4133140   4144972   4156142   4166482  
  4030.000000   4176003   4184574   4192247   4198928   4204673  
  4020.000000   4209371   4213094   4215815   4217642   4218536  
  4010.000000   4218671   4218137   4216984   4214989   4212251  
  4000.000000   4209138  
##END= 
