##TITLE= Sample 012 By ssteindl date Dienstag, November 20 2018
##JCAMP-DX= 4.24
##DATA TYPE= INFRARED SPECTRUM
##ORIGIN= Exported PE Spectrum Data File
##OWNER= Sandra Steindl
##DATE= 18/11/20
##TIME= 17:05:28.00
##SPECTROMETER/DATA SYSTEM= PERKIN-ELMER Frontier FT-IR/NIR IR
##INSTRUMENT PARAMETERS=
  APODIZATION=stark
  DETECTOR=INGAAS
##RESOLUTION= 16.000000
##DELTAX= -2.000000
##XUNITS= 1/CM
##YUNITS= A
##XFACTOR= 1.00
##YFACTOR= 0.00000011920928955078
##FIRSTX= 10000.00
##LASTX= 4000.00
##NPOINTS= 3001
##FIRSTY= 0.287525
##MAXY= 0.661844
##MINY= 0.214815
##XYDATA= (X++(Y..Y))
 10000.000000   2411930   2407600   2405002   2406278   2411269  
  9990.000000   2417921   2424150   2428580   2430322   2429189  
  9980.000000   2426029   2422286   2419242   2417586   2417453  
  9970.000000   2418458   2419890   2420977   2421084   2419785  
  9960.000000   2416921   2412610   2407289   2401688   2396724  
  9950.000000   2393268   2391843   2392399   2394271   2396420  
  9940.000000   2397807   2397882   2396785   2395362   2394770  
  9930.000000   2395975   2399296   2404180   2409408   2413457  
  9920.000000   2415116   2413817   2409838   2404089   2397777  
  9910.000000   2392023   2387599   2384893   2383931   2384533  
  9900.000000   2386328   2388838   2391435   2393484   2394412  
  9890.000000   2393967   2392271   2389872   2387514   2385879  
  9880.000000   2385301   2385616   2386244   2386399   2385446  
  9870.000000   2383122   2379631   2375500   2371317   2367469  
  9860.000000   2364010   2360716   2357295   2353605   2349819  
  9850.000000   2346390   2343880   2342728   2343029   2344526  
  9840.000000   2346657   2348808   2350516   2351596   2352185  
  9830.000000   2352570   2353064   2353764   2354505   2354867  
  9820.000000   2354366   2352652   2349714   2345923   2341937  
  9810.000000   2338514   2336216   2335260   2335411   2336101  
  9800.000000   2336656   2336506   2335440   2333562   2331278  
  9790.000000   2329023   2327100   2325560   2324223   2322899  
  9780.000000   2321542   2320465   2320247   2321591   2324980  
  9770.000000   2330423   2337350   2344658   2351011   2355129  
  9760.000000   2356139   2353751   2348309   2340711   2332183  
  9750.000000   2324122   2317794   2314214   2313847   2316558  
  9740.000000   2321476   2327190   2331979   2334260   2332990  
  9730.000000   2327958   2319878   2310132   2300410   2292156  
  9720.000000   2286256   2282870   2281585   2281729   2282641  
  9710.000000   2283965   2285568   2287527   2289813   2292224  
  9700.000000   2294342   2295630   2295720   2294411   2291886  
  9690.000000   2288406   2284341   2279890   2275184   2270301  
  9680.000000   2265443   2261038   2257671   2256018   2256503  
  9670.000000   2259233   2263779   2269387   2275111   2280144  
  9660.000000   2284031   2286686   2288330   2289202   2289397  
  9650.000000   2288726   2286809   2283298   2278136   2271776  
  9640.000000   2265140   2259440   2255706   2254493   2255529  
  9630.000000   2257866   2260079   2260798   2259122   2254887  
  9620.000000   2248707   2241661   2234985   2229578   2225878  
  9610.000000   2223714   2222608   2221925   2221246   2220418  
  9600.000000   2219611   2219192   2219532   2220927   2223452  
  9590.000000   2227039   2231467   2236458   2241717   2246923  
  9580.000000   2251780   2255946   2259100   2260913   2261127  
  9570.000000   2259573   2256244   2251323   2245213   2238538  
  9560.000000   2232043   2226531   2222590   2220561   2220287  
  9550.000000   2221294   2222808   2224103   2224645   2224270  
  9540.000000   2223140   2221582   2219912   2218229   2216432  
  9530.000000   2214239   2211443   2208011   2204233   2200605  
  9520.000000   2197689   2195875   2195234   2195502   2196186  
  9510.000000   2196783   2196928   2196510   2195632   2194521  
  9500.000000   2193444   2192614   2192237   2192436   2193280  
  9490.000000   2194660   2196240   2197465   2197672   2196374  
  9480.000000   2193459   2189396   2185129   2181863   2180635  
  9470.000000   2181920   2185366   2189831   2193733   2195564  
  9460.000000   2194427   2190288   2183977   2176812   2170178  
  9450.000000   2165088   2162000   2160817   2161078   2162209  
  9440.000000   2163689   2165202   2166565   2167759   2168781  
  9430.000000   2169689   2170557   2171472   2172531   2173671  
  9420.000000   2174698   2175156   2174542   2172419   2168701  
  9410.000000   2163743   2158285   2153287   2149585   2147729  
  9400.000000   2147774   2149402   2152001   2154940   2157703  
  9390.000000   2159978   2161622   2162542   2162640   2161790  
  9380.000000   2159907   2157021   2153340   2149263   2145329  
  9370.000000   2142112   2140077   2139454   2140165   2141845  
  9360.000000   2143878   2145525   2146018   2144749   2141456  
  9350.000000   2136349   2130177   2124029   2119114   2116370  
  9340.000000   2116215   2118385   2121972   2125725   2128396  
  9330.000000   2129242   2128187   2125875   2123320   2121560  
  9320.000000   2121282   2122588   2124998   2127535   2129119  
  9310.000000   2128815   2126211   2121431   2115101   2108120  
  9300.000000   2101429   2095831   2091837   2089652   2089201  
  9290.000000   2090215   2092319   2095123   2098214   2101223  
  9280.000000   2103779   2105615   2106584   2106722   2106264  
  9270.000000   2105545   2104976   2104830   2105223   2105944  
  9260.000000   2106567   2106538   2105414   2103005   2099425  
  9250.000000   2095105   2090634   2086696   2083834   2082419  
  9240.000000   2082540   2084083   2086746   2090108   2093642  
  9230.000000   2096748   2098846   2099482   2098467   2095920  
  9220.000000   2092268   2088140   2084215   2081037   2078877  
  9210.000000   2077727   2077374   2077550   2078015   2078572  
  9200.000000   2079035   2079176   2078724   2077391   2074982  
  9190.000000   2071498   2067266   2062906   2059228   2056968  
  9180.000000   2056572   2058091   2061175   2065207   2069422  
  9170.000000   2073142   2075885   2077428   2077766   2077034  
  9160.000000   2075494   2073438   2071207   2069071   2067218  
  9150.000000   2065688   2064380   2063122   2061714   2060108  
  9140.000000   2058389   2056852   2055814   2055541   2056068  
  9130.000000   2057163   2058369   2059142   2059045   2057847  
  9120.000000   2055592   2052550   2049130   2045751   2042747  
  9110.000000   2040350   2038704   2037862   2037768   2038247  
  9100.000000   2039028   2039752   2040054   2039654   2038467  
  9090.000000   2036626   2034439   2032287   2030513   2029345  
  9080.000000   2028874   2029077   2029883   2031220   2033011  
  9070.000000   2035108   2037213   2038903   2039700   2039217  
  9060.000000   2037296   2034132   2030290   2026528   2023585  
  9050.000000   2021934   2021673   2022473   2023692   2024607  
  9040.000000   2024646   2023538   2021347   2018446   2015395  
  9030.000000   2012792   2011104   2010586   2011264   2012922  
  9020.000000   2015162   2017490   2019448   2020706   2021120  
  9010.000000   2020759   2019847   2018689   2017566   2016644  
  9000.000000   2015981   2015513   2015141   2014754   2014281  
  8990.000000   2013689   2012948   2012040   2010914   2009584  
  8980.000000   2008133   2006765   2005756   2005393   2005856  
  8970.000000   2007114   2008893   2010717   2012060   2012479  
  8960.000000   2011771   2010022   2007594   2004989   2002678  
  8950.000000   2000997   2000065   1999837   2000138   2000783  
  8940.000000   2001614   2002537   2003466   2004303   2004894  
  8930.000000   2005040   2004550   2003286   2001283   1998708  
  8920.000000   1995905   1993227   1991011   1989432   1988488  
  8910.000000   1988030   1987820   1987683   1987543   1987529  
  8900.000000   1987885   1988913   1990808   1993578   1996981  
  8890.000000   2000542   2003664   2005750   2006396   2005456  
  8880.000000   2003107   1999748   1995928   1992196   1989008  
  8870.000000   1986633   1985119   1984345   1984067   1984039  
  8860.000000   1984030   1983942   1983766   1983618   1983632  
  8850.000000   1983939   1984601   1985568   1986712   1987816  
  8840.000000   1988670   1989075   1988908   1988120   1986769  
  8830.000000   1984993   1982997   1981015   1979282   1977977  
  8820.000000   1977189   1976887   1976932   1977122   1977260  
  8810.000000   1977219   1976992   1976677   1976444   1976443  
  8800.000000   1976747   1977315   1978024   1978730   1979340  
  8790.000000   1979860   1980390   1981074   1982012   1983196  
  8780.000000   1984495   1985670   1986468   1986684   1986238  
  8770.000000   1985162   1983584   1981673   1979607   1977571  
  8760.000000   1975749   1974345   1973549   1973511   1974262  
  8750.000000   1975683   1977480   1979260   1980624   1981297  
  8740.000000   1981223   1980562   1979658   1978880   1978541  
  8730.000000   1978765   1979510   1980568   1981677   1982600  
  8720.000000   1983204   1983484   1983544   1983559   1983703  
  8710.000000   1984119   1984860   1985909   1987160   1988477  
  8700.000000   1989707   1990754   1991594   1992294   1992969  
  8690.000000   1993728   1994614   1995541   1996331   1996723  
  8680.000000   1996499   1995533   1993873   1991737   1989463  
  8670.000000   1987447   1986027   1985448   1985811   1987093  
  8660.000000   1989154   1991757   1994585   1997268   1999447  
  8650.000000   2000817   2001230   2000713   1999516   1998027  
  8640.000000   1996713   1995950   1995954   1996716   1998049  
  8630.000000   1999679   2001326   2002816   2004092   2005225  
  8620.000000   2006320   2007476   2008726   2010023   2011279  
  8610.000000   2012381   2013252   2013833   2014112   2014099  
  8600.000000   2013838   2013403   2012904   2012485   2012307  
  8590.000000   2012509   2013172   2014287   2015748   2017385  
  8580.000000   2018989   2020402   2021530   2022394   2023091  
  8570.000000   2023777   2024606   2025682   2027025   2028547  
  8560.000000   2030083   2031399   2032249   2032428   2031834  
  8550.000000   2030494   2028578   2026382   2024278   2022634  
  8540.000000   2021714   2021642   2022357   2023661   2025248  
  8530.000000   2026816   2028144   2029145   2029876   2030476  
  8520.000000   2031117   2031891   2032784   2033647   2034285  
  8510.000000   2034513   2034277   2033686   2033014   2032615  
  8500.000000   2032797   2033713   2035288   2037243   2039177  
  8490.000000   2040715   2041631   2041916   2041771   2041519  
  8480.000000   2041489   2041893   2042767   2043980   2045306  
  8470.000000   2046512   2047439   2048040   2048373   2048566  
  8460.000000   2048752   2049046   2049501   2050127   2050887  
  8450.000000   2051718   2052547   2053296   2053898   2054304  
  8440.000000   2054498   2054502   2054358   2054136   2053899  
  8430.000000   2053715   2053638   2053723   2054019   2054558  
  8420.000000   2055312   2056194   2057038   2057641   2057812  
  8410.000000   2057453   2056611   2055483   2054360   2053530  
  8400.000000   2053179   2053322   2053800   2054355   2054728  
  8390.000000   2054771   2054470   2053957   2053412   2053007  
  8380.000000   2052817   2052823   2052937   2053059   2053120  
  8370.000000   2053074   2052887   2052492   2051790   2050669  
  8360.000000   2049070   2047044   2044795   2042627   2040863  
  8350.000000   2039730   2039274   2039356   2039696   2040004  
  8340.000000   2040090   2039939   2039699   2039596   2039823  
  8330.000000   2040438   2041333   2042267   2042965   2043215  
  8320.000000   2042941   2042215   2041216   2040158   2039205  
  8310.000000   2038429   2037799   2037210   2036529   2035636  
  8300.000000   2034457   2032978   2031247   2029380   2027525  
  8290.000000   2025855   2024507   2023576   2023076   2022947  
  8280.000000   2023064   2023277   2023447   2023478   2023327  
  8270.000000   2022991   2022484   2021821   2021022   2020113  
  8260.000000   2019149   2018209   2017392   2016786   2016432  
  8250.000000   2016299   2016273   2016196   2015903   2015293  
  8240.000000   2014343   2013133   2011801   2010514   2009406  
  8230.000000   2008561   2007970   2007577   2007265   2006927  
  8220.000000   2006461   2005806   2004936   2003858   2002603  
  8210.000000   2001202   1999675   1998007   1996165   1994105  
  8200.000000   1991807   1989312   1986724   1984227   1982028  
  8190.000000   1980334   1979261   1978816   1978858   1979134  
  8180.000000   1979337   1979179   1978466   1977129   1975239  
  8170.000000   1972965   1970529   1968147   1965982   1964130  
  8160.000000   1962614   1961407   1960447   1959657   1958940  
  8150.000000   1958196   1957311   1956180   1954722   1952907  
  8140.000000   1950781   1948448   1946075   1943825   1941840  
  8130.000000   1940185   1938858   1937794   1936906   1936124  
  8120.000000   1935416   1934797   1934304   1933967   1933781  
  8110.000000   1933697   1933640   1933532   1933329   1933027  
  8100.000000   1932671   1932323   1932036   1931824   1931650  
  8090.000000   1931443   1931104   1930553   1929724   1928602  
  8080.000000   1927199   1925578   1923825   1922057   1920388  
  8070.000000   1918913   1917670   1916615   1915624   1914511  
  8060.000000   1913091   1911240   1908957   1906381   1903760  
  8050.000000   1901383   1899485   1898183   1897443   1897113  
  8040.000000   1896990   1896897   1896735   1896499   1896244  
  8030.000000   1896029   1895874   1895726   1895501   1895093  
  8020.000000   1894457   1893586   1892545   1891406   1890230  
  8010.000000   1889046   1887848   1886646   1885477   1884441  
  8000.000000   1883662   1883262   1883291   1883694   1884306  
  7990.000000   1884878   1885150   1884911   1884065   1882640  
  7980.000000   1880791   1878752   1876788   1875143   1873993  
  7970.000000   1873429   1873431   1873897   1874640   1875451  
  7960.000000   1876123   1876512   1876550   1876260   1875721  
  7950.000000   1875035   1874288   1873510   1872697   1871813  
  7940.000000   1870842   1869800   1868746   1867753   1866875  
  7930.000000   1866115   1865417   1864689   1863849   1862870  
  7920.000000   1861814   1860822   1860072   1859717   1859825  
  7910.000000   1860353   1861155   1862032   1862798   1863324  
  7900.000000   1863579   1863605   1863495   1863330   1863160  
  7890.000000   1862973   1862726   1862353   1861821   1861127  
  7880.000000   1860317   1859471   1858674   1858009   1857529  
  7870.000000   1857266   1857216   1857360   1857652   1858035  
  7860.000000   1858437   1858789   1859032   1859128   1859073  
  7850.000000   1858887   1858608   1858273   1857907   1857516  
  7840.000000   1857098   1856652   1856193   1855757   1855388  
  7830.000000   1855130   1854992   1854945   1854917   1854820  
  7820.000000   1854566   1854108   1853444   1852628   1851743  
  7810.000000   1850881   1850115   1849484   1848988   1848603  
  7800.000000   1848280   1847974   1847638   1847246   1846781  
  7790.000000   1846261   1845722   1845216   1844795   1844485  
  7780.000000   1844271   1844082   1843811   1843331   1842550  
  7770.000000   1841438   1840052   1838534   1837071   1835854  
  7760.000000   1835022   1834641   1834678   1835032   1835555  
  7750.000000   1836090   1836497   1836671   1836550   1836113  
  7740.000000   1835389   1834441   1833372   1832293   1831313  
  7730.000000   1830501   1829872   1829388   1828969   1828531  
  7720.000000   1828011   1827399   1826725   1826052   1825427  
  7710.000000   1824866   1824336   1823771   1823102   1822291  
  7700.000000   1821351   1820349   1819381   1818541   1817887  
  7690.000000   1817422   1817097   1816831   1816549   1816195  
  7680.000000   1815757   1815248   1814698   1814124   1813530  
  7670.000000   1812897   1812215   1811488   1810759   1810102  
  7660.000000   1809608   1809353   1809365   1809613   1810002  
  7650.000000   1810405   1810699   1810802   1810701   1810443  
  7640.000000   1810122   1809831   1809633   1809530   1809470  
  7630.000000   1809361   1809115   1808671   1808027   1807232  
  7620.000000   1806370   1805536   1804809   1804249   1803888  
  7610.000000   1803739   1803800   1804049   1804435   1804878  
  7600.000000   1805275   1805514   1805514   1805234   1804710  
  7590.000000   1804032   1803330   1802722   1802295   1802065  
  7580.000000   1802000   1802035   1802113   1802209   1802331  
  7570.000000   1802520   1802808   1803209   1803698   1804223  
  7560.000000   1804728   1805171   1805543   1805854   1806129  
  7550.000000   1806369   1806552   1806628   1806546   1806277  
  7540.000000   1805844   1805323   1804832   1804501   1804435  
  7530.000000   1804686   1805242   1806027   1806938   1807858  
  7520.000000   1808697   1809384   1809894   1810224   1810411  
  7510.000000   1810508   1810597   1810765   1811111   1811713  
  7500.000000   1812621   1813826   1815265   1816820   1818359  
  7490.000000   1819748   1820897   1821767   1822383   1822815  
  7480.000000   1823172   1823553   1824051   1824728   1825622  
  7470.000000   1826741   1828075   1829585   1831210   1832869  
  7460.000000   1834474   1835943   1837222   1838306   1839244  
  7450.000000   1840123   1841047   1842102   1843333   1844728  
  7440.000000   1846226   1847734   1849171   1850478   1851642  
  7430.000000   1852681   1853643   1854572   1855509   1856471  
  7420.000000   1857469   1858506   1859601   1860775   1862069  
  7410.000000   1863513   1865134   1866934   1868898   1870983  
  7400.000000   1873138   1875306   1877445   1879527   1881556  
  7390.000000   1883555   1885568   1887633   1889773   1891976  
  7380.000000   1894198   1896368   1898419   1900300   1902001  
  7370.000000   1903551   1905000   1906406   1907808   1909222  
  7360.000000   1910640   1912058   1913477   1914926   1916444  
  7350.000000   1918071   1919817   1921655   1923514   1925306  
  7340.000000   1926956   1928426   1929727   1930906   1932027  
  7330.000000   1933142   1934276   1935423   1936558   1937657  
  7320.000000   1938710   1939731   1940750   1941810   1942948  
  7310.000000   1944195   1945567   1947073   1948702   1950435  
  7300.000000   1952236   1954054   1955831   1957511   1959056  
  7290.000000   1960449   1961700   1962825   1963847   1964774  
  7280.000000   1965602   1966324   1966944   1967484   1967987  
  7270.000000   1968508   1969094   1969780   1970576   1971481  
  7260.000000   1972492   1973601   1974812   1976106   1977450  
  7250.000000   1978769   1979987   1981020   1981855   1982536  
  7240.000000   1983206   1984041   1985227   1986877   1989019  
  7230.000000   1991566   1994372   1997261   2000104   2002820  
  7220.000000   2005411   2007903   2010358   2012811   2015304  
  7210.000000   2017845   2020461   2023159   2025961   2028860  
  7200.000000   2031844   2034870   2037905   2040921   2043933  
  7190.000000   2046977   2050112   2053377   2056784   2060286  
  7180.000000   2063817   2067288   2070656   2073910   2077109  
  7170.000000   2080324   2083644   2087114   2090755   2094529  
  7160.000000   2098397   2102305   2106232   2110163   2114114  
  7150.000000   2118090   2122115   2126194   2130360   2134631  
  7140.000000   2139056   2143657   2148463   2153458   2158624  
  7130.000000   2163908   2169284   2174715   2180213   2185782  
  7120.000000   2191461   2197259   2203195   2209249   2215408  
  7110.000000   2221631   2227903   2234195   2240510   2246841  
  7100.000000   2253205   2259611   2266073   2272596   2279182  
  7090.000000   2285821   2292507   2299228   2305986   2312778  
  7080.000000   2319604   2326446   2333266   2340006   2346611  
  7070.000000   2353040   2359300   2365445   2371573   2377792  
  7060.000000   2384179   2390750   2397454   2404187   2410834  
  7050.000000   2417310   2423594   2429727   2435791   2441873  
  7040.000000   2448026   2454261   2460547   2466844   2473123  
  7030.000000   2479381   2485628   2491879   2498119   2504312  
  7020.000000   2510397   2516327   2522076   2527668   2533150  
  7010.000000   2538585   2544009   2549435   2554834   2560176  
  7000.000000   2565425   2570575   2575629   2580606   2585500  
  6990.000000   2590307   2594997   2599572   2604036   2608448  
  6980.000000   2612864   2617348   2621904   2626502   2631044  
  6970.000000   2635427   2639543   2643336   2646786   2649933  
  6960.000000   2652825   2655536   2658115   2660622   2663095  
  6950.000000   2665583   2668113   2670714   2673374   2676073  
  6940.000000   2678761   2681403   2683960   2686428   2688804  
  6930.000000   2691108   2693341   2695514   2697624   2699682  
  6920.000000   2701700   2703701   2705687   2707649   2709536  
  6910.000000   2711288   2712842   2714174   2715298   2716282  
  6900.000000   2717210   2718167   2719197   2720312   2721483  
  6890.000000   2722676   2723867   2725058   2726261   2727490  
  6880.000000   2728735   2729969   2731151   2732256   2733283  
  6870.000000   2734269   2735261   2736304   2737406   2738542  
  6860.000000   2739658   2740706   2741657   2742524   2743337  
  6850.000000   2744132   2744917   2745674   2746363   2746953  
  6840.000000   2747440   2747863   2748284   2748764   2749325  
  6830.000000   2749952   2750587   2751169   2751660   2752069  
  6820.000000   2752436   2752816   2753239   2753696   2754136  
  6810.000000   2754502   2754752   2754892   2754963   2755033  
  6800.000000   2755145   2755307   2755474   2755579   2755561  
  6790.000000   2755402   2755135   2754833   2754577   2754422  
  6780.000000   2754376   2754401   2754430   2754398   2754264  
  6770.000000   2754022   2753696   2753327   2752959   2752627  
  6760.000000   2752356   2752160   2752041   2751988   2751978  
  6750.000000   2751977   2751952   2751879   2751758   2751609  
  6740.000000   2751464   2751354   2751295   2751279   2751284  
  6730.000000   2751285   2751270   2751245   2751232   2751250  
  6720.000000   2751303   2751378   2751440   2751465   2751440  
  6710.000000   2751386   2751336   2751329   2751378   2751468  
  6700.000000   2751553   2751579   2751501   2751304   2750994  
  6690.000000   2750600   2750140   2749627   2749052   2748408  
  6680.000000   2747695   2746938   2746169   2745430   2744738  
  6670.000000   2744090   2743451   2742791   2742078   2741319  
  6660.000000   2740529   2739739   2738953   2738151   2737278  
  6650.000000   2736277   2735099   2733743   2732246   2730682  
  6640.000000   2729128   2727643   2726245   2724925   2723644  
  6630.000000   2722365   2721058   2719713   2718327   2716908  
  6620.000000   2715455   2713976   2712476   2710976   2709495  
  6610.000000   2708059   2706676   2705340   2704020   2702679  
  6600.000000   2701277   2699792   2698215   2696555   2694828  
  6590.000000   2693049   2691231   2689390   2687546   2685730  
  6580.000000   2683974   2682309   2680744   2679268   2677848  
  6570.000000   2676439   2674999   2673499   2671927   2670284  
  6560.000000   2668579   2666818   2665006   2663149   2661261  
  6550.000000   2659366   2657501   2655703   2654007   2652431  
  6540.000000   2650979   2649642   2648400   2647227   2646093  
  6530.000000   2644967   2643814   2642604   2641322   2639966  
  6520.000000   2638557   2637128   2635713   2634329   2632973  
  6510.000000   2631617   2630226   2628775   2627256   2625693  
  6500.000000   2624123   2622590   2621120   2619721   2618379  
  6490.000000   2617073   2615785   2614512   2613257   2612026  
  6480.000000   2610814   2609598   2608347   2607035   2605650  
  6470.000000   2604213   2602764   2601358   2600040   2598834  
  6460.000000   2597731   2596699   2595692   2594661   2593571  
  6450.000000   2592396   2591129   2589769   2588336   2586852  
  6440.000000   2585359   2583901   2582526   2581268   2580148  
  6430.000000   2579160   2578290   2577506   2576785   2576101  
  6420.000000   2575442   2574796   2574158   2573522   2572897  
  6410.000000   2572292   2571735   2571243   2570835   2570503  
  6400.000000   2570223   2569953   2569654   2569305   2568913  
  6390.000000   2568513   2568150   2567864   2567673   2567564  
  6380.000000   2567499   2567432   2567323   2567146   2566890  
  6370.000000   2566553   2566132   2565621   2565017   2564334  
  6360.000000   2563602   2562876   2562210   2561652   2561211  
  6350.000000   2560864   2560553   2560218   2559803   2559293  
  6340.000000   2558695   2558045   2557372   2556699   2556021  
  6330.000000   2555323   2554582   2553788   2552943   2552070  
  6320.000000   2551190   2550325   2549472   2548621   2547740  
  6310.000000   2546804   2545783   2544664   2543441   2542126  
  6300.000000   2540739   2539313   2537877   2536467   2535102  
  6290.000000   2533790   2532515   2531258   2529987   2528683  
  6280.000000   2527335   2525948   2524527   2523081   2521606  
  6270.000000   2520096   2518540   2516940   2515309   2513674  
  6260.000000   2512061   2510487   2508944   2507402   2505814  
  6250.000000   2504142   2502361   2500482   2498539   2496587  
  6240.000000   2494675   2492841   2491094   2489423   2487799  
  6230.000000   2486190   2484565   2482903   2481191   2479430  
  6220.000000   2477626   2475794   2473953   2472120   2470309  
  6210.000000   2468530   2466787   2465081   2463419   2461811  
  6200.000000   2460270   2458808   2457424   2456102   2454813  
  6190.000000   2453522   2452202   2450842   2449453   2448061  
  6180.000000   2446697   2445383   2444124   2442911   2441727  
  6170.000000   2440556   2439395   2438248   2437127   2436039  
  6160.000000   2434981   2433942   2432906   2431860   2430799  
  6150.000000   2429724   2428640   2427546   2426436   2425296  
  6140.000000   2424121   2422912   2421688   2420474   2419296  
  6130.000000   2418166   2417088   2416045   2415028   2414032  
  6120.000000   2413073   2412173   2411363   2410657   2410056  
  6110.000000   2409533   2409062   2408612   2408170   2407732  
  6100.000000   2407314   2406924   2406571   2406254   2405977  
  6090.000000   2405740   2405565   2405465   2405461   2405543  
  6080.000000   2405692   2405858   2406003   2406088   2406119  
  6070.000000   2406118   2406141   2406237   2406452   2406796  
  6060.000000   2407272   2407852   2408526   2409273   2410098  
  6050.000000   2410995   2411979   2413044   2414203   2415457  
  6040.000000   2416828   2418329   2419986   2421796   2423753  
  6030.000000   2425822   2427970   2430154   2432359   2434571  
  6020.000000   2436804   2439062   2441357   2443679   2446025  
  6010.000000   2448379   2450747   2453125   2455534   2457974  
  6000.000000   2460452   2462948   2465456   2467959   2470469  
  5990.000000   2473000   2475596   2478285   2481105   2484063  
  5980.000000   2487166   2490399   2493757   2497224   2500795  
  5970.000000   2504446   2508164   2511907   2515654   2519370  
  5960.000000   2523060   2526723   2530394   2534089   2537838  
  5950.000000   2541646   2545524   2549472   2553506   2557648  
  5940.000000   2561922   2566352   2570939   2575672   2580513  
  5930.000000   2585419   2590339   2595233   2600057   2604773  
  5920.000000   2609341   2613717   2617864   2621757   2625393  
  5910.000000   2628792   2631988   2635029   2637951   2640799  
  5900.000000   2643602   2646409   2649263   2652225   2655333  
  5890.000000   2658620   2662064   2665621   2669211   2672758  
  5880.000000   2676194   2679488   2682632   2685642   2688530  
  5870.000000   2691301   2693947   2696453   2698813   2701035  
  5860.000000   2703148   2705194   2707212   2709240   2711303  
  5850.000000   2713425   2715624   2717928   2720359   2722931  
  5840.000000   2725634   2728435   2731277   2734099   2736845  
  5830.000000   2739484   2742013   2744445   2746812   2749136  
  5820.000000   2751439   2753729   2756012   2758292   2760570  
  5810.000000   2762851   2765130   2767413   2769690   2771983  
  5800.000000   2774298   2776680   2779131   2781675   2784259  
  5790.000000   2786836   2789288   2791522   2793406   2794858  
  5780.000000   2795778   2796116   2795808   2794844   2793222  
  5770.000000   2791014   2788320   2785311   2782151   2779020  
  5760.000000   2776028   2773257   2770707   2768371   2766208  
  5750.000000   2764206   2762350   2760646   2759087   2757660  
  5740.000000   2756337   2755084   2753885   2752724   2751612  
  5730.000000   2750547   2749532   2748539   2747544   2746511  
  5720.000000   2745435   2744323   2743212   2742140   2741143  
  5710.000000   2740231   2739396   2738615   2737870   2737153  
  5700.000000   2736469   2735830   2735240   2734694   2734169  
  5690.000000   2733647   2733110   2732566   2732022   2731503  
  5680.000000   2731002   2730506   2729960   2729312   2728491  
  5670.000000   2727453   2726156   2724582   2722714   2720552  
  5660.000000   2718102   2715398   2712496   2709490   2706477  
  5650.000000   2703561   2700805   2698245   2695869   2693645  
  5640.000000   2691528   2689483   2687486   2685523   2683584  
  5630.000000   2681653   2679719   2677776   2675843   2673950  
  5620.000000   2672154   2670493   2668998   2667654   2666429  
  5610.000000   2665263   2664110   2662938   2661751   2660571  
  5600.000000   2659436   2658377   2657412   2656543   2655762  
  5590.000000   2655054   2654402   2653784   2653174   2652535  
  5580.000000   2651834   2651043   2650154   2649181   2648160  
  5570.000000   2647131   2646128   2645168   2644246   2643343  
  5560.000000   2642434   2641505   2640547   2639563   2638557  
  5550.000000   2637531   2636481   2635404   2634299   2633173  
  5540.000000   2632037   2630905   2629779   2628661   2627542  
  5530.000000   2626419   2625296   2624187   2623105   2622060  
  5520.000000   2621044   2620034   2618999   2617914   2616768  
  5510.000000   2615576   2614363   2613158   2611975   2610807  
  5500.000000   2609631   2608418   2607148   2605821   2604451  
  5490.000000   2603059   2601653   2600228   2598761   2597232  
  5480.000000   2595630   2593969   2592280   2590606   2588975  
  5470.000000   2587397   2585851   2584302   2582707   2581042  
  5460.000000   2579290   2577458   2575551   2573580   2571554  
  5450.000000   2569486   2567397   2565318   2563286   2561328  
  5440.000000   2559457   2557663   2555926   2554224   2552549  
  5430.000000   2550904   2549307   2547765   2546277   2544817  
  5420.000000   2543367   2541903   2540445   2539024   2537707  
  5410.000000   2536539   2535556   2534739   2534060   2533466  
  5400.000000   2532943   2532480   2532117   2531880   2531809  
  5390.000000   2531894   2532128   2532470   2532918   2533465  
  5380.000000   2534161   2535033   2536131   2537443   2538967  
  5370.000000   2540639   2542441   2544325   2546314   2548402  
  5360.000000   2550646   2553044   2555656   2558471   2561558  
  5350.000000   2564917   2568633   2572705   2577203   2582092  
  5340.000000   2587411   2593105   2599228   2605744   2612738  
  5330.000000   2620177   2628135   2636548   2645467   2654822  
  5320.000000   2664697   2675072   2686086   2697743   2710187  
  5310.000000   2723379   2737405   2752176   2767750   2784047  
  5300.000000   2801162   2819064   2837888   2857625   2878398  
  5290.000000   2900154   2922934   2946596   2971081   2996193  
  5280.000000   3021875   3048013   3074670   3101875   3129785  
  5270.000000   3158446   3187906   3218039   3248665   3279524  
  5260.000000   3310398   3341152   3371754   3402270   3432758  
  5250.000000   3463260   3493670   3523848   3553515   3582507  
  5240.000000   3610620   3637879   3664266   3689952   3714961  
  5230.000000   3739423   3763247   3786435   3808796   3830305  
  5220.000000   3850814   3870407   3889061   3906966   3924151  
  5210.000000   3940784   3956802   3972241   3986910   4000774  
  5200.000000   4013660   4025630   4036650   4046903   4056420  
  5190.000000   4065361   4073682   4081442   4088522   4094957  
  5180.000000   4100664   4105736   4110144   4113999   4117253  
  5170.000000   4119971   4122075   4123622   4124567   4125008  
  5160.000000   4124937   4124451   4123511   4122158   4120312  
  5150.000000   4117997   4115163   4111878   4108147   4104063  
  5140.000000   4099638   4094949   4089993   4084828   4079457  
  5130.000000   4073938   4068275   4062507   4056614   4050607  
  5120.000000   4044455   4038177   4031777   4025305   4018793  
  5110.000000   4012289   4005806   3999356   3992925   3986508  
  5100.000000   3980096   3973702   3967332   3961004   3954718  
  5090.000000   3948477   3942271   3936100   3929962   3923867  
  5080.000000   3917815   3911807   3905818   3899827   3893795  
  5070.000000   3887702   3881534   3875301   3869013   3862691  
  5060.000000   3856337   3849950   3843509   3836998   3830395  
  5050.000000   3823699   3816908   3810042   3803113   3796143  
  5040.000000   3789146   3782143   3775144   3768165   3761212  
  5030.000000   3754290   3747395   3740517   3733652   3726797  
  5020.000000   3719964   3713166   3706434   3699783   3693241  
  5010.000000   3686809   3680501   3674309   3668248   3662316  
  5000.000000   3656539   3650922   3645498   3640266   3635255  
  4990.000000   3630451   3625883   3621527   3617412   3613509  
  4980.000000   3609843   3606385   3603165   3600160   3597418  
  4970.000000   3594931   3592765   3590917   3589452   3588353  
  4960.000000   3587672   3587377   3587513   3588044   3589016  
  4950.000000   3590391   3592206   3594412   3597034   3600013  
  4940.000000   3603374   3607065   3611128   3615526   3620313  
  4930.000000   3625454   3631001   3636920   3643258   3649984  
  4920.000000   3657141   3664699   3672689   3681067   3689840  
  4910.000000   3698955   3708405   3718135   3728137   3738362  
  4900.000000   3748792   3759383   3770107   3780929   3791816  
  4890.000000   3802746   3813679   3824587   3835396   3846054  
  4880.000000   3856451   3866524   3876159   3885317   3893912  
  4870.000000   3901939   3909332   3916108   3922213   3927682  
  4860.000000   3932482   3936680   3940269   3943338   3945889  
  4850.000000   3948005   3949680   3950985   3951915   3952544  
  4840.000000   3952885   3953020   3952974   3952819   3952578  
  4830.000000   3952302   3952002   3951716   3951452   3951235  
  4820.000000   3951073   3950978   3950953   3950997   3951114  
  4810.000000   3951301   3951571   3951927   3952386   3952954  
  4800.000000   3953652   3954485   3955475   3956625   3957954  
  4790.000000   3959453   3961122   3962930   3964852   3966841  
  4780.000000   3968866   3970890   3972900   3974888   3976864  
  4770.000000   3978836   3980816   3982807   3984804   3986795  
  4760.000000   3988764   3990694   3992573   3994400   3996176  
  4750.000000   3997916   3999632   4001339   4003040   4004734  
  4740.000000   4006405   4008036   4009601   4011088   4012487  
  4730.000000   4013806   4015060   4016270   4017459   4018640  
  4720.000000   4019825   4021012   4022203   4023395   4024598  
  4710.000000   4025820   4027090   4028425   4029861   4031414  
  4700.000000   4033111   4034956   4036966   4039141   4041497  
  4690.000000   4044037   4046778   4049721   4052870   4056200  
  4680.000000   4059680   4063247   4066839   4070376   4073804  
  4670.000000   4077068   4080160   4083076   4085857   4088541  
  4660.000000   4091194   4093871   4096643   4099561   4102681  
  4650.000000   4106036   4109643   4113499   4117574   4121828  
  4640.000000   4126202   4130648   4135114   4139570   4143978  
  4630.000000   4148320   4152560   4156670   4160602   4164325  
  4620.000000   4167787   4170966   4173823   4176353   4178533  
  4610.000000   4180378   4181883   4183094   4184025   4184747  
  4600.000000   4185283   4185700   4186002   4186225   4186343  
  4590.000000   4186365   4186245   4185981   4185528   4184883  
  4580.000000   4184006   4182898   4181533   4179928   4178083  
  4570.000000   4176035   4173805   4171440   4168957   4166393  
  4560.000000   4163754   4161063   4158323   4155558   4152774  
  4550.000000   4149992   4147212   4144440   4141664   4138882  
  4540.000000   4136090   4133296   4130516   4127767   4125067  
  4530.000000   4122416   4119808   4117210   4114606   4111958  
  4520.000000   4109276   4106553   4103843   4101167   4098606  
  4510.000000   4096183   4093984   4092024   4090391   4089098  
  4500.000000   4088241   4087829   4087960   4088630   4089936  
  4490.000000   4091862   4094510   4097862   4102021   4106961  
  4480.000000   4112769   4119391   4126890   4135189   4144334  
  4470.000000   4154239   4164940   4176342   4188464   4201195  
  4460.000000   4214533   4228365   4242684   4257394   4272495  
  4450.000000   4287912   4303645   4319630   4335856   4352269  
  4440.000000   4368845   4385537   4402301   4419091   4435837  
  4430.000000   4452494   4468975   4485250   4501238   4516935  
  4420.000000   4532268   4547240   4561759   4575806   4589249  
  4410.000000   4602037   4614020   4625153   4635321   4644543  
  4400.000000   4652791   4660171   4666742   4672674   4678067  
  4390.000000   4683098   4687864   4692514   4697113   4701769  
  4380.000000   4706509   4711393   4716420   4721621   4726988  
  4370.000000   4732543   4738288   4744244   4750411   4756793  
  4360.000000   4763363   4770104   4776959   4783909   4790871  
  4350.000000   4797834   4804695   4811459   4818016   4824394  
  4340.000000   4830500   4836349   4841800   4846731   4850808  
  4330.000000   4853663   4854779   4853716   4850108   4843888  
  4320.000000   4835262   4824794   4813241   4801489   4790319  
  4310.000000   4780356   4771921   4765114   4759805   4755782  
  4300.000000   4752797   4750642   4749181   4748308   4747985  
  4290.000000   4748136   4748753   4749769   4751200   4753010  
  4280.000000   4755228   4757833   4760806   4764094   4767612  
  4270.000000   4771274   4774950   4778517   4781778   4784514  
  4260.000000   4786421   4787199   4786544   4784272   4780321  
  4250.000000   4774847   4768141   4760659   4752853   4745191  
  4240.000000   4737983   4731461   4725659   4720553   4716001  
  4230.000000   4711870   4707998   4704263   4700565   4696830  
  4220.000000   4693047   4689202   4685368   4681596   4678019  
  4210.000000   4674713   4671803   4669331   4667354   4665850  
  4200.000000   4664810   4664162   4663868   4663844   4664056  
  4190.000000   4664423   4664931   4665516   4666187   4666901  
  4180.000000   4667696   4668553   4669535   4670644   4671963  
  4170.000000   4673512   4675382   4677600   4680248   4683333  
  4160.000000   4686912   4690959   4695502   4700489   4705940  
  4150.000000   4711799   4718092   4724765   4731852   4739302  
  4140.000000   4747157   4755371   4763998   4772995   4782418  
  4130.000000   4792222   4802455   4813071   4824117   4835560  
  4120.000000   4847466   4859829   4872729   4886173   4900234  
  4110.000000   4914901   4930210   4946110   4962584   4979539  
  4100.000000   4996916   5014602   5032531   5050617   5068826  
  4090.000000   5087123   5105502   5123953   5142463   5161021  
  4080.000000   5179592   5198173   5216719   5235235   5253653  
  4070.000000   5271953   5290013   5307769   5325061   5341832  
  4060.000000   5357952   5373423   5388165   5402227   5415554  
  4050.000000   5428220   5440184   5451556   5462314   5472575  
  4040.000000   5482292   5491533   5500187   5508271   5515652  
  4030.000000   5522369   5528333   5533620   5538184   5542096  
  4020.000000   5545283   5547818   5549694   5551001   5551708  
  4010.000000   5551950   5551796   5551244   5550058   5548263  
  4000.000000   5546156  
##END= 
