##TITLE= Sample 034 By ssteindl date Montag, November 26 2018
##JCAMP-DX= 4.24
##DATA TYPE= INFRARED SPECTRUM
##ORIGIN= Exported PE Spectrum Data File
##OWNER= Sandra Steindl
##DATE= 18/11/26
##TIME= 11:52:58.00
##SPECTROMETER/DATA SYSTEM= PERKIN-ELMER Frontier FT-IR/NIR IR
##INSTRUMENT PARAMETERS=
  APODIZATION=stark
  DETECTOR=INGAAS
##RESOLUTION= 16.000000
##DELTAX= -2.000000
##XUNITS= 1/CM
##YUNITS= A
##XFACTOR= 1.00
##YFACTOR= 0.00000011920928955078
##FIRSTX= 10000.00
##LASTX= 4000.00
##NPOINTS= 3001
##FIRSTY= 0.262426
##MAXY= 0.600273
##MINY= 0.217260
##XYDATA= (X++(Y..Y))
 10000.000000   2201387   2205640   2209929   2214032   2217299  
  9990.000000   2219098   2219258   2218171   2216448   2214748  
  9980.000000   2213548   2213082   2213184   2213552   2213883  
  9970.000000   2214140   2214415   2214926   2215739   2216737  
  9960.000000   2217569   2217827   2217210   2215648   2213344  
  9950.000000   2210620   2207796   2204975   2202111   2199047  
  9940.000000   2195772   2192506   2189692   2187849   2187263  
  9930.000000   2187938   2189474   2191410   2193370   2195366  
  9920.000000   2197752   2200997   2205399   2210661   2215933  
  9910.000000   2219831   2220997   2218447   2212038   2202539  
  9900.000000   2191483   2180807   2172332   2167456   2166818  
  9890.000000   2170356   2177263   2186239   2195654   2203834  
  9880.000000   2209386   2211420   2209836   2205236   2198890  
  9870.000000   2192277   2186787   2183283   2182001   2182627  
  9860.000000   2184555   2187288   2190540   2194367   2198831  
  9850.000000   2203855   2208966   2213359   2216156   2216650  
  9840.000000   2214670   2210539   2205070   2199209   2193814  
  9830.000000   2189437   2186305   2184442   2183825   2184488  
  9820.000000   2186483   2189730   2193854   2198160   2201737  
  9810.000000   2203784   2203886   2202266   2199760   2197620  
  9800.000000   2197089   2199036   2203572   2210064   2217222  
  9790.000000   2223557   2227783   2229167   2227671   2223786  
  9780.000000   2218304   2211974   2205306   2198519   2191595  
  9770.000000   2184541   2177513   2171026   2165802   2162675  
  9760.000000   2162207   2164511   2169074   2174799   2180260  
  9750.000000   2183961   2184817   2182321   2176806   2169263  
  9740.000000   2161201   2154229   2149770   2148728   2151351  
  9730.000000   2157171   2165097   2173646   2181237   2186560  
  9720.000000   2188853   2188064   2184832   2180241   2175565  
  9710.000000   2171854   2169765   2169392   2170377   2172096  
  9700.000000   2173860   2175217   2175938   2176162   2176137  
  9690.000000   2176217   2176612   2177383   2178386   2179291  
  9680.000000   2179701   2179190   2177474   2174450   2170256  
  9670.000000   2165258   2159936   2154846   2150423   2147008  
  9660.000000   2144720   2143556   2143356   2143894   2144862  
  9650.000000   2145894   2146595   2146531   2145368   2142868  
  9640.000000   2139088   2134297   2129044   2123924   2119491  
  9630.000000   2116078   2113815   2112692   2112656   2113717  
  9620.000000   2115859   2119032   2122973   2127221   2131163  
  9610.000000   2134176   2135885   2136197   2135422   2133999  
  9600.000000   2132371   2130701   2128850   2126491   2123355  
  9590.000000   2119528   2115528   2112253   2110630   2111278  
  9580.000000   2114173   2118621   2123422   2127281   2129197  
  9570.000000   2128776   2126281   2122515   2118531   2115348  
  9560.000000   2113723   2114012   2116159   2119699   2123858  
  9550.000000   2127650   2130068   2130314   2128009   2123371  
  9540.000000   2117184   2110641   2105025   2101332   2100044  
  9530.000000   2100979   2103470   2106570   2109381   2111264  
  9520.000000   2111921   2111396   2109955   2108040   2106164  
  9510.000000   2104888   2104711   2105995   2108808   2112881  
  9500.000000   2117589   2122119   2125670   2127703   2128048  
  9490.000000   2126881   2124561   2121408   2117612   2113181  
  9480.000000   2108139   2102624   2097027   2091929   2087926  
  9470.000000   2085429   2084450   2084667   2085517   2086547  
  9460.000000   2087532   2088619   2090100   2092239   2095026  
  9450.000000   2098118   2100999   2103139   2104295   2104478  
  9440.000000   2103935   2102831   2101125   2098486   2094502  
  9430.000000   2089005   2082308   2075321   2069266   2065369  
  9420.000000   2064308   2066036   2069688   2073975   2077607  
  9410.000000   2079722   2080061   2078847   2076554   2073574  
  9400.000000   2070123   2066198   2061836   2057220   2052868  
  9390.000000   2049434   2047533   2047392   2048741   2050891  
  9380.000000   2052981   2054338   2054660   2054125   2053219  
  9370.000000   2052553   2052610   2053648   2055682   2058557  
  9360.000000   2062025   2065761   2069361   2072292   2073953  
  9350.000000   2073776   2071439   2067017   2061069   2054488  
  9340.000000   2048287   2043281   2039901   2038108   2037513  
  9330.000000   2037597   2037926   2038321   2038798   2039516  
  9320.000000   2040580   2042013   2043734   2045646   2047714  
  9310.000000   2049964   2052467   2055203   2058025   2060593  
  9300.000000   2062482   2063275   2062739   2060896   2058033  
  9290.000000   2054590   2051003   2047609   2044579   2042000  
  9280.000000   2039902   2038374   2037503   2037401   2038037  
  9270.000000   2039266   2040750   2042092   2042931   2043063  
  9260.000000   2042540   2041553   2040398   2039257   2038172  
  9250.000000   2036967   2035375   2033149   2030269   2027001  
  9240.000000   2023888   2021598   2020686   2021427   2023642  
  9230.000000   2026773   2030011   2032607   2034130   2034580  
  9220.000000   2034369   2034099   2034316   2035233   2036629  
  9210.000000   2037943   2038544   2037994   2036261   2033742  
  9200.000000   2031123   2029095   2028042   2027933   2028334  
  9190.000000   2028624   2028254   2026998   2025050   2022928  
  9180.000000   2021213   2020344   2020418   2021246   2022407  
  9170.000000   2023481   2024178   2024419   2024306   2023988  
  9160.000000   2023572   2023001   2022101   2020618   2018399  
  9150.000000   2015384   2011705   2007603   2003452   1999642  
  9140.000000   1996543   1994459   1993582   1994013   1995690  
  9130.000000   1998428   2001908   2005762   2009643   2013274  
  9120.000000   2016480   2019151   2021219   2022586   2023140  
  9110.000000   2022776   2021507   2019495   2017079   2014681  
  9100.000000   2012690   2011325   2010536   2010016   2009279  
  9090.000000   2007895   2005632   2002606   1999206   1996042  
  9080.000000   1993728   1992722   1993178   1994932   1997589  
  9070.000000   2000592   2003376   2005450   2006505   2006401  
  9060.000000   2005172   2003012   2000297   1997507   1995167  
  9050.000000   1993724   1993469   1994411   1996237   1998400  
  9040.000000   2000245   2001217   2000980   1999571   1997374  
  9030.000000   1995007   1993101   1992104   1992158   1993060  
  9020.000000   1994354   1995484   1996006   1995713   1994672  
  9010.000000   1993162   1991537   1990101   1988993   1988185  
  9000.000000   1987530   1986869   1986140   1985395   1984791  
  8990.000000   1984488   1984557   1984921   1985346   1985534  
  8980.000000   1985233   1984349   1983002   1981506   1980255  
  8970.000000   1979601   1979703   1980507   1981736   1983011  
  8960.000000   1983970   1984377   1984193   1983520   1982536  
  8950.000000   1981364   1980035   1978453   1976487   1974060  
  8940.000000   1971270   1968406   1965920   1964297   1963893  
  8930.000000   1964817   1966848   1969527   1972269   1974553  
  8920.000000   1976056   1976719   1976736   1976429   1976137  
  8910.000000   1976072   1976301   1976728   1977172   1977434  
  8900.000000   1977359   1976883   1976024   1974889   1973616  
  8890.000000   1972384   1971353   1970643   1970286   1970197  
  8880.000000   1970198   1970040   1969504   1968469   1966992  
  8870.000000   1965295   1963710   1962586   1962165   1962532  
  8860.000000   1963571   1965049   1966692   1968293   1969752  
  8850.000000   1971061   1972276   1973392   1974347   1974958  
  8840.000000   1975022   1974342   1972840   1970583   1967819  
  8830.000000   1964955   1962472   1960863   1960488   1961537  
  8820.000000   1963921   1967302   1971102   1974643   1977309  
  8810.000000   1978695   1978733   1977664   1975976   1974193  
  8800.000000   1972749   1971838   1971429   1971314   1971259  
  8790.000000   1971129   1970944   1970877   1971116   1971800  
  8780.000000   1972903   1974278   1975695   1976953   1977943  
  8770.000000   1978667   1979205   1979647   1980036   1980340  
  8760.000000   1980492   1980428   1980140   1979679   1979109  
  8750.000000   1978479   1977771   1976939   1975935   1974802  
  8740.000000   1973682   1972817   1972435   1972661   1973404  
  8730.000000   1974368   1975134   1975308   1974697   1973357  
  8720.000000   1971620   1969919   1968655   1968018   1967933  
  8710.000000   1968111   1968201   1967979   1967473   1966979  
  8700.000000   1966957   1967828   1969797   1972712   1976099  
  8690.000000   1979258   1981520   1982410   1981853   1980143  
  8680.000000   1977900   1975848   1974613   1974572   1975770  
  8670.000000   1977997   1980873   1983997   1987029   1989765  
  8660.000000   1992109   1994053   1995592   1996716   1997397  
  8650.000000   1997629   1997462   1997013   1996456   1995980  
  8640.000000   1995734   1995799   1996143   1996659   1997169  
  8630.000000   1997494   1997486   1997059   1996215   1995029  
  8620.000000   1993679   1992373   1991338   1990739   1990667  
  8610.000000   1991092   1991889   1992895   1993979   1995105  
  8600.000000   1996344   1997858   1999811   2002285   2005194  
  8590.000000   2008288   2011218   2013619   2015239   2015980  
  8580.000000   2015937   2015313   2014344   2013214   2012033  
  8570.000000   2010857   2009718   2008691   2007884   2007439  
  8560.000000   2007442   2007914   2008756   2009807   2010870  
  8550.000000   2011798   2012531   2013089   2013560   2014018  
  8540.000000   2014526   2015080   2015659   2016216   2016740  
  8530.000000   2017231   2017714   2018208   2018718   2019242  
  8520.000000   2019761   2020289   2020837   2021455   2022175  
  8510.000000   2023023   2024001   2025078   2026196   2027258  
  8500.000000   2028144   2028697   2028755   2028181   2026930  
  8490.000000   2025093   2022929   2020822   2019198   2018404  
  8480.000000   2018594   2019674   2021329   2023120   2024630  
  8470.000000   2025593   2025972   2025931   2025759   2025737  
  8460.000000   2026069   2026814   2027930   2029299   2030803  
  8450.000000   2032344   2033857   2035298   2036605   2037724  
  8440.000000   2038605   2039246   2039689   2040007   2040277  
  8430.000000   2040533   2040755   2040875   2040809   2040518  
  8420.000000   2040020   2039415   2038835   2038411   2038235  
  8410.000000   2038333   2038670   2039174   2039757   2040331  
  8400.000000   2040806   2041102   2041166   2041008   2040715  
  8390.000000   2040456   2040441   2040862   2041802   2043175  
  8380.000000   2044724   2046088   2046928   2047031   2046385  
  8370.000000   2045172   2043691   2042249   2041040   2040122  
  8360.000000   2039428   2038869   2038396   2038058   2037960  
  8350.000000   2038210   2038818   2039652   2040440   2040851  
  8340.000000   2040618   2039630   2038002   2036021   2034075  
  8330.000000   2032528   2031619   2031420   2031823   2032624  
  8320.000000   2033574   2034470   2035170   2035616   2035796  
  8310.000000   2035736   2035464   2034993   2034337   2033491  
  8300.000000   2032488   2031348   2030126   2028862   2027606  
  8290.000000   2026397   2025262   2024239   2023364   2022719  
  8280.000000   2022396   2022509   2023123   2024238   2025742  
  8270.000000   2027434   2029045   2030308   2031030   2031117  
  8260.000000   2030610   2029614   2028273   2026694   2024934  
  8250.000000   2023013   2020949   2018836   2016828   2015167  
  8240.000000   2014064   2013668   2013964   2014793   2015861  
  8230.000000   2016827   2017387   2017323   2016557   2015119  
  8220.000000   2013144   2010812   2008340   2005956   2003884  
  8210.000000   2002327   2001411   2001174   2001519   2002243  
  8200.000000   2003058   2003670   2003831   2003394   2002328  
  8190.000000   2000695   1998633   1996309   1993913   1991639  
  8180.000000   1989677   1988185   1987255   1986884   1986950  
  8170.000000   1987235   1987455   1987349   1986744   1985602  
  8160.000000   1984027   1982211   1980378   1978709   1977306  
  8150.000000   1976187   1975308   1974606   1974022   1973524  
  8140.000000   1973081   1972669   1972235   1971725   1971085  
  8130.000000   1970283   1969318   1968209   1966983   1965650  
  8120.000000   1964207   1962641   1960961   1959204   1957457  
  8110.000000   1955815   1954356   1953098   1951987   1950912  
  8100.000000   1949750   1948428   1946970   1945514   1944280  
  8090.000000   1943495   1943308   1943710   1944522   1945423  
  8080.000000   1946063   1946145   1945550   1944342   1942766  
  8070.000000   1941139   1939755   1938794   1938276   1938090  
  8060.000000   1938056   1938017   1937895   1937718   1937566  
  8050.000000   1937525   1937596   1937680   1937594   1937131  
  8040.000000   1936160   1934665   1932780   1930733   1928775  
  8030.000000   1927105   1925809   1924874   1924214   1923741  
  8020.000000   1923397   1923178   1923089   1923118   1923190  
  8010.000000   1923179   1922936   1922348   1921389   1920127  
  8000.000000   1918709   1917291   1915990   1914845   1913818  
  7990.000000   1912839   1911845   1910823   1909815   1908888  
  7980.000000   1908088   1907409   1906781   1906098   1905268  
  7970.000000   1904259   1903128   1901997   1901021   1900315  
  7960.000000   1899922   1899789   1899796   1899791   1899649  
  7950.000000   1899301   1898758   1898084   1897380   1896739  
  7940.000000   1896226   1895856   1895604   1895402   1895180  
  7930.000000   1894868   1894436   1893896   1893307   1892756  
  7920.000000   1892337   1892119   1892118   1892300   1892584  
  7910.000000   1892883   1893131   1893310   1893448   1893601  
  7900.000000   1893814   1894093   1894392   1894617   1894668  
  7890.000000   1894473   1894017   1893359   1892608   1891895  
  7880.000000   1891324   1890955   1890781   1890747   1890768  
  7870.000000   1890757   1890645   1890395   1889996   1889471  
  7860.000000   1888853   1888193   1887541   1886954   1886475  
  7850.000000   1886136   1885947   1885892   1885928   1885994  
  7840.000000   1886013   1885910   1885620   1885104   1884358  
  7830.000000   1883420   1882369   1881307   1880351   1879594  
  7820.000000   1879089   1878828   1878745   1878737   1878685  
  7810.000000   1878503   1878149   1877652   1877088   1876560  
  7800.000000   1876161   1875936   1875875   1875907   1875929  
  7790.000000   1875828   1875515   1874945   1874124   1873115  
  7780.000000   1872011   1870931   1869989   1869282   1868863  
  7770.000000   1868735   1868841   1869076   1869299   1869368  
  7760.000000   1869166   1868638   1867793   1866707   1865499  
  7750.000000   1864290   1863182   1862215   1861378   1860611  
  7740.000000   1859835   1858985   1858034   1857006   1855968  
  7730.000000   1855013   1854227   1853671   1853349   1853216  
  7720.000000   1853177   1853116   1852921   1852515   1851876  
  7710.000000   1851034   1850070   1849075   1848131   1847271  
  7700.000000   1846478   1845684   1844799   1843746   1842497  
  7690.000000   1841099   1839664   1838353   1837322   1836683  
  7680.000000   1836464   1836598   1836945   1837326   1837580  
  7670.000000   1837589   1837315   1836781   1836063   1835254  
  7660.000000   1834445   1833700   1833067   1832565   1832210  
  7650.000000   1832001   1831929   1831964   1832051   1832121  
  7640.000000   1832092   1831905   1831539   1831030   1830469  
  7630.000000   1829975   1829666   1829611   1829807   1830173  
  7620.000000   1830569   1830837   1830849   1830543   1829937  
  7610.000000   1829126   1828252   1827463   1826872   1826529  
  7600.000000   1826422   1826480   1826604   1826686   1826641  
  7590.000000   1826410   1825975   1825362   1824634   1823882  
  7580.000000   1823215   1822730   1822505   1822576   1822933  
  7570.000000   1823520   1824250   1825024   1825750   1826365  
  7560.000000   1826834   1827150   1827327   1827386   1827354  
  7550.000000   1827255   1827119   1826971   1826843   1826760  
  7540.000000   1826742   1826798   1826927   1827115   1827338  
  7530.000000   1827570   1827785   1827967   1828113   1828234  
  7520.000000   1828368   1828551   1828831   1829232   1829754  
  7510.000000   1830358   1830987   1831570   1832065   1832464  
  7500.000000   1832814   1833197   1833712   1834431   1835383  
  7490.000000   1836529   1837791   1839050   1840203   1841166  
  7480.000000   1841910   1842448   1842836   1843153   1843497  
  7470.000000   1843965   1844649   1845610   1846869   1848391  
  7460.000000   1850094   1851852   1853537   1855046   1856341  
  7450.000000   1857442   1858428   1859389   1860413   1861540  
  7440.000000   1862777   1864097   1865477   1866909   1868404  
  7430.000000   1869991   1871682   1873463   1875287   1877084  
  7420.000000   1878789   1880358   1881788   1883102   1884341  
  7410.000000   1885538   1886708   1887844   1888939   1889994  
  7400.000000   1891029   1892081   1893189   1894380   1895661  
  7390.000000   1897022   1898444   1899917   1901444   1903037  
  7380.000000   1904701   1906420   1908148   1909821   1911378  
  7370.000000   1912782   1914039   1915193   1916316   1917481  
  7360.000000   1918737   1920104   1921569   1923111   1924704  
  7350.000000   1926337   1928001   1929691   1931383   1933041  
  7340.000000   1934615   1936057   1937337   1938443   1939393  
  7330.000000   1940222   1940974   1941699   1942446   1943266  
  7320.000000   1944195   1945270   1946501   1947885   1949381  
  7310.000000   1950937   1952481   1953954   1955308   1956526  
  7300.000000   1957609   1958575   1959443   1960231   1960947  
  7290.000000   1961593   1962167   1962668   1963093   1963453  
  7280.000000   1963762   1964054   1964368   1964756   1965259  
  7270.000000   1965908   1966701   1967614   1968597   1969591  
  7260.000000   1970544   1971418   1972197   1972873   1973453  
  7250.000000   1973936   1974336   1974667   1974967   1975281  
  7240.000000   1975673   1976190   1976865   1977696   1978675  
  7230.000000   1979770   1980976   1982282   1983704   1985228  
  7220.000000   1986838   1988474   1990091   1991646   1993167  
  7210.000000   1994724   1996448   1998461   2000853   2003618  
  7200.000000   2006670   2009851   2013009   2016023   2018865  
  7190.000000   2021557   2024181   2026792   2029425   2032049  
  7180.000000   2034624   2037105   2039513   2041905   2044395  
  7170.000000   2047080   2050031   2053234   2056631   2060113  
  7160.000000   2063596   2067022   2070400   2073762   2077171  
  7150.000000   2080673   2084306   2088080   2092010   2096089  
  7140.000000   2100328   2104704   2109199   2113750   2118310  
  7130.000000   2122807   2127216   2131514   2135739   2139928  
  7120.000000   2144165   2148518   2153086   2157949   2163196  
  7110.000000   2168873   2174994   2181485   2188222   2195015  
  7100.000000   2201679   2208055   2214088   2219802   2225331  
  7090.000000   2230828   2236451   2242289   2248376   2254668  
  7080.000000   2261104   2267604   2274120   2280617   2287089  
  7070.000000   2293528   2299936   2306307   2312644   2318950  
  7060.000000   2325246   2331546   2337875   2344245   2350670  
  7050.000000   2357161   2363726   2370368   2377068   2383788  
  7040.000000   2390462   2397024   2403421   2409642   2415723  
  7030.000000   2421735   2427755   2433829   2439950   2446061  
  7020.000000   2452075   2457929   2463597   2469132   2474612  
  7010.000000   2480135   2485745   2491433   2497116   2502699  
  7000.000000   2508084   2513241   2518178   2522961   2527647  
  6990.000000   2532290   2536887   2541422   2545850   2550147  
  6980.000000   2554292   2558293   2562143   2565849   2569396  
  6970.000000   2572794   2576059   2579251   2582429   2585670  
  6960.000000   2588998   2592411   2595842   2599220   2602457  
  6950.000000   2605511   2608361   2611029   2613529   2615878  
  6940.000000   2618061   2620068   2621882   2623528   2625044  
  6930.000000   2626511   2627999   2629582   2631289   2633136  
  6920.000000   2635096   2637141   2639215   2641262   2643213  
  6910.000000   2645006   2646584   2647925   2649039   2649980  
  6900.000000   2650826   2651663   2652557   2653542   2654611  
  6890.000000   2655738   2656879   2658004   2659084   2660109  
  6880.000000   2661067   2661949   2662748   2663469   2664128  
  6870.000000   2664761   2665407   2666099   2666851   2667655  
  6860.000000   2668484   2669311   2670115   2670897   2671664  
  6850.000000   2672428   2673190   2673934   2674633   2675264  
  6840.000000   2675809   2676274   2676671   2677020   2677330  
  6830.000000   2677610   2677862   2678100   2678346   2678638  
  6820.000000   2679001   2679446   2679946   2680447   2680881  
  6810.000000   2681189   2681340   2681338   2681212   2681006  
  6800.000000   2680751   2680472   2680184   2679908   2679676  
  6790.000000   2679533   2679515   2679637   2679870   2680152  
  6780.000000   2680395   2680524   2680491   2680297   2679979  
  6770.000000   2679588   2679170   2678747   2678317   2677865  
  6760.000000   2677380   2676859   2676309   2675737   2675147  
  6750.000000   2674538   2673915   2673305   2672755   2672325  
  6740.000000   2672062   2671976   2672015   2672085   2672063  
  6730.000000   2671856   2671423   2670807   2670102   2669427  
  6720.000000   2668871   2668463   2668159   2667866   2667479  
  6710.000000   2666917   2666143   2665175   2664059   2662867  
  6700.000000   2661661   2660506   2659444   2658508   2657704  
  6690.000000   2657013   2656377   2655724   2654970   2654063  
  6680.000000   2652985   2651777   2650505   2649253   2648077  
  6670.000000   2647000   2646000   2645038   2644070   2643070  
  6660.000000   2642029   2640949   2639819   2638616   2637302  
  6650.000000   2635847   2634246   2632540   2630801   2629122  
  6640.000000   2627576   2626199   2624971   2623836   2622709  
  6630.000000   2621517   2620210   2618774   2617220   2615584  
  6620.000000   2613901   2612205   2610520   2608863   2607235  
  6610.000000   2605625   2604011   2602361   2600647   2598856  
  6600.000000   2596995   2595094   2593193   2591335   2589548  
  6590.000000   2587842   2586211   2584646   2583137   2581685  
  6580.000000   2580289   2578944   2577633   2576324   2574981  
  6570.000000   2573572   2572083   2570511   2568874   2567189  
  6560.000000   2565475   2563745   2562021   2560331   2558720  
  6550.000000   2557232   2555901   2554730   2553681   2552685  
  6540.000000   2551665   2550556   2549340   2548038   2546708  
  6530.000000   2545408   2544182   2543035   2541946   2540878  
  6520.000000   2539802   2538709   2537610   2536525   2535469  
  6510.000000   2534442   2533427   2532409   2531378   2530341  
  6500.000000   2529317   2528323   2527365   2526429   2525485  
  6490.000000   2524506   2523475   2522398   2521296   2520197  
  6480.000000   2519121   2518072   2517043   2516020   2514999  
  6470.000000   2513986   2512994   2512031   2511096   2510172  
  6460.000000   2509237   2508279   2507305   2506345   2505437  
  6450.000000   2504613   2503877   2503206   2502552   2501867  
  6440.000000   2501120   2500308   2499455   2498590   2497741  
  6430.000000   2496906   2496073   2495219   2494336   2493436  
  6420.000000   2492556   2491739   2491023   2490420   2489923  
  6410.000000   2489505   2489141   2488815   2488522   2488263  
  6400.000000   2488037   2487831   2487628   2487405   2487154  
  6390.000000   2486873   2486574   2486268   2485955   2485624  
  6380.000000   2485257   2484842   2484383   2483903   2483436  
  6370.000000   2483013   2482638   2482289   2481919   2481481  
  6360.000000   2480943   2480309   2479613   2478906   2478230  
  6350.000000   2477605   2477019   2476441   2475835   2475184  
  6340.000000   2474487   2473770   2473058   2472376   2471728  
  6330.000000   2471106   2470488   2469857   2469196   2468497  
  6320.000000   2467749   2466946   2466074   2465128   2464107  
  6310.000000   2463029   2461915   2460795   2459684   2458588  
  6300.000000   2457490   2456368   2455190   2453938   2452600  
  6290.000000   2451179   2449681   2448123   2446518   2444891  
  6280.000000   2443265   2441670   2440122   2438633   2437187  
  6270.000000   2435762   2434319   2432833   2431281   2429666  
  6260.000000   2427996   2426290   2424556   2422802   2421023  
  6250.000000   2419221   2417399   2415571   2413747   2411931  
  6240.000000   2410111   2408264   2406361   2404386   2402340  
  6230.000000   2400249   2398151   2396091   2394093   2392166  
  6220.000000   2390297   2388464   2386643   2384819   2382985  
  6210.000000   2381140   2379280   2377402   2375501   2373582  
  6200.000000   2371658   2369750   2367883   2366071   2364313  
  6190.000000   2362587   2360866   2359125   2357357   2355572  
  6180.000000   2353797   2352057   2350371   2348739   2347150  
  6170.000000   2345587   2344043   2342519   2341026   2339573  
  6160.000000   2338160   2336772   2335384   2333968   2332509  
  6150.000000   2331009   2329488   2327971   2326489   2325058  
  6140.000000   2323688   2322378   2321128   2319931   2318784  
  6130.000000   2317673   2316580   2315478   2314346   2313168  
  6120.000000   2311953   2310718   2309498   2308317   2307194  
  6110.000000   2306124   2305101   2304107   2303142   2302211  
  6100.000000   2301335   2300524   2299789   2299113   2298478  
  6090.000000   2297856   2297239   2296625   2296041   2295508  
  6080.000000   2295057   2294691   2294412   2294198   2294037  
  6070.000000   2293906   2293799   2293705   2293626   2293555  
  6060.000000   2293504   2293479   2293513   2293630   2293869  
  6050.000000   2294242   2294756   2295386   2296106   2296882  
  6040.000000   2297705   2298576   2299526   2300578   2301761  
  6030.000000   2303070   2304492   2305984   2307513   2309038  
  6020.000000   2310541   2312004   2313426   2314800   2316127  
  6010.000000   2317408   2318655   2319884   2321123   2322398  
  6000.000000   2323731   2325129   2326596   2328121   2329698  
  5990.000000   2331313   2332963   2334635   2336319   2337998  
  5980.000000   2339661   2341302   2342936   2344587   2346296  
  5970.000000   2348094   2350006   2352028   2354148   2356332  
  5960.000000   2358558   2360798   2363044   2365286   2367524  
  5950.000000   2369743   2371941   2374108   2376257   2378405  
  5940.000000   2380588   2382839   2385185   2387631   2390165  
  5930.000000   2392763   2395397   2398045   2400697   2403349  
  5920.000000   2405999   2408636   2411243   2413790   2416255  
  5910.000000   2418619   2420879   2423045   2425134   2427170  
  5900.000000   2429175   2431175   2433189   2435244   2437360  
  5890.000000   2439554   2441829   2444176   2446568   2448977  
  5880.000000   2451367   2453709   2455983   2458172   2460267  
  5870.000000   2462260   2464149   2465938   2467648   2469306  
  5860.000000   2470954   2472629   2474363   2476173   2478063  
  5850.000000   2480029   2482066   2484173   2486357   2488626  
  5840.000000   2490985   2493429   2495948   2498522   2501131  
  5830.000000   2503757   2506387   2509007   2511599   2514145  
  5820.000000   2516619   2519003   2521283   2523464   2525556  
  5810.000000   2527584   2529563   2531514   2533427   2535312  
  5800.000000   2537146   2538939   2540676   2542375   2544017  
  5790.000000   2545606   2547102   2548477   2549659   2550592  
  5780.000000   2551184   2551377   2551101   2550343   2549110  
  5770.000000   2547476   2545539   2543437   2541290   2539210  
  5760.000000   2537249   2535435   2533746   2532164   2530660  
  5750.000000   2529237   2527899   2526661   2525533   2524511  
  5740.000000   2523587   2522746   2521985   2521301   2520702  
  5730.000000   2520182   2519734   2519325   2518932   2518521  
  5720.000000   2518088   2517635   2517190   2516772   2516406  
  5710.000000   2516091   2515825   2515598   2515412   2515275  
  5700.000000   2515208   2515226   2515334   2515521   2515757  
  5690.000000   2516015   2516268   2516508   2516734   2516959  
  5680.000000   2517180   2517393   2517565   2517666   2517651  
  5670.000000   2517487   2517138   2516586   2515808   2514801  
  5660.000000   2513569   2512143   2510570   2508919   2507255  
  5650.000000   2505640   2504104   2502659   2501289   2499982  
  5640.000000   2498724   2497516   2496363   2495270   2494229  
  5630.000000   2493222   2492226   2491225   2490225   2489243  
  5620.000000   2488315   2487464   2486697   2485989   2485299  
  5610.000000   2484578   2483795   2482943   2482047   2481145  
  5600.000000   2480279   2479475   2478739   2478060   2477419  
  5590.000000   2476795   2476171   2475535   2474874   2474174  
  5580.000000   2473422   2472611   2471748   2470856   2469962  
  5570.000000   2469095   2468265   2467466   2466674   2465857  
  5560.000000   2464988   2464055   2463061   2462019   2460944  
  5550.000000   2459848   2458739   2457622   2456507   2455409  
  5540.000000   2454342   2453316   2452330   2451368   2450410  
  5530.000000   2449440   2448455   2447471   2446511   2445597  
  5520.000000   2444737   2443919   2443112   2442283   2441406  
  5510.000000   2440471   2439485   2438465   2437425   2436376  
  5500.000000   2435315   2434240   2433150   2432054   2430961  
  5490.000000   2429880   2428804   2427717   2426585   2425387  
  5480.000000   2424105   2422750   2421337   2419896   2418444  
  5470.000000   2416988   2415516   2414017   2412476   2410893  
  5460.000000   2409270   2407613   2405914   2404165   2402346  
  5450.000000   2400453   2398492   2396495   2394502   2392554  
  5440.000000   2390673   2388858   2387095   2385359   2383638  
  5430.000000   2381926   2380235   2378564   2376918   2375281  
  5420.000000   2373653   2372036   2370477   2369026   2367759  
  5410.000000   2366711   2365892   2365253   2364733   2364259  
  5400.000000   2363802   2363351   2362951   2362634   2362446  
  5390.000000   2362385   2362446   2362591   2362817   2363120  
  5380.000000   2363545   2364119   2364882   2365820   2366920  
  5370.000000   2368117   2369388   2370687   2372037   2373435  
  5360.000000   2374940   2376561   2378363   2380355   2382613  
  5350.000000   2385157   2388068   2391348   2395047   2399115  
  5340.000000   2403562   2408320   2413424   2418846   2424663  
  5330.000000   2430859   2437500   2444533   2451990   2459801  
  5320.000000   2468022   2476629   2485738   2495355   2505605  
  5310.000000   2516461   2528000   2540144   2552946   2566334  
  5300.000000   2580390   2595087   2610548   2626775   2643894  
  5290.000000   2661878   2680790   2700526   2721051   2742193  
  5280.000000   2763895   2786039   2808670   2831797   2855564  
  5270.000000   2880013   2905199   2931009   2957285   2983783  
  5260.000000   3010300   3036706   3062979   3089189   3115407  
  5250.000000   3141682   3167925   3193994   3219618   3244617  
  5240.000000   3268788   3292136   3314650   3336495   3357715  
  5230.000000   3378447   3398631   3418276   3437214   3455413  
  5220.000000   3472729   3489215   3504833   3519735   3533936  
  5210.000000   3547586   3560639   3573146   3584959   3596066  
  5200.000000   3606322   3615782   3624407   3632347   3639623  
  5190.000000   3646378   3652582   3658299   3663436   3668024  
  5180.000000   3671980   3675371   3678155   3680416   3682115  
  5170.000000   3683321   3683990   3684197   3683929   3683283  
  5160.000000   3682258   3680928   3679249   3677239   3674818  
  5150.000000   3671997   3668731   3665076   3661043   3656714  
  5140.000000   3652109   3647300   3642293   3637148   3631873  
  5130.000000   3626526   3621111   3615658   3610138   3604542  
  5120.000000   3598826   3592985   3587009   3580932   3574786  
  5110.000000   3568620   3562461   3556329   3550220   3544133  
  5100.000000   3538058   3532004   3525976   3519993   3514064  
  5090.000000   3508196   3502384   3496625   3490906   3485224  
  5080.000000   3479568   3473935   3468315   3462702   3457088  
  5070.000000   3451472   3445853   3440236   3434615   3428989  
  5060.000000   3423338   3417644   3411885   3406052   3400137  
  5050.000000   3394150   3388101   3382002   3375857   3369668  
  5040.000000   3363432   3357156   3350849   3344535   3338240  
  5030.000000   3331990   3325802   3319683   3313633   3307642  
  5020.000000   3301712   3295838   3290035   3284306   3278669  
  5010.000000   3273116   3267655   3262270   3256973   3251758  
  5000.000000   3246659   3241690   3236902   3232311   3227965  
  4990.000000   3223868   3220060   3216529   3213310   3210381  
  4980.000000   3207766   3205430   3203389   3201599   3200080  
  4970.000000   3198799   3197799   3197063   3196648   3196539  
  4960.000000   3196789   3197372   3198327   3199623   3201296  
  4950.000000   3203316   3205718   3208465   3211583   3215025  
  4940.000000   3218809   3222886   3227279   3231945   3236916  
  4930.000000   3242152   3247682   3253465   3259529   3265841  
  4920.000000   3272431   3279275   3286406   3293800   3301482  
  4910.000000   3309424   3317641   3326102   3334811   3343733  
  4900.000000   3352853   3362127   3371524   3381000   3390528  
  4890.000000   3400079   3409636   3419184   3428697   3438155  
  4880.000000   3447511   3456734   3465772   3474604   3483184  
  4870.000000   3491506   3499527   3507241   3514604   3521617  
  4860.000000   3528248   3534527   3540451   3546076   3551414  
  4850.000000   3556519   3561389   3566059   3570512   3574772  
  4840.000000   3578822   3582697   3586396   3589966   3593419  
  4830.000000   3596804   3600133   3603440   3606717   3609968  
  4820.000000   3613157   3616263   3619248   3622099   3624810  
  4810.000000   3627406   3629919   3632399   3634880   3637396  
  4800.000000   3639949   3642534   3645124   3647694   3650212  
  4790.000000   3652665   3655037   3657335   3659567   3661757  
  4780.000000   3663925   3666101   3668294   3670518   3672753  
  4770.000000   3674984   3677165   3679268   3681252   3683104  
  4760.000000   3684808   3686376   3687807   3689117   3690298  
  4750.000000   3691356   3692273   3693051   3693676   3694163  
  4740.000000   3694510   3694745   3694870   3694910   3694863  
  4730.000000   3694740   3694528   3694226   3693814   3693286  
  4720.000000   3692625   3691833   3690910   3689874   3688748  
  4710.000000   3687568   3686373   3685205   3684103   3683097  
  4700.000000   3682206   3681436   3680782   3680233   3679772  
  4690.000000   3679387   3679067   3678805   3678593   3678419  
  4680.000000   3678265   3678098   3677892   3677608   3677233  
  4670.000000   3676755   3676193   3675571   3674934   3674317  
  4660.000000   3673760   3673287   3672923   3672681   3672583  
  4650.000000   3672640   3672875   3673293   3673901   3674684  
  4640.000000   3675625   3676692   3677857   3679088   3680367  
  4630.000000   3681672   3682989   3684302   3685594   3686844  
  4620.000000   3688030   3689128   3690114   3690968   3691669  
  4610.000000   3692208   3692578   3692795   3692881   3692880  
  4600.000000   3692831   3692786   3692769   3692802   3692873  
  4590.000000   3692967   3693046   3693087   3693051   3692931  
  4580.000000   3692704   3692374   3691929   3691377   3690711  
  4570.000000   3689943   3689070   3688107   3687048   3685896  
  4560.000000   3684637   3683265   3681763   3680138   3678391  
  4550.000000   3676547   3674627   3672664   3670675   3668678  
  4540.000000   3666679   3664680   3662684   3660694   3658720  
  4530.000000   3656765   3654847   3652964   3651138   3649366  
  4520.000000   3647681   3646085   3644628   3643311   3642193  
  4510.000000   3641274   3640621   3640239   3640211   3640550  
  4500.000000   3641350   3642616   3644426   3646754   3649661  
  4490.000000   3653101   3657136   3661734   3666974   3672832  
  4480.000000   3679386   3686594   3694505   3703050   3712252  
  4470.000000   3722033   3732409   3743303   3754722   3766585  
  4460.000000   3778876   3791502   3804429   3817566   3830880  
  4450.000000   3844296   3857794   3871324   3884869   3898398  
  4440.000000   3911892   3925331   3938689   3951959   3965111  
  4430.000000   3978158   3991066   4003857   4016480   4028943  
  4420.000000   4041158   4053103   4064657   4075782   4086348  
  4410.000000   4096324   4105596   4114153   4121903   4128859  
  4400.000000   4134964   4140271   4144771   4148566   4151700  
  4390.000000   4154310   4156469   4158316   4159921   4161397  
  4380.000000   4162796   4164197   4165639   4167185   4168876  
  4370.000000   4170771   4172924   4175388   4178215   4181441  
  4360.000000   4185097   4189187   4193701   4198607   4203839  
  4350.000000   4209332   4214981   4220730   4226495   4232281  
  4340.000000   4238070   4243907   4249756   4255549   4261059  
  4330.000000   4265967   4269827   4272203   4272721   4271222  
  4320.000000   4267786   4262788   4256777   4250433   4244354  
  4310.000000   4239033   4234705   4231443   4229113   4227541  
  4300.000000   4226506   4225860   4225489   4225340   4225385  
  4290.000000   4225587   4225929   4226359   4226870   4227436  
  4280.000000   4228080   4228813   4229660   4230643   4231768  
  4270.000000   4233054   4234482   4236035   4237620   4239108  
  4260.000000   4240270   4240851   4240568   4239208   4236653  
  4250.000000   4232953   4228291   4222991   4217408   4211910  
  4240.000000   4206763   4202156   4198131   4194668   4191655  
  4230.000000   4188978   4186503   4184121   4181740   4179284  
  4220.000000   4176723   4174035   4171265   4168454   4165712  
  4210.000000   4163119   4160789   4158777   4157145   4155889  
  4200.000000   4155004   4154435   4154139   4154033   4154068  
  4190.000000   4154162   4154291   4154405   4154529   4154658  
  4180.000000   4154863   4155162   4155635   4156290   4157196  
  4170.000000   4158354   4159836   4161654   4163894   4166570  
  4160.000000   4169757   4173441   4177662   4182368   4187578  
  4150.000000   4193227   4199340   4205854   4212800   4220121  
  4140.000000   4227856   4235961   4244496   4253436   4262855  
  4130.000000   4272734   4283127   4293989   4305347   4317135  
  4120.000000   4329375   4342018   4355101   4368600   4382556  
  4110.000000   4396938   4411764   4426981   4442583   4458503  
  4100.000000   4474722   4491177   4507843   4524663   4541610  
  4090.000000   4558638   4575720   4592830   4609956   4627106  
  4080.000000   4644290   4661544   4678876   4696314   4713815  
  4070.000000   4731349   4748799   4766088   4783072   4799695  
  4060.000000   4815853   4831552   4846732   4861437   4875612  
  4050.000000   4889312   4902487   4915219   4927469   4939330  
  4040.000000   4950732   4961722   4972160   4982040   4991196  
  4030.000000   4999630   5007207   5013963   5019800   5024755  
  4020.000000   5028718   5031750   5033832   5035074   5035452  
  4010.000000   5035141   5034239   5032790   5030578   5027681  
  4000.000000   5024436  
##END= 
