##TITLE= Sample 036 By ssteindl date Montag, November 26 2018
##JCAMP-DX= 4.24
##DATA TYPE= INFRARED SPECTRUM
##ORIGIN= Exported PE Spectrum Data File
##OWNER= Sandra Steindl
##DATE= 18/11/26
##TIME= 11:54:50.00
##SPECTROMETER/DATA SYSTEM= PERKIN-ELMER Frontier FT-IR/NIR IR
##INSTRUMENT PARAMETERS=
  APODIZATION=stark
  DETECTOR=INGAAS
##RESOLUTION= 16.000000
##DELTAX= -2.000000
##XUNITS= 1/CM
##YUNITS= A
##XFACTOR= 1.00
##YFACTOR= 0.00000011920928955078
##FIRSTX= 10000.00
##LASTX= 4000.00
##NPOINTS= 3001
##FIRSTY= 0.255109
##MAXY= 0.618637
##MINY= 0.206968
##XYDATA= (X++(Y..Y))
 10000.000000   2140013   2143434   2146806   2149759   2151424  
  9990.000000   2151027   2148334   2143867   2138649   2133811  
  9980.000000   2130192   2127904   2126203   2123754   2119226  
  9970.000000   2111920   2102118   2091151   2080957   2073546  
  9960.000000   2070294   2071651   2076988   2084913   2093680  
  9950.000000   2101621   2107559   2110847   2111487   2109832  
  9940.000000   2106551   2102328   2097866   2093682   2090170  
  9930.000000   2087512   2085767   2084950   2085043   2086139  
  9920.000000   2088234   2091315   2095059   2098978   2102359  
  9910.000000   2104547   2105107   2103959   2101423   2097983  
  9900.000000   2094206   2090393   2086650   2082784   2078533  
  9890.000000   2073693   2068239   2062445   2056767   2051872  
  9880.000000   2048423   2047081   2048313   2052322   2058872  
  9870.000000   2067203   2076063   2083871   2089105   2090675  
  9860.000000   2088332   2082732   2075368   2068052   2062479  
  9850.000000   2059641   2059660   2061797   2064753   2067170  
  9840.000000   2067928   2066560   2063176   2058527   2053676  
  9830.000000   2049824   2047970   2048639   2051731   2056377  
  9820.000000   2061211   2064584   2065171   2062278   2056195  
  9810.000000   2048087   2039710   2032857   2028825   2028080  
  9800.000000   2030227   2034310   2039236   2044206   2048854  
  9790.000000   2053243   2057534   2061799   2065797   2069081  
  9780.000000   2071160   2071727   2070842   2068850   2066313  
  9770.000000   2063695   2061260   2058958   2056535   2053695  
  9760.000000   2050231   2046160   2041649   2037023   2032626  
  9750.000000   2028873   2026165   2024933   2025487   2027930  
  9740.000000   2032006   2037064   2042163   2046249   2048491  
  9730.000000   2048460   2046328   2042719   2038583   2034813  
  9720.000000   2032038   2030462   2029876   2029870   2029972  
  9710.000000   2029914   2029649   2029371   2029377   2029912  
  9700.000000   2031041   2032532   2033880   2034369   2033308  
  9690.000000   2030261   2025297   2019079   2012765   2007748  
  9680.000000   2005227   2005864   2009502   2015200   2021466  
  9670.000000   2026684   2029589   2029562   2026801   2022109  
  9660.000000   2016656   2011520   2007487   2004860   2003584  
  9650.000000   2003360   2003813   2004642   2005615   2006689  
  9640.000000   2007894   2009412   2011395   2013951   2016990  
  9630.000000   2020191   2023043   2024904   2025224   2023675  
  9620.000000   2020327   2015622   2010272   2005037   2000519  
  9610.000000   1997012   1994500   1992746   1991430   1990290  
  9600.000000   1989167   1988025   1986901   1985868   1985027  
  9590.000000   1984495   1984432   1984977   1986232   1988141  
  9580.000000   1990514   1993017   1995338   1997279   1998842  
  9570.000000   2000203   2001556   2003015   2004482   2005718  
  9560.000000   2006444   2006521   2006033   2005281   2004619  
  9550.000000   2004245   2004041   2003565   2002231   1999584  
  9540.000000   1995542   1990504   1985213   1980553   1977201  
  9530.000000   1975497   1975336   1976360   1978106   1980204  
  9520.000000   1982407   1984533   1986363   1987577   1987813  
  9510.000000   1986790   1984462   1981098   1977220   1973467  
  9500.000000   1970356   1968164   1966842   1966134   1965688  
  9490.000000   1965199   1964460   1963284   1961486   1958774  
  9480.000000   1954896   1949690   1943311   1936228   1929241  
  9470.000000   1923263   1919139   1917432   1918304   1921562  
  9460.000000   1926678   1933006   1939793   1946352   1952066  
  9450.000000   1956463   1959311   1960593   1960619   1959785  
  9440.000000   1958552   1957095   1955334   1952874   1949289  
  9430.000000   1944394   1938423   1932167   1926671   1923073  
  9420.000000   1922090   1923918   1928045   1933520   1939176  
  9410.000000   1943988   1947245   1948616   1948099   1945889  
  9400.000000   1942351   1937934   1933238   1928884   1925464  
  9390.000000   1923297   1922338   1922137   1921986   1921199  
  9380.000000   1919357   1916525   1913213   1910221   1908299  
  9370.000000   1907859   1908818   1910685   1912819   1914685  
  9360.000000   1916062   1917030   1917880   1918882   1920107  
  9350.000000   1921362   1922255   1922394   1921561   1919803  
  9340.000000   1917439   1914919   1912716   1911158   1910363  
  9330.000000   1910195   1910310   1910274   1909675   1908259  
  9320.000000   1906003   1903193   1900384   1898314   1897663  
  9310.000000   1898826   1901730   1905823   1910231   1913999  
  9300.000000   1916373   1917008   1916034   1913974   1911521  
  9290.000000   1909302   1907722   1906904   1906788   1907170  
  9280.000000   1907815   1908437   1908732   1908407   1907218  
  9270.000000   1905079   1902107   1898715   1895533   1893300  
  9260.000000   1892599   1893679   1896338   1900018   1903951  
  9250.000000   1907397   1909780   1910829   1910561   1909223  
  9240.000000   1907156   1904694   1902143   1899743   1897695  
  9230.000000   1896073   1894833   1893791   1892672   1891201  
  9220.000000   1889143   1886455   1883283   1880033   1877224  
  9210.000000   1875364   1874787   1875570   1877523   1880177  
  9200.000000   1882890   1884950   1885804   1885138   1883012  
  9190.000000   1879795   1876129   1872725   1870178   1868797  
  9180.000000   1868532   1869076   1869996   1870956   1871786  
  9170.000000   1872548   1873399   1874476   1875723   1876852  
  9160.000000   1877435   1877055   1875543   1873009   1869866  
  9150.000000   1866640   1863823   1861719   1860381   1859692  
  9140.000000   1859453   1859538   1859905   1860598   1861614  
  9130.000000   1862861   1864096   1865013   1865352   1864999  
  9120.000000   1864067   1862802   1861531   1860456   1859639  
  9110.000000   1858923   1858053   1856772   1854960   1852696  
  9100.000000   1850254   1848041   1846504   1846009   1846755  
  9090.000000   1848707   1851592   1854931   1858136   1860663  
  9080.000000   1862161   1862589   1862220   1861579   1861258  
  9070.000000   1861734   1863183   1865423   1867977   1870236  
  9060.000000   1871656   1871908   1870920   1868867   1866058  
  9050.000000   1862847   1859550   1856435   1853729   1851624  
  9040.000000   1850242   1849608   1849593   1849963   1850400  
  9030.000000   1850660   1850627   1850394   1850171   1850198  
  9020.000000   1850589   1851273   1852000   1852436   1852320  
  9010.000000   1851553   1850260   1848673   1847042   1845468  
  9000.000000   1843908   1842174   1840088   1837571   1834734  
  8990.000000   1831869   1829344   1827515   1826602   1826696  
  8980.000000   1827758   1829675   1832287   1835375   1838652  
  8970.000000   1841723   1844149   1845517   1845596   1844414  
  8960.000000   1842314   1839848   1837669   1836299   1836010  
  8950.000000   1836728   1838080   1839546   1840589   1840844  
  8940.000000   1840153   1838644   1836665   1834704   1833257  
  8930.000000   1832688   1833146   1834482   1836283   1837950  
  8920.000000   1838899   1838740   1837438   1835353   1833130  
  8910.000000   1831499   1831023   1831924   1834014   1836773  
  8900.000000   1839538   1841729   1843016   1843371   1842981  
  8890.000000   1842156   1841169   1840227   1839429   1838829  
  8880.000000   1838472   1838397   1838606   1838994   1839333  
  8870.000000   1839292   1838551   1836909   1834398   1831283  
  8860.000000   1828018   1825109   1822973   1821842   1821714  
  8850.000000   1822445   1823816   1825650   1827827   1830279  
  8840.000000   1832948   1835691   1838290   1840425   1841793  
  8830.000000   1842142   1841392   1839655   1837266   1834703  
  8820.000000   1832512   1831177   1831029   1832159   1834373  
  8810.000000   1837222   1840070   1842266   1843282   1842909  
  8800.000000   1841303   1838998   1836745   1835334   1835350  
  8790.000000   1837019   1840101   1843954   1847699   1850479  
  8780.000000   1851699   1851173   1849141   1846156   1842901  
  8770.000000   1839955   1837639   1835953   1834661   1833453  
  8760.000000   1832114   1830657   1829307   1828436   1828377  
  8750.000000   1829292   1831066   1833320   1835543   1837216  
  8740.000000   1838019   1837847   1836875   1835415   1833872  
  8730.000000   1832591   1831849   1831794   1832473   1833836  
  8720.000000   1835735   1837961   1840243   1842337   1844074  
  8710.000000   1845430   1846538   1847618   1848896   1850444  
  8700.000000   1852154   1853696   1854676   1854767   1853886  
  8690.000000   1852265   1850395   1848906   1848337   1849002  
  8680.000000   1850876   1853656   1856875   1860038   1862758  
  8670.000000   1864780   1866018   1866477   1866254   1865499  
  8660.000000   1864442   1863391   1862701   1862736   1863742  
  8650.000000   1865808   1868776   1872348   1876113   1879692  
  8640.000000   1882769   1885141   1886703   1887380   1887129  
  8630.000000   1885912   1883810   1881021   1877913   1874946  
  8620.000000   1872591   1871210   1870938   1871689   1873178  
  8610.000000   1875066   1877052   1878967   1880781   1882535  
  8600.000000   1884276   1885965   1887503   1888743   1889603  
  8590.000000   1890103   1890420   1890819   1891585   1892913  
  8580.000000   1894817   1897130   1899540   1901697   1903312  
  8570.000000   1904229   1904447   1904103   1903405   1902582  
  8560.000000   1901814   1901235   1900924   1900938   1901307  
  8550.000000   1902047   1903118   1904422   1905766   1906929  
  8540.000000   1907696   1907939   1907672   1907046   1906333  
  8530.000000   1905810   1905674   1905954   1906513   1907110  
  8520.000000   1907505   1907582   1907395   1907172   1907204  
  8510.000000   1907731   1908813   1910305   1911892   1913200  
  8500.000000   1913953   1914032   1913559   1912767   1911953  
  8490.000000   1911314   1910941   1910774   1910708   1910656  
  8480.000000   1910643   1910805   1911348   1912492   1914382  
  8470.000000   1917063   1920434   1924285   1928330   1932245  
  8460.000000   1935720   1938471   1940327   1941234   1941319  
  8450.000000   1940830   1940113   1939499   1939216   1939343  
  8440.000000   1939765   1940308   1940786   1941177   1941585  
  8430.000000   1942265   1943441   1945228   1947485   1949843  
  8420.000000   1951786   1952832   1952718   1951473   1949430  
  8410.000000   1947104   1945031   1943597   1942930   1942928  
  8400.000000   1943340   1943891   1944366   1944667   1944794  
  8390.000000   1944796   1944691   1944463   1944081   1943551  
  8380.000000   1942965   1942479   1942304   1942600   1943422  
  8370.000000   1944651   1946016   1947169   1947802   1947744  
  8360.000000   1947014   1945817   1944491   1943381   1942744  
  8350.000000   1942671   1943085   1943781   1944495   1944995  
  8340.000000   1945147   1944954   1944529   1944061   1943735  
  8330.000000   1943690   1943962   1944491   1945136   1945724  
  8320.000000   1946103   1946192   1945991   1945585   1945101  
  8310.000000   1944662   1944337   1944117   1943920   1943616  
  8300.000000   1943082   1942248   1941125   1939824   1938508  
  8290.000000   1937376   1936570   1936187   1936226   1936642  
  8280.000000   1937331   1938175   1939040   1939787   1940273  
  8270.000000   1940346   1939882   1938795   1937096   1934886  
  8260.000000   1932367   1929786   1927388   1925372   1923836  
  8250.000000   1922811   1922254   1922118   1922346   1922892  
  8240.000000   1923680   1924587   1925431   1925987   1926053  
  8230.000000   1925497   1924331   1922701   1920874   1919147  
  8220.000000   1917764   1916862   1916433   1916378   1916532  
  8210.000000   1916751   1916909   1916933   1916758   1916325  
  8200.000000   1915561   1914412   1912870   1910999   1908944  
  8190.000000   1906883   1904983   1903342   1901960   1900770  
  8180.000000   1899666   1898582   1897503   1896496   1895649  
  8170.000000   1895030   1894633   1894363   1894070   1893595  
  8160.000000   1892842   1891795   1890523   1889134   1887734  
  8150.000000   1886382   1885091   1883841   1882625   1881465  
  8140.000000   1880416   1879533   1878833   1878279   1877770  
  8130.000000   1877195   1876468   1875583   1874615   1873700  
  8120.000000   1872963   1872467   1872162   1871897   1871468  
  8110.000000   1870688   1869464   1867809   1865851   1863767  
  8100.000000   1861729   1859851   1858170   1856666   1855290  
  8090.000000   1854019   1852866   1851884   1851125   1850617  
  8080.000000   1850329   1850181   1850065   1849879   1849564  
  8070.000000   1849104   1848527   1847867   1847150   1846371  
  8060.000000   1845502   1844516   1843412   1842231   1841054  
  8050.000000   1839979   1839079   1838377   1837821   1837312  
  8040.000000   1836721   1835952   1834959   1833772   1832475  
  8030.000000   1831176   1829965   1828877   1827892   1826937  
  8020.000000   1825931   1824805   1823543   1822176   1820786  
  8010.000000   1819473   1818333   1817435   1816805   1816421  
  8000.000000   1816226   1816131   1816050   1815899   1815633  
  7990.000000   1815232   1814722   1814143   1813548   1812974  
  7980.000000   1812441   1811951   1811506   1811121   1810840  
  7970.000000   1810725   1810832   1811180   1811718   1812321  
  7960.000000   1812811   1813013   1812805   1812167   1811191  
  7950.000000   1810049   1808937   1808011   1807340   1806893  
  7940.000000   1806578   1806275   1805902   1805422   1804844  
  7930.000000   1804198   1803497   1802739   1801904   1801000  
  7920.000000   1800087   1799292   1798786   1798723   1799185  
  7910.000000   1800126   1801368   1802644   1803670   1804228  
  7900.000000   1804231   1803733   1802908   1801979   1801155  
  7890.000000   1800568   1800261   1800186   1800244   1800324  
  7880.000000   1800332   1800212   1799947   1799559   1799084  
  7870.000000   1798579   1798093   1797675   1797353   1797142  
  7860.000000   1797038   1797022   1797065   1797134   1797189  
  7850.000000   1797182   1797063   1796775   1796274   1795536  
  7840.000000   1794581   1793461   1792269   1791109   1790070  
  7830.000000   1789221   1788582   1788154   1787913   1787840  
  7820.000000   1787915   1788119   1788413   1788734   1788990  
  7810.000000   1789074   1788899   1788411   1787618   1786577  
  7800.000000   1785381   1784122   1782873   1781678   1780555  
  7790.000000   1779522   1778598   1777820   1777211   1776779  
  7780.000000   1776485   1776253   1775980   1775569   1774962  
  7770.000000   1774145   1773157   1772065   1770942   1769846  
  7760.000000   1768819   1767891   1767089   1766452   1766016  
  7750.000000   1765805   1765803   1765950   1766140   1766250  
  7740.000000   1766169   1765825   1765209   1764366   1763382  
  7730.000000   1762353   1761365   1760473   1759702   1759050  
  7720.000000   1758498   1758020   1757586   1757166   1756733  
  7710.000000   1756266   1755746   1755166   1754527   1753840  
  7700.000000   1753129   1752421   1751759   1751185   1750741  
  7690.000000   1750449   1750302   1750263   1750264   1750228  
  7680.000000   1750096   1749844   1749497   1749113   1748758  
  7670.000000   1748473   1748257   1748056   1747794   1747392  
  7660.000000   1746814   1746074   1745239   1744408   1743674  
  7650.000000   1743110   1742742   1742568   1742559   1742680  
  7640.000000   1742889   1743135   1743358   1743478   1743419  
  7630.000000   1743120   1742568   1741797   1740896   1739971  
  7620.000000   1739120   1738408   1737857   1737459   1737196  
  7610.000000   1737069   1737093   1737297   1737689   1738233  
  7600.000000   1738845   1739398   1739765   1739853   1739637  
  7590.000000   1739166   1738555   1737936   1737430   1737101  
  7580.000000   1736955   1736941   1736985   1737010   1736967  
  7570.000000   1736840   1736651   1736441   1736265   1736171  
  7560.000000   1736194   1736346   1736631   1737032   1737540  
  7550.000000   1738138   1738822   1739581   1740407   1741279  
  7540.000000   1742171   1743047   1743886   1744674   1745428  
  7530.000000   1746170   1746935   1747731   1748548   1749341  
  7520.000000   1750056   1750645   1751093   1751431   1751734  
  7510.000000   1752101   1752623   1753361   1754332   1755509  
  7500.000000   1756837   1758248   1759684   1761098   1762461  
  7490.000000   1763752   1764965   1766086   1767118   1768056  
  7480.000000   1768910   1769680   1770378   1771016   1771625  
  7470.000000   1772258   1772993   1773912   1775085   1776538  
  7460.000000   1778238   1780089   1781963   1783725   1785303  
  7450.000000   1786689   1787955   1789211   1790577   1792128  
  7440.000000   1793880   1795787   1797784   1799806   1801827  
  7430.000000   1803849   1805899   1807991   1810113   1812216  
  7420.000000   1814237   1816127   1817881   1819539   1821191  
  7410.000000   1822929   1824824   1826888   1829072   1831280  
  7400.000000   1833403   1835354   1837097   1838661   1840130  
  7390.000000   1841624   1843257   1845113   1847219   1849538  
  7380.000000   1851974   1854407   1856719   1858839   1860757  
  7370.000000   1862523   1864226   1865956   1867771   1869666  
  7360.000000   1871586   1873435   1875126   1876606   1877884  
  7350.000000   1879030   1880153   1881367   1882748   1884331  
  7340.000000   1886087   1887965   1889895   1891826   1893725  
  7330.000000   1895582   1897395   1899166   1900895   1902581  
  7320.000000   1904219   1905806   1907340   1908817   1910233  
  7310.000000   1911583   1912860   1914067   1915203   1916278  
  7300.000000   1917297   1918270   1919205   1920118   1921024  
  7290.000000   1921945   1922888   1923851   1924803   1925701  
  7280.000000   1926490   1927137   1927639   1928039   1928416  
  7270.000000   1928863   1929459   1930235   1931171   1932196  
  7260.000000   1933224   1934171   1934997   1935697   1936319  
  7250.000000   1936922   1937577   1938336   1939243   1940319  
  7240.000000   1941590   1943056   1944717   1946538   1948469  
  7230.000000   1950428   1952344   1954152   1955835   1957408  
  7220.000000   1958940   1960502   1962179   1964017   1966051  
  7210.000000   1968268   1970651   1973156   1975747   1978382  
  7200.000000   1981035   1983678   1986306   1988915   1991531  
  7190.000000   1994175   1996892   1999701   2002626   2005653  
  7180.000000   2008766   2011933   2015136   2018365   2021640  
  7170.000000   2024980   2028425   2031983   2035663   2039429  
  7160.000000   2043248   2047058   2050830   2054532   2058187  
  7150.000000   2061829   2065542   2069404   2073513   2077921  
  7140.000000   2082665   2087709   2093005   2098461   2104012  
  7130.000000   2109584   2115158   2120711   2126266   2131826  
  7120.000000   2137424   2143066   2148788   2154605   2160558  
  7110.000000   2166660   2172934   2179362   2185923   2192563  
  7100.000000   2199241   2205903   2212530   2219101   2225632  
  7090.000000   2232134   2238644   2245196   2251843   2258624  
  7080.000000   2265585   2272732   2280053   2287488   2294971  
  7070.000000   2302422   2309804   2317107   2324372   2331645  
  7060.000000   2338977   2346370   2353799   2361203   2368532  
  7050.000000   2375763   2382922   2390071   2397280   2404596  
  7040.000000   2412018   2419497   2426957   2434333   2441589  
  7030.000000   2448740   2455823   2462884   2469937   2476965  
  7020.000000   2483910   2490717   2497343   2503785   2510061  
  7010.000000   2516214   2522265   2528223   2534067   2539788  
  7000.000000   2545376   2550875   2556328   2561809   2567347  
  6990.000000   2572958   2578594   2584199   2589691   2595024  
  6980.000000   2600152   2605074   2609780   2614279   2618563  
  6970.000000   2622643   2626525   2630249   2633847   2637371  
  6960.000000   2640841   2644276   2647648   2650946   2654133  
  6950.000000   2657215   2660192   2663100   2665957   2668786  
  6940.000000   2671574   2674304   2676927   2679405   2681692  
  6930.000000   2683775   2685649   2687354   2688945   2690509  
  6920.000000   2692118   2693840   2695691   2697650   2699650  
  6910.000000   2701615   2703470   2705186   2706765   2708254  
  6900.000000   2709698   2711142   2712589   2714030   2715430  
  6890.000000   2716775   2718060   2719310   2720547   2721784  
  6880.000000   2722998   2724152   2725187   2726065   2726773  
  6870.000000   2727331   2727782   2728170   2728524   2728855  
  6860.000000   2729160   2729447   2729739   2730087   2730548  
  6850.000000   2731176   2731992   2732988   2734116   2735315  
  6840.000000   2736518   2737674   2738746   2739708   2740546  
  6830.000000   2741250   2741822   2742273   2742629   2742916  
  6820.000000   2743156   2743354   2743498   2743574   2743570  
  6810.000000   2743505   2743414   2743356   2743371   2743486  
  6800.000000   2743678   2743909   2744121   2744282   2744382  
  6790.000000   2744445   2744496   2744550   2744590   2744574  
  6780.000000   2744447   2744172   2743743   2743192   2742569  
  6770.000000   2741927   2741297   2740690   2740102   2739537  
  6760.000000   2739013   2738567   2738233   2738026   2737916  
  6750.000000   2737844   2737727   2737500   2737136   2736656  
  6740.000000   2736117   2735584   2735108   2734702   2734346  
  6730.000000   2734002   2733627   2733193   2732684   2732097  
  6720.000000   2731430   2730691   2729894   2729082   2728309  
  6710.000000   2727643   2727127   2726769   2726513   2726261  
  6700.000000   2725893   2725314   2724482   2723422   2722207  
  6690.000000   2720934   2719679   2718481   2717333   2716212  
  6680.000000   2715089   2713959   2712832   2711735   2710676  
  6670.000000   2709652   2708627   2707567   2706440   2705239  
  6660.000000   2703977   2702677   2701357   2700017   2698645  
  6650.000000   2697223   2695738   2694197   2692618   2691031  
  6640.000000   2689454   2687902   2686373   2684873   2683407  
  6630.000000   2681996   2680653   2679380   2678148   2676900  
  6620.000000   2675564   2674075   2672398   2670548   2668576  
  6610.000000   2666566   2664595   2662728   2660990   2659380  
  6600.000000   2657871   2656428   2655012   2653584   2652112  
  6590.000000   2650567   2648934   2647213   2645424   2643599  
  6580.000000   2641778   2639987   2638243   2636540   2634875  
  6570.000000   2633241   2631648   2630118   2628673   2627323  
  6560.000000   2626062   2624861   2623683   2622497   2621293  
  6550.000000   2620078   2618875   2617698   2616551   2615408  
  6540.000000   2614238   2613008   2611709   2610357   2608994  
  6530.000000   2607666   2606415   2605258   2604191   2603191  
  6520.000000   2602229   2601277   2600314   2599321   2598288  
  6510.000000   2597206   2596083   2594937   2593804   2592723  
  6500.000000   2591726   2590819   2589979   2589153   2588284  
  6490.000000   2587323   2586256   2585106   2583924   2582770  
  6480.000000   2581696   2580724   2579854   2579069   2578345  
  6470.000000   2577662   2577005   2576363   2575717   2575048  
  6460.000000   2574336   2573571   2572762   2571930   2571108  
  6450.000000   2570319   2569574   2568859   2568149   2567414  
  6440.000000   2566635   2565809   2564947   2564067   2563182  
  6430.000000   2562298   2561417   2560542   2559686   2558870  
  6420.000000   2558125   2557474   2556931   2556488   2556129  
  6410.000000   2555823   2555549   2555284   2555016   2554730  
  6400.000000   2554417   2554065   2553673   2553252   2552827  
  6390.000000   2552427   2552080   2551797   2551567   2551357  
  6380.000000   2551128   2550841   2550475   2550030   2549519  
  6370.000000   2548961   2548376   2547780   2547189   2546627  
  6360.000000   2546117   2545687   2545349   2545096   2544893  
  6350.000000   2544692   2544439   2544102   2543667   2543154  
  6340.000000   2542592   2542015   2541438   2540868   2540293  
  6330.000000   2539703   2539089   2538448   2537769   2537038  
  6320.000000   2536223   2535295   2534232   2533047   2531779  
  6310.000000   2530497   2529264   2528130   2527092   2526117  
  6300.000000   2525134   2524084   2522920   2521637   2520255  
  6290.000000   2518812   2517335   2515844   2514332   2512791  
  6280.000000   2511208   2509587   2507930   2506247   2504538  
  6270.000000   2502802   2501028   2499221   2497386   2495547  
  6260.000000   2493720   2491916   2490123   2488319   2486475  
  6250.000000   2484573   2482616   2480630   2478647   2476696  
  6240.000000   2474784   2472899   2471012   2469100   2467151  
  6230.000000   2465174   2463189   2461220   2459277   2457353  
  6220.000000   2455431   2453490   2451515   2449506   2447467  
  6210.000000   2445404   2443319   2441206   2439062   2436896  
  6200.000000   2434732   2432611   2430575   2428653   2426851  
  6190.000000   2425146   2423499   2421866   2420216   2418532  
  6180.000000   2416812   2415057   2413270   2411445   2409587  
  6170.000000   2407705   2405831   2404006   2402273   2400658  
  6160.000000   2399161   2397751   2396386   2395022   2393633  
  6150.000000   2392218   2390792   2389376   2387984   2386610  
  6140.000000   2385241   2383858   2382454   2381028   2379596  
  6130.000000   2378167   2376751   2375341   2373936   2372535  
  6120.000000   2371158   2369834   2368599   2367472   2366456  
  6110.000000   2365525   2364643   2363770   2362893   2362014  
  6100.000000   2361163   2360367   2359655   2359023   2358463  
  6090.000000   2357946   2357460   2356996   2356570   2356189  
  6080.000000   2355869   2355599   2355368   2355147   2354925  
  6070.000000   2354695   2354479   2354300   2354198   2354200  
  6060.000000   2354337   2354619   2355060   2355651   2356383  
  6050.000000   2357215   2358111   2359008   2359868   2360658  
  6040.000000   2361388   2362087   2362818   2363633   2364587  
  6030.000000   2365694   2366953   2368333   2369803   2371329  
  6020.000000   2372887   2374458   2376036   2377609   2379180  
  6010.000000   2380744   2382311   2383884   2385475   2387076  
  6000.000000   2388683   2390272   2391835   2393364   2394875  
  5990.000000   2396395   2397965   2399613   2401362   2403210  
  5980.000000   2405148   2407155   2409220   2411332   2413491  
  5970.000000   2415687   2417914   2420151   2422387   2424613  
  5960.000000   2426845   2429105   2431429   2433835   2436329  
  5950.000000   2438885   2441473   2444051   2446605   2449136  
  5940.000000   2451673   2454249   2456894   2459620   2462420  
  5930.000000   2465270   2468147   2471032   2473913   2476781  
  5920.000000   2479623   2482418   2485132   2487733   2490198  
  5910.000000   2492517   2494703   2496780   2498781   2500737  
  5900.000000   2502679   2504638   2506640   2508719   2510895  
  5890.000000   2513179   2515554   2517988   2520432   2522837  
  5880.000000   2525167   2527407   2529566   2531657   2533701  
  5870.000000   2535703   2537664   2539577   2541448   2543291  
  5860.000000   2545134   2547007   2548938   2550937   2553003  
  5850.000000   2555123   2557291   2559503   2561769   2564095  
  5840.000000   2566487   2568934   2571419   2573919   2576419  
  5830.000000   2578917   2581421   2583949   2586510   2589103  
  5820.000000   2591707   2594298   2596841   2599319   2601713  
  5810.000000   2604020   2606227   2608335   2610322   2612195  
  5800.000000   2613946   2615612   2617204   2618766   2620291  
  5790.000000   2621781   2623173   2624423   2625442   2626180  
  5780.000000   2626570   2626590   2626205   2625420   2624235  
  5770.000000   2622693   2620843   2618776   2616583   2614367  
  5760.000000   2612201   2610147   2608224   2606449   2604816  
  5750.000000   2603332   2601997   2600817   2599784   2598877  
  5740.000000   2598070   2597323   2596619   2595940   2595298  
  5730.000000   2594702   2594174   2593713   2593324   2592984  
  5720.000000   2592683   2592401   2592134   2591875   2591628  
  5710.000000   2591389   2591166   2590964   2590799   2590685  
  5700.000000   2590638   2590664   2590754   2590889   2591040  
  5690.000000   2591188   2591322   2591453   2591592   2591754  
  5680.000000   2591934   2592110   2592238   2592271   2592158  
  5670.000000   2591866   2591372   2590670   2589756   2588641  
  5660.000000   2587337   2585879   2584309   2582693   2581090  
  5650.000000   2579555   2578107   2576748   2575450   2574187  
  5640.000000   2572933   2571689   2570469   2569293   2568176  
  5630.000000   2567119   2566110   2565127   2564155   2563188  
  5620.000000   2562235   2561303   2560403   2559526   2558659  
  5610.000000   2557783   2556886   2555965   2555033   2554107  
  5600.000000   2553201   2552324   2551473   2550647   2549840  
  5590.000000   2549057   2548300   2547570   2546852   2546124  
  5580.000000   2545354   2544518   2543604   2542623   2541600  
  5570.000000   2540567   2539546   2538544   2537551   2536553  
  5560.000000   2535533   2534489   2533427   2532361   2531298  
  5550.000000   2530239   2529174   2528090   2526981   2525852  
  5540.000000   2524718   2523601   2522520   2521486   2520499  
  5530.000000   2519557   2518655   2517796   2516980   2516205  
  5520.000000   2515458   2514710   2513927   2513074   2512126  
  5510.000000   2511077   2509938   2508732   2507483   2506218  
  5500.000000   2504953   2503707   2502491   2501321   2500195  
  5490.000000   2499102   2498006   2496868   2495638   2494289  
  5480.000000   2492813   2491234   2489589   2487926   2486274  
  5470.000000   2484645   2483027   2481404   2479754   2478071  
  5460.000000   2476350   2474593   2472788   2470921   2468971  
  5450.000000   2466930   2464805   2462632   2460458   2458335  
  5440.000000   2456299   2454363   2452521   2450753   2449039  
  5430.000000   2447360   2445706   2444056   2442397   2440703  
  5420.000000   2438974   2437225   2435514   2433911   2432503  
  5410.000000   2431333   2430409   2429676   2429065   2428495  
  5400.000000   2427931   2427361   2426826   2426363   2426022  
  5390.000000   2425810   2425733   2425765   2425916   2426186  
  5380.000000   2426620   2427228   2428033   2428993   2430075  
  5370.000000   2431209   2432375   2433547   2434773   2436075  
  5360.000000   2437530   2439152   2440995   2443050   2445369  
  5350.000000   2447954   2450881   2454161   2457858   2461943  
  5340.000000   2466441   2471285   2476501   2482038   2487950  
  5330.000000   2494199   2500845   2507837   2515224   2522958  
  5320.000000   2531124   2539712   2548851   2558545   2568915  
  5310.000000   2579919   2591628   2603954   2616950   2630542  
  5300.000000   2644818   2659752   2675475   2691991   2709438  
  5290.000000   2727800   2747157   2767413   2788539   2810357  
  5280.000000   2832794   2855708   2879116   2903004   2927493  
  5270.000000   2952613   2978415   3004790   3031590   3058585  
  5260.000000   3085588   3112484   3139263   3166000   3192763  
  5250.000000   3219590   3246370   3272942   3299016   3324401  
  5240.000000   3348896   3372522   3395291   3417392   3438894  
  5230.000000   3459948   3480497   3500546   3519909   3538533  
  5220.000000   3556258   3573124   3589089   3604310   3618813  
  5210.000000   3632765   3646141   3659009   3671234   3682813  
  5200.000000   3693594   3703626   3712847   3721386   3729232  
  5190.000000   3736505   3743150   3749218   3754606   3759355  
  5180.000000   3763389   3766794   3769540   3771725   3773313  
  5170.000000   3774375   3774863   3774850   3774313   3773350  
  5160.000000   3771956   3770214   3768093   3765633   3762785  
  5150.000000   3759592   3756039   3752203   3748097   3743790  
  5140.000000   3739270   3734563   3729633   3724502   3719158  
  5130.000000   3713660   3708032   3702341   3696600   3690840  
  5120.000000   3685044   3679217   3673342   3667428   3661467  
  5110.000000   3655469   3649424   3643330   3637175   3630970  
  5100.000000   3624725   3618476   3612252   3606089   3599998  
  5090.000000   3593988   3588048   3582170   3576342   3570564  
  5080.000000   3564828   3559131   3553454   3547781   3542085  
  5070.000000   3536355   3530583   3524776   3518941   3513086  
  5060.000000   3507203   3501281   3495294   3489231   3483083  
  5050.000000   3476862   3470583   3464273   3457947   3451614  
  5040.000000   3445272   3438918   3432549   3426173   3419805  
  5030.000000   3413462   3407164   3400921   3394743   3388629  
  5020.000000   3382590   3376627   3370759   3364989   3359338  
  5010.000000   3353801   3348395   3343109   3337967   3332969  
  5000.000000   3328153   3323523   3319119   3314930   3310984  
  4990.000000   3307257   3303776   3300522   3297540   3294822  
  4980.000000   3292421   3290323   3288569   3287128   3286030  
  4970.000000   3285236   3284782   3284635   3284837   3285355  
  4960.000000   3286232   3287432   3289001   3290913   3293222  
  4950.000000   3295908   3299021   3302525   3306445   3310719  
  4940.000000   3315353   3320278   3325508   3330993   3336766  
  4930.000000   3342795   3349122   3355723   3362639   3369846  
  4920.000000   3377378   3385205   3393343   3401751   3410432  
  4910.000000   3419343   3428487   3437836   3447401   3457163  
  4900.000000   3467123   3477250   3487519   3497885   3508305  
  4890.000000   3518737   3529140   3539483   3549722   3559831  
  4880.000000   3569761   3579493   3588988   3598244   3607232  
  4870.000000   3615961   3624396   3632541   3640351   3647837  
  4860.000000   3654970   3661790   3668297   3674546   3680538  
  4850.000000   3686310   3691839   3697142   3702190   3707009  
  4840.000000   3711596   3716002   3720241   3724369   3728390  
  4830.000000   3732336   3736189   3739960   3743620   3747171  
  4820.000000   3750588   3753876   3757023   3760047   3762955  
  4810.000000   3765780   3768538   3771261   3773956   3776635  
  4800.000000   3779291   3781925   3784529   3787111   3789672  
  4790.000000   3792225   3794770   3797311   3799834   3802334  
  4780.000000   3804795   3807215   3809583   3811904   3814164  
  4770.000000   3816365   3818488   3820528   3822469   3824312  
  4760.000000   3826046   3827678   3829190   3830584   3831832  
  4750.000000   3832932   3833862   3834635   3835251   3835740  
  4740.000000   3836113   3836396   3836586   3836690   3836684  
  4730.000000   3836562   3836297   3835889   3835330   3834640  
  4720.000000   3833831   3832935   3831976   3830984   3829977  
  4710.000000   3828972   3827977   3827003   3826057   3825151  
  4700.000000   3824295   3823505   3822789   3822157   3821605  
  4690.000000   3821129   3820720   3820363   3820048   3819759  
  4680.000000   3819483   3819197   3818880   3818504   3818052  
  4670.000000   3817505   3816868   3816150   3815384   3814597  
  4660.000000   3813833   3813123   3812506   3812003   3811645  
  4650.000000   3811447   3811427   3811590   3811938   3812460  
  4640.000000   3813144   3813970   3814917   3815959   3817071  
  4630.000000   3818222   3819379   3820502   3821559   3822519  
  4620.000000   3823364   3824081   3824667   3825121   3825439  
  4610.000000   3825617   3825647   3825535   3825287   3824936  
  4600.000000   3824511   3824062   3823616   3823208   3822837  
  4590.000000   3822505   3822182   3821851   3821473   3821030  
  4580.000000   3820489   3819838   3819057   3818148   3817108  
  4570.000000   3815956   3814705   3813381   3811989   3810541  
  4560.000000   3809025   3807432   3805746   3803964   3802081  
  4550.000000   3800110   3798061   3795953   3793795   3791602  
  4540.000000   3789391   3787182   3785003   3782881   3780848  
  4530.000000   3778911   3777082   3775339   3773680   3772077  
  4520.000000   3770547   3769084   3767740   3766526   3765507  
  4510.000000   3764685   3764126   3763822   3763851   3764216  
  4500.000000   3765018   3766272   3768085   3770456   3773474  
  4490.000000   3777114   3781448   3786440   3792159   3798563  
  4480.000000   3805717   3813568   3822163   3831435   3841413  
  4470.000000   3852017   3863259   3875050   3887385   3900165  
  4460.000000   3913370   3926902   3940731   3954768   3968977  
  4450.000000   3983276   3997625   4011957   4026239   4040437  
  4440.000000   4054534   4068529   4082414   4096205   4109880  
  4430.000000   4123453   4136877   4150160   4163233   4176095  
  4420.000000   4188654   4200896   4212705   4224058   4234828  
  4410.000000   4244989   4254421   4263108   4270951   4277962  
  4400.000000   4284082   4289366   4293812   4297524   4300550  
  4390.000000   4303028   4305034   4306712   4308139   4309439  
  4380.000000   4310676   4311942   4313280   4314756   4316406  
  4370.000000   4318281   4320423   4322873   4325670   4328835  
  4360.000000   4332383   4336303   4340570   4345147   4349978  
  4350.000000   4355018   4360195   4365483   4370822   4376218  
  4340.000000   4381632   4387070   4392454   4397690   4402551  
  4330.000000   4406759   4409937   4411733   4411852   4410183  
  4320.000000   4406814   4402087   4396493   4390639   4385066  
  4310.000000   4380223   4376332   4373464   4371499   4370271  
  4300.000000   4369564   4369220   4369114   4369173   4369355  
  4290.000000   4369617   4369941   4370289   4370672   4371093  
  4280.000000   4371591   4372200   4372943   4373831   4374840  
  4270.000000   4375954   4377115   4378289   4379381   4380288  
  4260.000000   4380832   4380820   4380028   4378291   4375517  
  4250.000000   4371757   4367172   4362050   4356701   4351447  
  4240.000000   4346513   4342051   4338078   4334558   4331381  
  4230.000000   4328444   4325639   4322890   4320142   4317353  
  4220.000000   4314515   4311617   4308702   4305804   4303013  
  4210.000000   4300389   4298027   4295964   4294249   4292869  
  4200.000000   4291822   4291059   4290558   4290261   4290147  
  4190.000000   4290157   4290282   4290470   4290734   4291043  
  4180.000000   4291439   4291908   4292511   4293247   4294187  
  4170.000000   4295348   4296824   4298652   4300937   4303710  
  4160.000000   4307048   4310927   4315370   4320300   4325713  
  4150.000000   4331526   4337755   4344344   4351341   4358711  
  4140.000000   4366515   4374724   4383401   4392512   4402118  
  4130.000000   4412176   4422730   4433726   4445191   4457072  
  4120.000000   4469400   4482139   4495333   4508964   4523075  
  4110.000000   4537639   4552677   4568134   4583999   4600194  
  4100.000000   4616684   4633393   4650286   4667311   4684456  
  4090.000000   4701702   4719053   4736506   4754055   4771696  
  4080.000000   4789404   4807175   4824977   4842809   4860618  
  4070.000000   4878385   4896017   4913470   4930632   4947475  
  4060.000000   4963913   4979964   4995570   5010774   5025511  
  4050.000000   5039823   5053638   5067013   5079877   5092298  
  4040.000000   5104182   5115560   5126286   5136358   5145616  
  4030.000000   5154079   5161630   5168326   5174084   5178960  
  4020.000000   5182854   5185837   5187889   5189120   5189501  
  4010.000000   5189202   5188311   5186869   5184660   5181769  
  4000.000000   5178529  
##END= 
