##TITLE= Sample 015 By ssteindl date Montag, November 26 2018
##JCAMP-DX= 4.24
##DATA TYPE= INFRARED SPECTRUM
##ORIGIN= Exported PE Spectrum Data File
##OWNER= Sandra Steindl
##DATE= 18/11/26
##TIME= 11:35:06.00
##SPECTROMETER/DATA SYSTEM= PERKIN-ELMER Frontier FT-IR/NIR IR
##INSTRUMENT PARAMETERS=
  APODIZATION=stark
  DETECTOR=INGAAS
##RESOLUTION= 16.000000
##DELTAX= -2.000000
##XUNITS= 1/CM
##YUNITS= A
##XFACTOR= 1.00
##YFACTOR= 0.00000011920928955078
##FIRSTX= 10000.00
##LASTX= 4000.00
##NPOINTS= 3001
##FIRSTY= 0.286770
##MAXY= 0.623888
##MINY= 0.237075
##XYDATA= (X++(Y..Y))
 10000.000000   2405599   2407591   2409297   2410394   2410763  
  9990.000000   2410207   2408213   2404315   2398709   2392221  
  9980.000000   2385973   2380887   2377520   2375871   2375448  
  9970.000000   2375562   2375620   2375429   2375155   2375339  
  9960.000000   2376617   2379577   2384517   2391351   2399546  
  9950.000000   2408147   2415985   2421835   2424787   2424377  
  9940.000000   2420799   2414813   2407615   2400503   2394564  
  9930.000000   2390420   2388131   2387358   2387485   2387999  
  9920.000000   2388450   2388702   2388677   2388489   2388253  
  9910.000000   2388170   2388448   2389208   2390431   2391746  
  9900.000000   2392534   2391927   2389194   2383955   2376500  
  9890.000000   2367753   2359087   2351908   2347234   2345423  
  9880.000000   2346134   2348558   2351749   2354970   2357827  
  9870.000000   2360273   2362415   2364359   2366105   2367550  
  9860.000000   2368649   2369451   2370193   2371093   2372263  
  9850.000000   2373511   2374400   2374399   2373127   2370575  
  9840.000000   2367153   2363567   2360573   2358687   2358044  
  9830.000000   2358378   2359161   2359845   2360022   2359601  
  9820.000000   2358747   2357884   2357480   2358004   2359732  
  9810.000000   2362741   2366806   2371404   2375794   2379096  
  9800.000000   2380563   2379713   2376516   2371371   2364985  
  9790.000000   2358174   2351653   2345944   2341365   2338112  
  9780.000000   2336302   2335995   2337063   2339171   2341671  
  9770.000000   2343797   2344813   2344321   2342427   2339732  
  9760.000000   2337193   2335697   2335782   2337331   2339675  
  9750.000000   2341799   2342767   2342023   2339583   2335959  
  9740.000000   2331962   2328400   2325864   2324590   2324490  
  9730.000000   2325226   2326372   2327487   2328237   2328441  
  9720.000000   2328125   2327542   2327087   2327226   2328288  
  9710.000000   2330377   2333285   2336576   2339718   2342297  
  9700.000000   2344091   2345145   2345600   2345587   2345089  
  9690.000000   2343940   2341952   2339029   2335294   2331036  
  9680.000000   2326584   2322157   2317752   2313232   2308485  
  9670.000000   2303665   2299266   2296061   2294782   2295812  
  9660.000000   2298868   2303054   2307078   2309751   2310443  
  9650.000000   2309302   2307226   2305370   2304716   2305541  
  9640.000000   2307400   2309253   2309978   2308783   2305534  
  9630.000000   2300761   2295451   2290720   2287481   2286255  
  9620.000000   2287083   2289599   2293126   2296836   2299893  
  9610.000000   2301624   2301656   2300083   2297454   2294715  
  9600.000000   2292901   2292816   2294719   2298186   2302245  
  9590.000000   2305661   2307385   2306846   2304133   2299852  
  9580.000000   2294883   2290026   2285792   2282342   2279606  
  9570.000000   2277462   2275902   2275081   2275227   2276543  
  9560.000000   2279021   2282448   2286355   2290192   2293421  
  9550.000000   2295652   2296765   2296862   2296275   2295389  
  9540.000000   2294551   2293951   2293540   2293097   2292259  
  9530.000000   2290731   2288400   2285481   2282467   2279971  
  9520.000000   2278450   2277952   2278033   2277858   2276568  
  9510.000000   2273608   2269044   2263567   2258298   2254416  
  9500.000000   2252746   2253540   2256426   2260632   2265290  
  9490.000000   2269720   2273555   2276691   2279126   2280828  
  9480.000000   2281688   2281582   2280516   2278677   2276466  
  9470.000000   2274329   2272598   2271336   2270287   2269044  
  9460.000000   2267211   2264651   2261541   2258311   2255469  
  9450.000000   2253379   2252126   2251500   2251067   2250388  
  9440.000000   2249159   2247406   2245488   2244019   2243668  
  9430.000000   2244904   2247815   2251995   2256601   2260485  
  9420.000000   2262522   2261882   2258397   2252618   2245753  
  9410.000000   2239282   2234528   2232240   2232403   2234307  
  9400.000000   2236854   2238994   2240067   2240016   2239228  
  9390.000000   2238347   2237859   2237983   2238607   2239458  
  9380.000000   2240303   2241024   2241664   2242236   2242642  
  9370.000000   2242542   2241499   2239128   2235369   2230557  
  9360.000000   2225386   2220659   2217029   2214795   2213862  
  9350.000000   2213919   2214644   2215921   2217849   2220623  
  9340.000000   2224294   2228613   2232972   2236580   2238727  
  9330.000000   2239097   2237906   2235818   2233689   2232231  
  9320.000000   2231795   2232269   2233159   2233787   2233508  
  9310.000000   2231920   2228911   2224664   2219537   2214032  
  9300.000000   2208691   2204086   2200692   2198814   2198486  
  9290.000000   2199453   2201232   2203232   2204921   2205939  
  9280.000000   2206193   2205783   2204962   2203932   2202855  
  9270.000000   2201769   2200714   2199757   2199035   2198747  
  9260.000000   2199056   2200072   2201741   2203927   2206395  
  9250.000000   2208907   2211218   2213062   2214165   2214221  
  9240.000000   2213012   2210428   2206624   2201990   2197151  
  9230.000000   2192784   2189450   2187464   2186816   2187282  
  9220.000000   2188497   2190159   2192052   2194115   2196348  
  9210.000000   2198732   2201160   2203404   2205208   2206321  
  9200.000000   2206625   2206108   2204907   2203221   2201316  
  9190.000000   2199469   2197960   2197018   2196747   2197121  
  9180.000000   2197911   2198792   2199347   2199300   2198561  
  9170.000000   2197367   2196150   2195421   2195547   2196596  
  9160.000000   2198294   2200024   2201052   2200707   2198657  
  9150.000000   2194914   2189851   2184080   2178352   2173395  
  9140.000000   2169773   2167834   2167678   2169169   2171925  
  9130.000000   2175409   2179011   2182209   2184651   2186221  
  9120.000000   2187034   2187347   2187480   2187631   2187854  
  9110.000000   2188016   2187932   2187444   2186500   2185192  
  9100.000000   2183694   2182235   2180958   2179936   2179098  
  9090.000000   2178330   2177496   2176515   2175372   2174089  
  9080.000000   2172717   2171275   2169780   2168204   2166543  
  9070.000000   2164806   2163073   2161468   2160151   2159295  
  9060.000000   2159052   2159541   2160804   2162804   2165407  
  9050.000000   2168401   2171503   2174372   2176665   2178082  
  9040.000000   2178458   2177789   2176268   2174224   2172059  
  9030.000000   2170140   2168693   2167769   2167240   2166883  
  9020.000000   2166473   2165885   2165126   2164320   2163594  
  9010.000000   2163026   2162551   2162043   2161376   2160564  
  9000.000000   2159829   2159551   2160139   2161813   2164455  
  8990.000000   2167541   2170266   2171769   2171461   2169233  
  8980.000000   2165534   2161223   2157290   2154553   2153425  
  8970.000000   2153861   2155432   2157548   2159644   2161330  
  8960.000000   2162399   2162810   2162607   2161867   2160704  
  8950.000000   2159267   2157815   2156607   2155869   2155652  
  8940.000000   2155816   2156075   2156091   2155688   2154921  
  8930.000000   2154148   2153857   2154518   2156330   2159116  
  8920.000000   2162299   2165089   2166715   2166673   2164874  
  8910.000000   2161661   2157725   2153854   2150732   2148722  
  8900.000000   2147796   2147568   2147425   2146743   2145095  
  8890.000000   2142425   2139084   2135750   2133200   2132076  
  8880.000000   2132640   2134675   2137561   2140443   2142583  
  8870.000000   2143542   2143362   2142439   2141364   2140643  
  8860.000000   2140519   2140925   2141573   2142155   2142531  
  8850.000000   2142808   2143286   2144287   2145962   2148188  
  8840.000000   2150547   2152488   2153476   2153221   2151735  
  8830.000000   2149344   2146547   2143897   2141847   2140679  
  8820.000000   2140439   2140960   2141899   2142772   2143082  
  8810.000000   2142377   2140434   2137289   2133310   2129074  
  8800.000000   2125263   2122459   2121013   2120996   2122243  
  8790.000000   2124481   2127455   2131004   2135043   2139472  
  8780.000000   2144081   2148483   2152171   2154642   2155603  
  8770.000000   2155074   2153446   2151367   2149564   2148612  
  8760.000000   2148749   2149840   2151409   2152839   2153511  
  8750.000000   2153014   2151217   2148314   2144741   2141072  
  8740.000000   2137857   2135523   2134277   2134092   2134741  
  8730.000000   2135904   2137278   2138683   2140073   2141521  
  8720.000000   2143114   2144866   2146667   2148259   2149366  
  8710.000000   2149744   2149349   2148294   2146863   2145358  
  8700.000000   2144028   2142984   2142212   2141643   2141226  
  8690.000000   2140990   2141024   2141440   2142282   2143501  
  8680.000000   2144932   2146386   2147721   2148912   2150054  
  8670.000000   2151286   2152720   2154337   2155982   2157400  
  8660.000000   2158337   2158645   2158346   2157616   2156727  
  8650.000000   2155937   2155423   2155232   2155302   2155509  
  8640.000000   2155728   2155876   2155920   2155891   2155853  
  8630.000000   2155919   2156202   2156840   2157936   2159540  
  8620.000000   2161591   2163914   2166245   2168282   2169763  
  8610.000000   2170526   2170556   2169952   2168894   2167573  
  8600.000000   2166152   2164745   2163417   2162217   2161197  
  8590.000000   2160428   2159974   2159874   2160107   2160598  
  8580.000000   2161235   2161891   2162472   2162915   2163234  
  8570.000000   2163473   2163732   2164104   2164692   2165556  
  8560.000000   2166718   2168153   2169799   2171575   2173406  
  8550.000000   2175242   2177065   2178879   2180674   2182402  
  8540.000000   2183972   2185264   2186169   2186647   2186748  
  8530.000000   2186621   2186449   2186410   2186595   2187004  
  8520.000000   2187533   2188051   2188439   2188647   2188683  
  8510.000000   2188595   2188417   2188145   2187724   2187100  
  8500.000000   2186260   2185290   2184364   2183723   2183593  
  8490.000000   2184112   2185263   2186873   2188655   2190268  
  8480.000000   2191413   2191882   2191638   2190769   2189491  
  8470.000000   2188064   2186782   2185892   2185572   2185902  
  8460.000000   2186879   2188415   2190359   2192538   2194767  
  8450.000000   2196900   2198809   2200424   2201724   2202743  
  8440.000000   2203556   2204263   2204977   2205762   2206619  
  8430.000000   2207456   2208132   2208485   2208390   2207810  
  8420.000000   2206808   2205557   2204247   2203088   2202212  
  8410.000000   2201729   2201684   2202129   2203080   2204542  
  8400.000000   2206434   2208559   2210573   2212046   2212582  
  8390.000000   2211922   2210063   2207266   2204024   2200905  
  8380.000000   2198392   2196758   2196008   2195946   2196256  
  8370.000000   2196650   2196936   2197070   2197104   2197121  
  8360.000000   2197152   2197157   2197044   2196718   2196151  
  8350.000000   2195387   2194564   2193837   2193346   2193140  
  8340.000000   2193177   2193333   2193457   2193413   2193124  
  8330.000000   2192581   2191847   2191040   2190299   2189757  
  8320.000000   2189513   2189618   2190060   2190762   2191585  
  8310.000000   2192373   2192974   2193293   2193305   2193065  
  8300.000000   2192682   2192270   2191900   2191561   2191163  
  8290.000000   2190568   2189649   2188349   2186721   2184947  
  8280.000000   2183283   2182014   2181327   2181290   2181785  
  8270.000000   2182582   2183376   2183911   2184041   2183769  
  8260.000000   2183223   2182568   2181925   2181302   2180588  
  8250.000000   2179586   2178115   2176101   2173658   2171067  
  8240.000000   2168707   2166935   2165960   2165792   2166208  
  8230.000000   2166845   2167295   2167263   2166641   2165550  
  8220.000000   2164277   2163178   2162560   2162580   2163195  
  8210.000000   2164152   2165068   2165526   2165212   2163990  
  8200.000000   2161947   2159353   2156589   2154038   2151978  
  8190.000000   2150515   2149572   2148949   2148403   2147763  
  8180.000000   2146970   2146111   2145345   2144864   2144779  
  8170.000000   2145099   2145697   2146358   2146836   2146935  
  8160.000000   2146556   2145711   2144505   2143084   2141585  
  8150.000000   2140092   2138624   2137134   2135541   2133780  
  8140.000000   2131826   2129738   2127633   2125678   2124027  
  8130.000000   2122792   2121995   2121574   2121391   2121278  
  8120.000000   2121079   2120682   2120045   2119180   2118143  
  8110.000000   2117001   2115824   2114673   2113601   2112652  
  8100.000000   2111858   2111222   2110712   2110251   2109733  
  8090.000000   2109050   2108129   2106952   2105565   2104047  
  8080.000000   2102491   2100958   2099479   2098058   2096710  
  8070.000000   2095479   2094446   2093713   2093354   2093379  
  8060.000000   2093699   2094151   2094534   2094679   2094509  
  8050.000000   2094049   2093427   2092789   2092256   2091855  
  8040.000000   2091521   2091118   2090502   2089586   2088370  
  8030.000000   2086967   2085548   2084317   2083423   2082943  
  8020.000000   2082838   2082989   2083209   2083306   2083124  
  8010.000000   2082575   2081665   2080468   2079109   2077707  
  8000.000000   2076352   2075070   2073841   2072617   2071370  
  7990.000000   2070117   2068930   2067923   2067202   2066835  
  7980.000000   2066809   2067039   2067387   2067703   2067871  
  7970.000000   2067829   2067577   2067151   2066611   2066008  
  7960.000000   2065394   2064804   2064268   2063803   2063406  
  7950.000000   2063050   2062679   2062233   2061662   2060966  
  7940.000000   2060193   2059435   2058795   2058335   2058057  
  7930.000000   2057884   2057700   2057381   2056862   2056152  
  7920.000000   2055349   2054588   2054008   2053694   2053658  
  7910.000000   2053852   2054184   2054575   2054974   2055383  
  7900.000000   2055832   2056364   2056996   2057705   2058413  
  7890.000000   2059002   2059337   2059292   2058794   2057825  
  7880.000000   2056456   2054817   2053082   2051433   2050012  
  7870.000000   2048903   2048109   2047592   2047277   2047119  
  7860.000000   2047097   2047233   2047547   2048043   2048662  
  7850.000000   2049295   2049801   2050044   2049950   2049512  
  7840.000000   2048805   2047931   2046997   2046065   2045149  
  7830.000000   2044231   2043285   2042315   2041360   2040496  
  7820.000000   2039797   2039319   2039061   2038980   2038989  
  7810.000000   2038992   2038907   2038678   2038291   2037756  
  7800.000000   2037118   2036432   2035762   2035170   2034700  
  7790.000000   2034372   2034167   2034041   2033927   2033765  
  7780.000000   2033512   2033165   2032741   2032277   2031800  
  7770.000000   2031317   2030817   2030268   2029651   2028953  
  7760.000000   2028188   2027374   2026530   2025662   2024768  
  7750.000000   2023854   2022941   2022093   2021390   2020931  
  7740.000000   2020773   2020934   2021355   2021928   2022516  
  7730.000000   2022981   2023221   2023158   2022757   2021989  
  7720.000000   2020851   2019346   2017528   2015490   2013389  
  7710.000000   2011415   2009755   2008564   2007904   2007766  
  7700.000000   2008048   2008617   2009320   2010038   2010674  
  7690.000000   2011162   2011453   2011499   2011272   2010754  
  7680.000000   2009982   2009018   2007968   2006926   2005963  
  7670.000000   2005092   2004277   2003453   2002559   2001587  
  7660.000000   2000582   1999661   1998955   1998585   1998605  
  7650.000000   1998991   1999635   2000381   2001069   2001562  
  7640.000000   2001789   2001735   2001445   2000995   2000469  
  7630.000000   1999940   1999457   1999038   1998679   1998361  
  7620.000000   1998059   1997755   1997436   1997102   1996751  
  7610.000000   1996385   1995990   1995553   1995054   1994484  
  7600.000000   1993854   1993198   1992572   1992035   1991636  
  7590.000000   1991394   1991294   1991285   1991304   1991282  
  7580.000000   1991177   1990969   1990671   1990307   1989913  
  7570.000000   1989521   1989166   1988887   1988727   1988732  
  7560.000000   1988935   1989348   1989944   1990660   1991409  
  7550.000000   1992090   1992624   1992954   1993065   1992965  
  7540.000000   1992686   1992263   1991743   1991180   1990649  
  7530.000000   1990239   1990040   1990122   1990506   1991161  
  7520.000000   1991990   1992868   1993666   1994287   1994695  
  7510.000000   1994909   1994992   1995012   1995030   1995069  
  7500.000000   1995133   1995204   1995274   1995342   1995431  
  7490.000000   1995570   1995792   1996126   1996596   1997220  
  7480.000000   1998015   1998986   2000127   2001405   2002767  
  7470.000000   2004133   2005429   2006587   2007582   2008419  
  7460.000000   2009143   2009813   2010491   2011230   2012068  
  7450.000000   2013026   2014119   2015348   2016698   2018123  
  7440.000000   2019550   2020881   2022022   2022907   2023524  
  7430.000000   2023926   2024232   2024592   2025151   2026010  
  7420.000000   2027200   2028684   2030365   2032118   2033824  
  7410.000000   2035386   2036752   2037903   2038859   2039649  
  7400.000000   2040323   2040926   2041512   2042129   2042834  
  7390.000000   2043679   2044716   2045983   2047492   2049232  
  7380.000000   2051151   2053168   2055185   2057109   2058873  
  7370.000000   2060439   2061813   2063015   2064083   2065043  
  7360.000000   2065914   2066707   2067442   2068158   2068909  
  7350.000000   2069767   2070788   2072005   2073389   2074877  
  7340.000000   2076368   2077772   2079019   2080087   2080995  
  7330.000000   2081790   2082530   2083265   2084032   2084848  
  7320.000000   2085717   2086622   2087535   2088417   2089222  
  7310.000000   2089921   2090508   2091020   2091526   2092114  
  7300.000000   2092851   2093761   2094804   2095897   2096937  
  7290.000000   2097846   2098604   2099252   2099864   2100512  
  7280.000000   2101218   2101938   2102582   2103053   2103299  
  7270.000000   2103347   2103304   2103322   2103543   2104039  
  7260.000000   2104789   2105680   2106562   2107288   2107785  
  7250.000000   2108050   2108170   2108260   2108449   2108828  
  7240.000000   2109460   2110364   2111546   2112993   2114697  
  7230.000000   2116618   2118708   2120873   2123021   2125049  
  7220.000000   2126896   2128534   2129998   2131347   2132684  
  7210.000000   2134095   2135663   2137419   2139371   2141480  
  7200.000000   2143694   2145951   2148214   2150471   2152753  
  7190.000000   2155111   2157612   2160290   2163154   2166141  
  7180.000000   2169169   2172126   2174945   2177593   2180111  
  7170.000000   2182571   2185072   2187684   2190454   2193369  
  7160.000000   2196408   2199530   2202727   2206000   2209380  
  7150.000000   2212880   2216514   2220254   2224079   2227946  
  7140.000000   2231851   2235792   2239808   2243919   2248158  
  7130.000000   2252518   2256998   2261566   2266217   2270930  
  7120.000000   2275713   2280555   2285463   2290421   2295433  
  7110.000000   2300496   2305636   2310877   2316257   2321786  
  7100.000000   2327464   2333245   2339077   2344887   2350625  
  7090.000000   2356251   2361767   2367189   2372562   2377927  
  7080.000000   2383338   2388828   2394426   2400130   2405924  
  7070.000000   2411765   2417609   2423417   2429176   2434907  
  7060.000000   2440661   2446502   2452489   2458653   2464988  
  7050.000000   2471444   2477954   2484437   2490826   2497076  
  7040.000000   2503162   2509078   2514832   2520444   2525948  
  7030.000000   2531388   2536813   2542263   2547756   2553286  
  7020.000000   2558811   2564291   2569683   2574985   2580226  
  7010.000000   2585471   2590780   2596201   2601724   2607299  
  7000.000000   2612824   2618198   2623330   2628186   2632775  
  6990.000000   2637171   2641461   2645751   2650101   2654544  
  6980.000000   2659046   2663544   2667929   2672113   2676012  
  6970.000000   2679607   2682911   2685998   2688941   2691824  
  6960.000000   2694681   2697525   2700315   2703015   2705584  
  6950.000000   2708028   2710369   2712668   2714971   2717323  
  6940.000000   2719722   2722157   2724578   2726952   2729239  
  6930.000000   2731427   2733498   2735451   2737271   2738954  
  6920.000000   2740491   2741893   2743175   2744375   2745525  
  6910.000000   2746657   2747787   2748922   2750049   2751160  
  6900.000000   2752239   2753285   2754297   2755293   2756288  
  6890.000000   2757312   2758385   2759525   2760728   2761972  
  6880.000000   2763207   2764369   2765392   2766225   2766842  
  6870.000000   2767253   2767499   2767643   2767751   2767889  
  6860.000000   2768107   2768451   2768947   2769619   2770471  
  6850.000000   2771490   2772638   2773858   2775076   2776217  
  6840.000000   2777217   2778032   2778649   2779083   2779374  
  6830.000000   2779589   2779802   2780090   2780512   2781097  
  6820.000000   2781822   2782624   2783397   2784032   2784438  
  6810.000000   2784583   2784487   2784229   2783907   2783615  
  6800.000000   2783406   2783295   2783254   2783247   2783241  
  6790.000000   2783225   2783199   2783171   2783131   2783060  
  6780.000000   2782924   2782700   2782386   2782009   2781617  
  6770.000000   2781262   2780974   2780752   2780566   2780372  
  6760.000000   2780131   2779828   2779471   2779087   2778704  
  6750.000000   2778340   2777996   2777663   2777330   2776995  
  6740.000000   2776665   2776354   2776069   2775813   2775575  
  6730.000000   2775343   2775099   2774836   2774543   2774209  
  6720.000000   2773814   2773333   2772741   2772034   2771226  
  6710.000000   2770362   2769497   2768684   2767950   2767296  
  6700.000000   2766696   2766117   2765529   2764926   2764312  
  6690.000000   2763707   2763113   2762521   2761901   2761221  
  6680.000000   2760454   2759598   2758670   2757702   2756717  
  6670.000000   2755725   2754708   2753637   2752471   2751189  
  6660.000000   2749786   2748284   2746720   2745145   2743600  
  6650.000000   2742125   2740739   2739447   2738229   2737052  
  6640.000000   2735867   2734630   2733303   2731884   2730391  
  6630.000000   2728876   2727389   2725976   2724648   2723388  
  6620.000000   2722149   2720881   2719536   2718093   2716548  
  6610.000000   2714918   2713220   2711475   2709698   2707903  
  6600.000000   2706109   2704338   2702607   2700928   2699293  
  6590.000000   2697685   2696079   2694458   2692816   2691166  
  6580.000000   2689525   2687907   2686314   2684731   2683141  
  6570.000000   2681526   2679890   2678253   2676644   2675090  
  6560.000000   2673599   2672163   2670759   2669366   2667974  
  6550.000000   2666593   2665245   2663945   2662697   2661476  
  6540.000000   2660247   2658966   2657608   2656166   2654661  
  6530.000000   2653119   2651574   2650048   2648560   2647130  
  6520.000000   2645785   2644558   2643476   2642550   2641756  
  6510.000000   2641042   2640335   2639571   2638714   2637769  
  6500.000000   2636777   2635794   2634862   2633993   2633158  
  6490.000000   2632308   2631393   2630387   2629300   2628172  
  6480.000000   2627055   2625991   2624993   2624042   2623100  
  6470.000000   2622124   2621086   2619978   2618815   2617629  
  6460.000000   2616454   2615323   2614261   2613289   2612416  
  6450.000000   2611645   2610968   2610360   2609794   2609231  
  6440.000000   2608641   2607998   2607291   2606517   2605685  
  6430.000000   2604802   2603887   2602960   2602057   2601213  
  6420.000000   2600470   2599857   2599381   2599023   2598737  
  6410.000000   2598465   2598152   2597763   2597294   2596769  
  6400.000000   2596234   2595737   2595321   2595004   2594782  
  6390.000000   2594631   2594515   2594394   2594235   2594011  
  6380.000000   2593713   2593339   2592897   2592403   2591873  
  6370.000000   2591325   2590776   2590243   2589736   2589268  
  6360.000000   2588839   2588443   2588062   2587673   2587250  
  6350.000000   2586778   2586249   2585676   2585079   2584483  
  6340.000000   2583901   2583334   2582768   2582182   2581556  
  6330.000000   2580882   2580159   2579400   2578612   2577801  
  6320.000000   2576955   2576065   2575120   2574125   2573087  
  6310.000000   2572029   2570965   2569902   2568825   2567721  
  6300.000000   2566569   2565368   2564126   2562868   2561606  
  6290.000000   2560350   2559081   2557776   2556409   2554972  
  6280.000000   2553477   2551962   2550463   2549016   2547626  
  6270.000000   2546282   2544950   2543598   2542200   2540749  
  6260.000000   2539240   2537680   2536062   2534384   2532636  
  6250.000000   2530824   2528965   2527088   2525219   2523378  
  6240.000000   2521557   2519736   2517886   2515989   2514047  
  6230.000000   2512087   2510142   2508248   2506417   2504640  
  6220.000000   2502888   2501127   2499335   2497505   2495652  
  6210.000000   2493801   2491976   2490192   2488455   2486763  
  6200.000000   2485114   2483510   2481955   2480449   2478990  
  6190.000000   2477567   2476168   2474776   2473385   2471986  
  6180.000000   2470573   2469136   2467664   2466143   2464577  
  6170.000000   2462979   2461385   2459837   2458369   2457000  
  6160.000000   2455718   2454488   2453268   2452020   2450726  
  6150.000000   2449391   2448037   2446684   2445346   2444023  
  6140.000000   2442709   2441399   2440104   2438841   2437632  
  6130.000000   2436488   2435400   2434337   2433263   2432144  
  6120.000000   2430976   2429771   2428569   2427404   2426306  
  6110.000000   2425277   2424307   2423376   2422478   2421613  
  6100.000000   2420803   2420065   2419411   2418829   2418300  
  6090.000000   2417791   2417289   2416790   2416318   2415893  
  6080.000000   2415544   2415273   2415075   2414923   2414803  
  6070.000000   2414699   2414621   2414575   2414582   2414645  
  6060.000000   2414766   2414934   2415151   2415416   2415754  
  6050.000000   2416185   2416741   2417430   2418257   2419197  
  6040.000000   2420227   2421307   2422414   2423521   2424627  
  6030.000000   2425727   2426838   2427972   2429155   2430402  
  6020.000000   2431731   2433141   2434625   2436161   2437730  
  6010.000000   2439308   2440892   2442478   2444083   2445712  
  6000.000000   2447380   2449081   2450819   2452584   2454381  
  5990.000000   2456210   2458081   2459990   2461937   2463905  
  5980.000000   2465887   2467873   2469876   2471914   2474025  
  5970.000000   2476233   2478558   2480993   2483522   2486108  
  5960.000000   2488728   2491355   2493984   2496606   2499230  
  5950.000000   2501852   2504481   2507117   2509779   2512484  
  5940.000000   2515257   2518119   2521079   2524132   2527257  
  5930.000000   2530428   2533615   2536793   2539940   2543031  
  5920.000000   2546040   2548936   2551691   2554285   2556720  
  5910.000000   2559016   2561211   2563347   2565459   2567570  
  5900.000000   2569690   2571828   2573988   2576196   2578472  
  5890.000000   2580841   2583306   2585853   2588439   2591010  
  5880.000000   2593514   2595909   2598179   2600322   2602352  
  5870.000000   2604283   2606132   2607912   2609644   2611353  
  5860.000000   2613076   2614849   2616703   2618655   2620702  
  5850.000000   2622829   2625016   2627242   2629499   2631781  
  5840.000000   2634092   2636434   2638806   2641203   2643624  
  5830.000000   2646063   2648519   2650985   2653457   2655922  
  5820.000000   2658368   2660784   2663167   2665523   2667857  
  5810.000000   2670176   2672469   2674726   2676916   2679029  
  5800.000000   2681048   2683001   2684899   2686793   2688682  
  5790.000000   2690580   2692433   2694195   2695765   2697067  
  5780.000000   2697995   2698479   2698442   2697856   2696708  
  5770.000000   2695053   2692969   2690597   2688071   2685540  
  5760.000000   2683101   2680828   2678731   2676812   2675041  
  5750.000000   2673413   2671917   2670559   2669338   2668245  
  5740.000000   2667258   2666345   2665483   2664646   2663835  
  5730.000000   2663042   2662279   2661542   2660838   2660162  
  5720.000000   2659528   2658947   2658446   2658037   2657728  
  5710.000000   2657504   2657343   2657209   2657083   2656952  
  5700.000000   2656823   2656709   2656619   2656559   2656518  
  5690.000000   2656487   2656451   2656414   2656379   2656358  
  5680.000000   2656343   2656322   2656253   2656094   2655788  
  5670.000000   2655298   2654589   2653650   2652474   2651073  
  5660.000000   2649466   2647698   2645825   2643924   2642066  
  5650.000000   2640313   2638691   2637194   2635782   2634409  
  5640.000000   2633030   2631631   2630221   2628833   2627505  
  5630.000000   2626265   2625123   2624066   2623073   2622114  
  5620.000000   2621169   2620221   2619263   2618289   2617302  
  5610.000000   2616304   2615309   2614335   2613404   2612535  
  5600.000000   2611732   2610983   2610262   2609537   2608777  
  5590.000000   2607968   2607108   2606212   2605298   2604385  
  5580.000000   2603485   2602603   2601740   2600897   2600069  
  5570.000000   2599248   2598421   2597567   2596665   2595698  
  5560.000000   2594659   2593560   2592418   2591261   2590110  
  5550.000000   2588980   2587875   2586799   2585751   2584735  
  5540.000000   2583752   2582799   2581860   2580914   2579934  
  5530.000000   2578904   2577822   2576708   2575600   2574539  
  5520.000000   2573555   2572662   2571844   2571071   2570300  
  5510.000000   2569489   2568607   2567638   2566576   2565432  
  5500.000000   2564224   2562981   2561735   2560517   2559342  
  5490.000000   2558209   2557088   2555940   2554718   2553397  
  5480.000000   2551967   2550452   2548889   2547323   2545781  
  5470.000000   2544276   2542795   2541319   2539823   2538295  
  5460.000000   2536726   2535110   2533435   2531690   2529859  
  5450.000000   2527939   2525945   2523913   2521890   2519922  
  5440.000000   2518037   2516241   2514523   2512860   2511240  
  5430.000000   2509652   2508101   2506583   2505093   2503616  
  5420.000000   2502146   2500682   2499258   2497916   2496716  
  5410.000000   2495689   2494846   2494147   2493547   2492984  
  5400.000000   2492437   2491896   2491397   2490964   2490636  
  5390.000000   2490412   2490294   2490258   2490313   2490466  
  5380.000000   2490766   2491236   2491914   2492778   2493813  
  5370.000000   2494959   2496197   2497490   2498867   2500329  
  5360.000000   2501934   2503686   2505640   2507791   2510200  
  5350.000000   2512875   2515894   2519262   2523040   2527197  
  5340.000000   2531761   2536676   2541980   2547633   2553697  
  5330.000000   2560136   2567002   2574231   2581860   2589823  
  5320.000000   2598190   2606939   2616193   2625957   2636357  
  5310.000000   2647370   2659080   2671423   2684461   2698133  
  5300.000000   2712529   2727624   2743543   2760284   2777968  
  5290.000000   2796561   2816115   2836503   2857671   2879426  
  5280.000000   2901700   2924371   2947495   2971097   2995338  
  5270.000000   3020276   3045971   3072313   3099141   3126211  
  5260.000000   3153322   3180351   3207282   3234183   3261112  
  5250.000000   3288094   3315005   3341679   3367828   3393277  
  5240.000000   3417847   3441579   3464499   3486802   3508549  
  5230.000000   3529874   3550701   3571011   3590606   3609429  
  5220.000000   3627324   3644348   3660476   3675882   3690605  
  5210.000000   3704812   3718468   3731619   3744105   3755896  
  5200.000000   3766830   3776952   3786215   3794771   3802634  
  5190.000000   3809947   3816670   3822862   3828426   3833401  
  5180.000000   3837718   3841463   3844612   3847260   3849365  
  5170.000000   3850984   3852050   3852615   3852643   3852221  
  5160.000000   3851345   3850101   3848463   3846478   3844103  
  5150.000000   3841386   3838316   3834974   3831372   3827577  
  5140.000000   3823564   3819347   3814872   3810148   3805157  
  5130.000000   3799958   3794581   3789101   3783538   3777928  
  5120.000000   3772252   3766515   3760696   3754809   3748851  
  5110.000000   3742848   3736799   3730721   3724612   3718494  
  5100.000000   3712382   3706313   3700311   3694398   3688567  
  5090.000000   3682798   3677054   3671306   3665532   3659735  
  5080.000000   3653928   3648137   3642377   3636660   3630982  
  5070.000000   3625336   3619710   3614099   3608491   3602884  
  5060.000000   3597257   3591595   3585867   3580057   3574146  
  5050.000000   3568137   3562032   3555848   3549591   3543274  
  5040.000000   3536899   3530475   3524012   3517529   3511045  
  5030.000000   3504581   3498153   3491767   3485427   3479134  
  5020.000000   3472895   3466720   3460634   3454652   3448802  
  5010.000000   3443089   3437528   3432108   3426836   3421696  
  5000.000000   3416701   3411839   3407133   3402577   3398207  
  4990.000000   3394022   3390066   3386341   3382891   3379701  
  4980.000000   3376801   3374156   3371784   3369649   3367783  
  4970.000000   3366172   3364873   3363883   3363258   3362977  
  4960.000000   3363076   3363508   3364298   3365402   3366855  
  4950.000000   3368625   3370758   3373224   3376064   3379241  
  4940.000000   3382792   3386682   3390952   3395566   3400559  
  4930.000000   3405884   3411557   3417520   3423789   3430317  
  4920.000000   3437135   3444218   3451600   3459258   3467211  
  4910.000000   3475422   3483895   3492591   3501511   3510622  
  4900.000000   3519920   3529374   3538965   3548660   3558430  
  4890.000000   3568247   3578082   3587911   3597695   3607405  
  4880.000000   3616980   3626383   3635548   3644445   3653016  
  4870.000000   3661249   3669096   3676563   3683615   3690276  
  4860.000000   3696531   3702424   3707951   3713159   3718040  
  4850.000000   3722634   3726924   3730952   3734715   3738266  
  4840.000000   3741620   3744837   3747928   3750937   3753860  
  4830.000000   3756723   3759520   3762274   3764982   3767662  
  4820.000000   3770309   3772929   3775505   3778036   3780509  
  4810.000000   3782927   3785289   3787608   3789887   3792138  
  4800.000000   3794366   3796579   3798784   3800990   3803202  
  4790.000000   3805421   3807639   3809848   3812032   3814188  
  4780.000000   3816312   3818418   3820513   3822614   3824718  
  4770.000000   3826824   3828908   3830958   3832945   3834860  
  4760.000000   3836683   3838410   3840022   3841515   3842866  
  4750.000000   3844073   3845124   3846030   3846788   3847418  
  4740.000000   3847920   3848307   3848576   3848741   3848800  
  4730.000000   3848772   3848658   3848472   3848211   3847882  
  4720.000000   3847482   3847026   3846533   3846035   3845564  
  4710.000000   3845151   3844812   3844546   3844343   3844183  
  4700.000000   3844052   3843946   3843875   3843854   3843907  
  4690.000000   3844049   3844293   3844635   3845066   3845564  
  4680.000000   3846105   3846652   3847175   3847635   3848013  
  4670.000000   3848291   3848486   3848618   3848739   3848889  
  4660.000000   3849119   3849459   3849938   3850566   3851357  
  4650.000000   3852313   3853444   3854743   3856201   3857793  
  4640.000000   3859489   3861255   3863071   3864921   3866809  
  4630.000000   3868740   3870717   3872730   3874753   3876746  
  4620.000000   3878660   3880452   3882085   3883540   3884803  
  4610.000000   3885878   3886762   3887476   3888033   3888473  
  4600.000000   3888827   3889154   3889482   3889856   3890272  
  4590.000000   3890734   3891199   3891638   3891992   3892231  
  4580.000000   3892305   3892200   3891892   3891389   3890694  
  4570.000000   3889838   3888840   3887738   3886545   3885287  
  4560.000000   3883957   3882563   3881091   3879546   3877922  
  4550.000000   3876233   3874475   3872657   3870770   3868812  
  4540.000000   3866780   3864682   3862538   3860374   3858226  
  4530.000000   3856117   3854070   3852085   3850171   3848310  
  4520.000000   3846518   3844783   3843144   3841598   3840202  
  4510.000000   3838957   3837937   3837155   3836711   3836626  
  4500.000000   3837009   3837869   3839293   3841255   3843822  
  4490.000000   3846953   3850722   3855106   3860194   3865967  
  4480.000000   3872502   3879748   3887747   3896417   3905777  
  4470.000000   3915737   3926312   3937415   3949049   3961120  
  4460.000000   3973616   3986445   3999593   4012982   4026605  
  4450.000000   4040397   4054338   4068363   4082438   4096508  
  4440.000000   4110539   4124510   4138403   4152226   4165959  
  4430.000000   4179615   4193150   4206567   4219798   4232842  
  4420.000000   4245614   4258108   4270224   4281940   4293133  
  4410.000000   4303764   4313700   4322907   4331279   4338824  
  4400.000000   4345494   4351360   4356440   4360853   4364655  
  4390.000000   4367985   4370913   4373567   4376011   4378352  
  4380.000000   4380636   4382943   4385305   4387786   4390421  
  4370.000000   4393269   4396377   4399795   4403559   4407689  
  4360.000000   4412186   4417032   4422186   4427607   4433219  
  4350.000000   4438979   4444797   4450649   4456462   4462256  
  4340.000000   4467996   4473714   4479338   4484782   4489789  
  4330.000000   4494039   4497079   4498489   4497907   4495202  
  4320.000000   4490478   4484143   4476781   4469107   4461755  
  4310.000000   4455249   4449850   4445644   4442509   4440265  
  4300.000000   4438686   4437606   4436902   4436503   4436376  
  4290.000000   4436477   4436793   4437275   4437925   4438718  
  4280.000000   4439675   4440800   4442100   4443576   4445209  
  4270.000000   4446995   4448892   4450866   4452811   4454584  
  4260.000000   4455948   4456642   4456373   4454930   4452194  
  4250.000000   4448227   4443222   4437521   4431492   4425523  
  4240.000000   4419888   4414786   4410258   4406286   4402752  
  4230.000000   4399542   4396521   4393586   4390654   4387665  
  4220.000000   4384605   4381462   4378289   4375127   4372078  
  4210.000000   4369209   4366626   4364374   4362516   4361051  
  4200.000000   4359988   4359283   4358911   4358799   4358907  
  4190.000000   4359152   4359503   4359890   4360318   4360750  
  4180.000000   4361226   4361738   4362346   4363055   4363942  
  4170.000000   4365028   4366412   4368133   4370297   4372931  
  4160.000000   4376108   4379804   4384040   4388746   4393924  
  4150.000000   4399499   4405491   4411846   4418612   4425751  
  4140.000000   4433328   4441319   4449798   4458744   4468225  
  4130.000000   4478205   4488722   4499709   4511179   4523058  
  4120.000000   4535365   4548054   4561170   4574697   4588688  
  4110.000000   4603125   4618038   4633383   4649151   4665272  
  4100.000000   4681709   4698376   4715227   4732189   4749228  
  4090.000000   4766307   4783416   4800552   4817721   4834942  
  4080.000000   4852218   4869575   4886998   4904494   4922003  
  4070.000000   4939488   4956830   4973956   4990728   5007096  
  4060.000000   5022958   5038326   5053141   5067452   5081213  
  4050.000000   5094490   5107245   5119570   5131432   5142923  
  4040.000000   5153967   5164598   5174664   5184147   5192872  
  4030.000000   5200844   5207938   5214204   5219567   5224085  
  4020.000000   5227665   5230381   5232221   5233289   5233553  
  4010.000000   5233173   5232230   5230749   5228496   5225541  
  4000.000000   5222228  
##END= 
