##TITLE= Sample 006 By ssteindl date Montag, November 26 2018
##JCAMP-DX= 4.24
##DATA TYPE= INFRARED SPECTRUM
##ORIGIN= Exported PE Spectrum Data File
##OWNER= Sandra Steindl
##DATE= 18/11/26
##TIME= 11:26:50.00
##SPECTROMETER/DATA SYSTEM= PERKIN-ELMER Frontier FT-IR/NIR IR
##INSTRUMENT PARAMETERS=
  APODIZATION=stark
  DETECTOR=INGAAS
##RESOLUTION= 16.000000
##DELTAX= -2.000000
##XUNITS= 1/CM
##YUNITS= A
##XFACTOR= 1.00
##YFACTOR= 0.00000011920928955078
##FIRSTX= 10000.00
##LASTX= 4000.00
##NPOINTS= 3001
##FIRSTY= 0.282183
##MAXY= 0.596800
##MINY= 0.219358
##XYDATA= (X++(Y..Y))
 10000.000000   2367124   2360959   2355144   2350420   2347492  
  9990.000000   2346843   2348672   2353031   2359730   2368431  
  9980.000000   2378540   2389221   2399428   2407972   2413828  
  9970.000000   2416205   2414903   2410134   2402596   2393071  
  9960.000000   2382406   2371329   2360506   2350664   2342464  
  9950.000000   2336639   2333599   2333546   2336174   2340909  
  9940.000000   2346938   2353371   2359422   2364284   2367359  
  9930.000000   2368023   2365963   2361087   2353858   2345268  
  9920.000000   2336796   2330174   2326921   2328068   2333775  
  9910.000000   2343410   2355554   2368402   2379967   2388481  
  9900.000000   2392616   2391699   2385912   2376216   2364361  
  9890.000000   2352431   2342501   2336002   2333361   2333899  
  9880.000000   2336066   2338132   2338728   2337467   2334870  
  9870.000000   2332181   2330677   2331132   2333526   2337013  
  9860.000000   2340470   2342824   2343617   2342939   2341336  
  9850.000000   2339426   2337626   2336134   2335000   2334416  
  9840.000000   2334746   2336506   2339981   2345004   2350705  
  9830.000000   2355763   2358760   2358765   2355710   2350371  
  9820.000000   2344125   2338252   2333559   2329990   2326869  
  9810.000000   2323251   2318478   2312566   2306197   2300575  
  9800.000000   2296875   2295992   2298201   2303241   2310417  
  9790.000000   2318779   2327319   2334966   2340752   2343805  
  9780.000000   2343619   2340178   2334149   2326804   2319771  
  9770.000000   2314606   2312329   2313174   2316491   2321090  
  9760.000000   2325537   2328704   2329906   2329069   2326509  
  9750.000000   2322750   2318332   2313652   2309042   2304695  
  9740.000000   2300824   2297533   2294859   2292711   2290897  
  9730.000000   2289298   2287874   2286875   2286657   2287671  
  9720.000000   2290181   2294143   2299134   2304362   2308912  
  9710.000000   2311872   2312660   2311016   2307149   2301523  
  9700.000000   2294852   2287887   2281385   2276006   2272244  
  9690.000000   2270415   2270542   2272454   2275695   2279744  
  9680.000000   2283999   2288015   2291487   2294318   2296548  
  9670.000000   2298230   2299393   2299919   2299644   2298347  
  9660.000000   2295916   2292390   2288005   2283184   2278434  
  9650.000000   2274273   2271091   2269078   2268181   2268109  
  9640.000000   2268429   2268662   2268407   2267436   2265721  
  9630.000000   2263475   2261105   2259171   2258291   2258981  
  9620.000000   2261538   2265870   2271482   2277483   2282783  
  9610.000000   2286321   2287362   2285703   2281774   2276525  
  9600.000000   2271203   2266980   2264643   2264386   2265778  
  9590.000000   2267972   2269974   2270983   2270626   2269020  
  9580.000000   2266709   2264405   2262755   2262084   2262326  
  9570.000000   2263071   2263766   2263975   2263590   2262955  
  9560.000000   2262752   2263819   2266748   2271661   2277970  
  9550.000000   2284521   2289871   2292756   2292514   2289294  
  9540.000000   2283974   2277853   2272165   2267742   2264770  
  9530.000000   2262881   2261391   2259650   2257300   2254373  
  9520.000000   2251117   2247828   2244579   2241267   2237700  
  9510.000000   2233841   2229993   2226737   2224808   2224697  
  9500.000000   2226438   2229443   2232683   2235004   2235566  
  9490.000000   2234145   2231239   2227839   2225085   2223824  
  9480.000000   2224388   2226515   2229545   2232655   2235136  
  9470.000000   2236537   2236712   2235774   2233977   2231675  
  9460.000000   2229243   2227069   2225503   2224780   2224945  
  9450.000000   2225796   2226925   2227839   2228096   2227475  
  9440.000000   2225998   2223935   2221687   2219647   2218096  
  9430.000000   2217130   2216677   2216563   2216571   2216523  
  9420.000000   2216277   2215787   2215055   2214194   2213351  
  9410.000000   2212702   2212349   2212246   2212197   2211844  
  9400.000000   2210849   2208947   2206115   2202536   2198575  
  9390.000000   2194639   2191065   2188073   2185760   2184193  
  9380.000000   2183468   2183751   2185206   2187869   2191519  
  9370.000000   2195612   2199412   2202154   2203346   2202873  
  9360.000000   2201067   2198546   2196028   2194101   2193069  
  9350.000000   2192970   2193624   2194833   2196393   2198184  
  9340.000000   2200018   2201664   2202752   2202915   2201849  
  9330.000000   2199484   2196015   2191845   2187462   2183257  
  9320.000000   2179448   2176040   2172909   2169908   2166962  
  9310.000000   2164115   2161467   2159134   2157135   2155419  
  9300.000000   2153886   2152505   2151382   2150727   2150804  
  9290.000000   2151711   2153380   2155439   2157413   2158716  
  9280.000000   2158936   2157860   2155647   2152720   2149707  
  9270.000000   2147270   2145970   2146223   2148185   2151805  
  9260.000000   2156734   2162455   2168310   2173661   2177977  
  9250.000000   2180911   2182348   2182323   2181013   2178602  
  9240.000000   2175304   2171309   2166867   2162310   2158056  
  9230.000000   2154591   2152304   2151455   2151982   2153619  
  9220.000000   2155838   2158098   2159896   2160961   2161252  
  9210.000000   2160923   2160229   2159397   2158600   2157864  
  9200.000000   2157113   2156167   2154848   2153014   2150634  
  9190.000000   2147795   2144706   2141659   2138955   2136846  
  9180.000000   2135439   2134698   2134415   2134343   2134239  
  9170.000000   2134020   2133748   2133635   2133917   2134757  
  9160.000000   2136146   2137806   2139260   2139906   2139258  
  9150.000000   2137001   2133165   2128067   2122340   2116724  
  9140.000000   2111934   2108495   2106668   2106426   2107477  
  9130.000000   2109386   2111700   2114081   2116350   2118505  
  9120.000000   2120628   2122831   2125153   2127516   2129748  
  9110.000000   2131632   2133046   2133941   2134386   2134464  
  9100.000000   2134234   2133644   2132528   2130685   2127987  
  9090.000000   2124512   2120572   2116703   2113500   2111490  
  9080.000000   2110918   2111724   2113522   2115774   2117922  
  9070.000000   2119562   2120514   2120824   2120694   2120354  
  9060.000000   2119973   2119619   2119292   2118949   2118558  
  9050.000000   2118127   2117683   2117261   2116825   2116308  
  9040.000000   2115598   2114613   2113311   2111708   2109867  
  9030.000000   2107845   2105660   2103280   2100650   2097764  
  9020.000000   2094719   2091742   2089174   2087365   2086586  
  9010.000000   2086885   2088050   2089643   2091133   2092037  
  9000.000000   2092094   2091313   2090024   2088718   2087950  
  8990.000000   2088096   2089285   2091315   2093733   2095970  
  8980.000000   2097501   2098036   2097575   2096466   2095256  
  8970.000000   2094548   2094773   2096049   2098118   2100361  
  8960.000000   2101990   2102254   2100735   2097432   2092780  
  8950.000000   2087544   2082589   2078670   2076205   2075282  
  8940.000000   2075712   2077174   2079314   2081852   2084581  
  8930.000000   2087317   2089793   2091681   2092648   2092465  
  8920.000000   2091139   2088926   2086348   2083989   2082345  
  8910.000000   2081626   2081703   2082182   2082541   2082364  
  8900.000000   2081444   2079884   2077994   2076197   2074850  
  8890.000000   2074143   2074055   2074393   2074887   2075262  
  8880.000000   2075328   2074992   2074285   2073328   2072303  
  8870.000000   2071411   2070818   2070615   2070783   2071185  
  8860.000000   2071605   2071807   2071621   2071003   2070065  
  8850.000000   2069024   2068133   2067567   2067378   2067459  
  8840.000000   2067602   2067567   2067181   2066405   2065338  
  8830.000000   2064209   2063288   2062833   2063015   2063882  
  8820.000000   2065348   2067178   2069041   2070540   2071323  
  8810.000000   2071155   2070000   2068065   2065749   2063578  
  8800.000000   2062034   2061476   2062005   2063482   2065540  
  8790.000000   2067709   2069543   2070678   2070919   2070168  
  8780.000000   2068480   2065944   2062730   2059031   2055115  
  8770.000000   2051332   2048091   2045866   2045058   2045990  
  8760.000000   2048743   2053163   2058772   2064852   2070531  
  8750.000000   2074939   2077428   2077642   2075695   2072038  
  8740.000000   2067452   2062771   2058745   2055849   2054228  
  8730.000000   2053774   2054198   2055238   2056662   2058392  
  8720.000000   2060372   2062573   2064865   2067021   2068760  
  8710.000000   2069785   2069937   2069160   2067600   2065479  
  8700.000000   2063102   2060744   2058629   2056927   2055738  
  8690.000000   2055142   2055156   2055777   2056935   2058524  
  8680.000000   2060376   2062303   2064112   2065627   2066741  
  8670.000000   2067385   2067597   2067455   2067121   2066752  
  8660.000000   2066491   2066408   2066494   2066681   2066875  
  8650.000000   2067041   2067222   2067572   2068275   2069477  
  8640.000000   2071166   2073153   2075085   2076547   2077212  
  8630.000000   2076952   2075921   2074477   2073065   2072044  
  8620.000000   2071581   2071611   2071904   2072185   2072273  
  8610.000000   2072151   2071950   2071892   2072146   2072782  
  8600.000000   2073713   2074765   2075756   2076567   2077196  
  8590.000000   2077712   2078228   2078790   2079367   2079826  
  8580.000000   2080012   2079798   2079149   2078151   2076990  
  8570.000000   2075931   2075231   2075122   2075736   2077115  
  8560.000000   2079161   2081681   2084377   2086907   2088928  
  8550.000000   2090170   2090503   2089958   2088726   2087084  
  8540.000000   2085340   2083736   2082426   2081439   2080718  
  8530.000000   2080163   2079670   2079191   2078720   2078309  
  8520.000000   2078021   2077928   2078075   2078480   2079127  
  8510.000000   2079960   2080902   2081864   2082762   2083541  
  8500.000000   2084180   2084703   2085171   2085648   2086179  
  8490.000000   2086746   2087284   2087659   2087720   2087328  
  8480.000000   2086411   2085001   2083245   2081401   2079792  
  8470.000000   2078749   2078523   2079224   2080777   2082931  
  8460.000000   2085298   2087451   2089022   2089805   2089797  
  8450.000000   2089195   2088317   2087510   2087057   2087100  
  8440.000000   2087614   2088439   2089350   2090120   2090575  
  8430.000000   2090631   2090278   2089568   2088570   2087373  
  8420.000000   2086070   2084769   2083590   2082663   2082111  
  8410.000000   2082019   2082393   2083154   2084143   2085160  
  8400.000000   2086004   2086522   2086645   2086398   2085892  
  8390.000000   2085268   2084673   2084202   2083907   2083773  
  8380.000000   2083753   2083783   2083813   2083812   2083756  
  8370.000000   2083638   2083449   2083209   2082952   2082761  
  8360.000000   2082735   2082993   2083600   2084552   2085727  
  8350.000000   2086924   2087892   2088410   2088349   2087698  
  8340.000000   2086565   2085116   2083517   2081865   2080179  
  8330.000000   2078412   2076516   2074505   2072491   2070675  
  8320.000000   2069288   2068522   2068442   2068960   2069832  
  8310.000000   2070740   2071394   2071610   2071378   2070837  
  8300.000000   2070243   2069863   2069891   2070379   2071219  
  8290.000000   2072192   2073040   2073553   2073629   2073298  
  8280.000000   2072685   2071949   2071198   2070445   2069605  
  8270.000000   2068534   2067111   2065305   2063220   2061090  
  8260.000000   2059195   2057795   2057014   2056845   2057123  
  8250.000000   2057630   2058140   2058505   2058669   2058644  
  8240.000000   2058464   2058133   2057614   2056834   2055732  
  8230.000000   2054282   2052535   2050599   2048615   2046720  
  8220.000000   2045015   2043554   2042351   2041399   2040667  
  8210.000000   2040109   2039645   2039178   2038609   2037882  
  8200.000000   2037010   2036096   2035304   2034812   2034734  
  8190.000000   2035064   2035664   2036295   2036694   2036666  
  8180.000000   2036127   2035126   2033790   2032274   2030691  
  8170.000000   2029098   2027499   2025894   2024304   2022791  
  8160.000000   2021423   2020242   2019218   2018251   2017191  
  8150.000000   2015915   2014363   2012598   2010772   2009087  
  8140.000000   2007714   2006740   2006141   2005801   2005566  
  8130.000000   2005271   2004806   2004089   2003081   2001746  
  8120.000000   2000066   1998046   1995748   1993318   1990977  
  8110.000000   1988995   1987617   1987007   1987175   1987988  
  8100.000000   1989170   1990389   1991317   1991709   1991451  
  8090.000000   1990555   1989158   1987439   1985588   1983733  
  8080.000000   1981941   1980206   1978495   1976786   1975106  
  8070.000000   1973551   1972253   1971358   1970937   1970969  
  8060.000000   1971302   1971707   1971934   1971798   1971247  
  8050.000000   1970373   1969374   1968473   1967825   1967459  
  8040.000000   1967267   1967049   1966600   1965777   1964564  
  8030.000000   1963053   1961402   1959768   1958244   1956852  
  8020.000000   1955551   1954302   1953103   1952019   1951153  
  8010.000000   1950609   1950421   1950538   1950813   1951051  
  8000.000000   1951075   1950768   1950122   1949197   1948112  
  7990.000000   1946973   1945856   1944784   1943752   1942755  
  7980.000000   1941809   1940966   1940290   1939838   1939616  
  7970.000000   1939583   1939650   1939708   1939666   1939459  
  7960.000000   1939070   1938501   1937774   1936902   1935903  
  7950.000000   1934806   1933666   1932579   1931655   1931005  
  7940.000000   1930690   1930701   1930941   1931254   1931463  
  7930.000000   1931419   1931045   1930341   1929385   1928287  
  7920.000000   1927161   1926088   1925117   1924270   1923564  
  7910.000000   1923019   1922671   1922546   1922644   1922921  
  7900.000000   1923280   1923590   1923723   1923584   1923154  
  7890.000000   1922488   1921714   1920985   1920441   1920163  
  7880.000000   1920150   1920322   1920537   1920650   1920541  
  7870.000000   1920169   1919568   1918849   1918149   1917595  
  7860.000000   1917248   1917090   1917015   1916872   1916515  
  7850.000000   1915849   1914876   1913683   1912432   1911289  
  7840.000000   1910385   1909763   1909374   1909097   1908787  
  7830.000000   1908331   1907690   1906921   1906160   1905589  
  7820.000000   1905369   1905596   1906259   1907237   1908320  
  7810.000000   1909260   1909833   1909889   1909395   1908431  
  7800.000000   1907163   1905794   1904499   1903393   1902497  
  7790.000000   1901767   1901113   1900461   1899762   1899029  
  7780.000000   1898297   1897619   1897013   1896461   1895898  
  7770.000000   1895243   1894429   1893423   1892249   1890971  
  7760.000000   1889673   1888430   1887283   1886236   1885267  
  7750.000000   1884346   1883461   1882627   1881888   1881289  
  7740.000000   1880858   1880580   1880392   1880196   1879890  
  7730.000000   1879407   1878751   1877998   1877281   1876748  
  7720.000000   1876499   1876546   1876796   1877068   1877155  
  7710.000000   1876878   1876160   1875026   1873615   1872103  
  7700.000000   1870663   1869400   1868334   1867416   1866565  
  7690.000000   1865731   1864911   1864183   1863656   1863448  
  7680.000000   1863618   1864144   1864914   1865747   1866440  
  7670.000000   1866804   1866720   1866140   1865116   1863765  
  7660.000000   1862259   1860782   1859494   1858506   1857849  
  7650.000000   1857494   1857350   1857322   1857316   1857290  
  7640.000000   1857225   1857135   1857018   1856849   1856569  
  7630.000000   1856101   1855388   1854416   1853242   1851972  
  7620.000000   1850741   1849658   1848780   1848099   1847554  
  7610.000000   1847072   1846596   1846111   1845646   1845239  
  7600.000000   1844923   1844696   1844524   1844353   1844144  
  7590.000000   1843882   1843600   1843354   1843212   1843216  
  7580.000000   1843374   1843647   1843969   1844259   1844443  
  7570.000000   1844461   1844285   1843917   1843394   1842789  
  7560.000000   1842197   1841723   1841460   1841456   1841701  
  7550.000000   1842113   1842557   1842883   1842967   1842752  
  7540.000000   1842268   1841617   1840951   1840415   1840123  
  7530.000000   1840108   1840339   1840720   1841143   1841508  
  7520.000000   1841758   1841888   1841935   1841967   1842051  
  7510.000000   1842242   1842568   1843032   1843626   1844330  
  7500.000000   1845129   1845990   1846876   1847718   1848437  
  7490.000000   1848944   1849181   1849130   1848852   1848469  
  7480.000000   1848149   1848054   1848294   1848901   1849817  
  7470.000000   1850923   1852075   1853152   1854095   1854902  
  7460.000000   1855626   1856323   1857044   1857796   1858566  
  7450.000000   1859314   1860016   1860662   1861273   1861884  
  7440.000000   1862539   1863269   1864100   1865040   1866095  
  7430.000000   1867257   1868511   1869823   1871144   1872421  
  7420.000000   1873606   1874684   1875676   1876645   1877669  
  7410.000000   1878825   1880154   1881643   1883230   1884814  
  7400.000000   1886290   1887571   1888613   1889415   1890018  
  7390.000000   1890483   1890881   1891280   1891732   1892291  
  7380.000000   1892994   1893880   1894972   1896278   1897783  
  7370.000000   1899437   1901154   1902816   1904295   1905467  
  7360.000000   1906259   1906658   1906748   1906678   1906649  
  7350.000000   1906861   1907471   1908548   1910055   1911878  
  7340.000000   1913852   1915830   1917700   1919417   1920981  
  7330.000000   1922425   1923781   1925066   1926283   1927420  
  7320.000000   1928470   1929427   1930294   1931078   1931784  
  7310.000000   1932425   1933005   1933543   1934052   1934553  
  7300.000000   1935052   1935551   1936037   1936504   1936945  
  7290.000000   1937375   1937813   1938289   1938814   1939383  
  7280.000000   1939970   1940540   1941063   1941528   1941942  
  7270.000000   1942321   1942679   1943009   1943294   1943512  
  7260.000000   1943666   1943791   1943962   1944259   1944752  
  7250.000000   1945453   1946318   1947248   1948144   1948928  
  7240.000000   1949597   1950203   1950850   1951622   1952574  
  7230.000000   1953684   1954898   1956140   1957375   1958611  
  7220.000000   1959910   1961343   1962975   1964815   1966836  
  7210.000000   1968963   1971126   1973254   1975319   1977305  
  7200.000000   1979226   1981085   1982904   1984695   1986504  
  7190.000000   1988381   1990399   1992610   1995051   1997700  
  7180.000000   2000507   2003386   2006268   2009092   2011849  
  7170.000000   2014538   2017200   2019858   2022558   2025321  
  7160.000000   2028189   2031184   2034339   2037651   2041113  
  7150.000000   2044677   2048304   2051950   2055616   2059329  
  7140.000000   2063159   2067163   2071395   2075845   2080481  
  7130.000000   2085220   2090002   2094756   2099465   2104109  
  7120.000000   2108710   2113268   2117812   2122361   2126974  
  7110.000000   2131714   2136670   2141908   2147475   2153357  
  7100.000000   2159497   2165790   2172130   2178413   2184579  
  7090.000000   2190589   2196450   2202173   2207797   2213355  
  7080.000000   2218909   2224513   2230236   2236113   2242164  
  7070.000000   2248358   2254639   2260936   2267193   2273381  
  7060.000000   2279513   2285624   2291767   2297981   2304295  
  7050.000000   2310715   2317238   2323846   2330518   2337224  
  7040.000000   2343922   2350560   2357091   2363482   2369724  
  7030.000000   2375836   2381852   2387810   2393725   2399597  
  7020.000000   2405404   2411137   2416789   2422393   2427978  
  7010.000000   2433586   2439212   2444830   2450369   2455764  
  7000.000000   2460954   2465926   2470691   2475299   2479786  
  6990.000000   2484187   2488506   2492752   2496920   2501038  
  6980.000000   2505129   2509236   2513363   2517510   2521628  
  6970.000000   2525675   2529593   2533364   2536971   2540429  
  6960.000000   2543737   2546900   2549900   2552736   2555408  
  6950.000000   2557954   2560411   2562835   2565248   2567659  
  6940.000000   2570030   2572325   2574495   2576525   2578408  
  6930.000000   2580169   2581828   2583415   2584944   2586441  
  6920.000000   2587923   2589425   2590967   2592561   2594186  
  6910.000000   2595800   2597338   2598746   2599984   2601054  
  6900.000000   2601984   2602828   2603636   2604454   2605306  
  6890.000000   2606208   2607160   2608156   2609176   2610186  
  6880.000000   2611136   2611980   2612682   2613247   2613720  
  6870.000000   2614184   2614726   2615408   2616239   2617175  
  6860.000000   2618135   2619036   2619824   2620500   2621102  
  6850.000000   2621694   2622322   2623004   2623716   2624412  
  6840.000000   2625048   2625599   2626061   2626451   2626785  
  6830.000000   2627076   2627323   2627538   2627738   2627970  
  6820.000000   2628277   2628703   2629241   2629846   2630427  
  6810.000000   2630884   2631134   2631146   2630940   2630583  
  6800.000000   2630151   2629712   2629295   2628899   2628496  
  6790.000000   2628064   2627591   2627092   2626590   2626124  
  6780.000000   2625716   2625382   2625115   2624899   2624704  
  6770.000000   2624502   2624268   2623990   2623668   2623319  
  6760.000000   2622967   2622635   2622328   2622038   2621735  
  6750.000000   2621388   2620978   2620514   2620027   2619567  
  6740.000000   2619167   2618840   2618551   2618243   2617851  
  6730.000000   2617335   2616695   2615970   2615213   2614469  
  6720.000000   2613746   2613016   2612227   2611343   2610358  
  6710.000000   2609317   2608292   2607364   2606576   2605933  
  6700.000000   2605389   2604880   2604337   2603717   2603004  
  6690.000000   2602197   2601301   2600315   2599229   2598042  
  6680.000000   2596764   2595433   2594095   2592803   2591584  
  6670.000000   2590442   2589349   2588271   2587166   2586010  
  6660.000000   2584782   2583472   2582061   2580533   2578879  
  6650.000000   2577117   2575295   2573497   2571809   2570298  
  6640.000000   2568978   2567805   2566683   2565499   2564153  
  6630.000000   2562593   2560816   2558871   2556829   2554766  
  6620.000000   2552742   2550803   2548970   2547258   2545659  
  6610.000000   2544154   2542699   2541243   2539729   2538118  
  6600.000000   2536399   2534586   2532717   2530829   2528945  
  6590.000000   2527069   2525190   2523300   2521403   2519523  
  6580.000000   2517697   2515959   2514322   2512773   2511277  
  6570.000000   2509791   2508285   2506747   2505188   2503627  
  6560.000000   2502083   2500561   2499059   2497571   2496096  
  6550.000000   2494645   2493236   2491879   2490573   2489300  
  6540.000000   2488032   2486744   2485425   2484082   2482737  
  6530.000000   2481409   2480109   2478827   2477546   2476247  
  6520.000000   2474922   2473578   2472232   2470902   2469599  
  6510.000000   2468320   2467061   2465816   2464593   2463406  
  6500.000000   2462273   2461201   2460184   2459197   2458215  
  6490.000000   2457227   2456242   2455285   2454389   2453566  
  6480.000000   2452803   2452055   2451266   2450388   2449405  
  6470.000000   2448335   2447222   2446112   2445033   2443987  
  6460.000000   2442954   2441906   2440830   2439731   2438634  
  6450.000000   2437567   2436549   2435583   2434661   2433776  
  6440.000000   2432935   2432150   2431443   2430816   2430247  
  6430.000000   2429690   2429090   2428403   2427626   2426791  
  6420.000000   2425966   2425213   2424577   2424057   2423622  
  6410.000000   2423221   2422815   2422388   2421950   2421521  
  6400.000000   2421117   2420733   2420346   2419933   2419482  
  6390.000000   2419005   2418533   2418096   2417706   2417338  
  6380.000000   2416940   2416448   2415814   2415028   2414126  
  6370.000000   2413178   2412264   2411452   2410772   2410226  
  6360.000000   2409783   2409405   2409049   2408683   2408275  
  6350.000000   2407802   2407242   2406588   2405849   2405052  
  6340.000000   2404240   2403459   2402739   2402094   2401508  
  6330.000000   2400950   2400378   2399761   2399072   2398303  
  6320.000000   2397446   2396512   2395509   2394460   2393389  
  6310.000000   2392331   2391305   2390323   2389365   2388397  
  6300.000000   2387366   2386231   2384963   2383571   2382080  
  6290.000000   2380538   2378984   2377449   2375940   2374457  
  6280.000000   2372978   2371485   2369951   2368356   2366674  
  6270.000000   2364901   2363038   2361115   2359175   2357273  
  6260.000000   2355450   2353722   2352062   2350420   2348728  
  6250.000000   2346936   2345023   2343013   2340955   2338908  
  6240.000000   2336913   2334985   2333107   2331243   2329354  
  6230.000000   2327415   2325414   2323353   2321244   2319101  
  6220.000000   2316943   2314798   2312699   2310685   2308785  
  6210.000000   2307012   2305350   2303757   2302178   2300557  
  6200.000000   2298861   2297073   2295204   2293269   2291286  
  6190.000000   2289269   2287238   2285218   2283251   2281385  
  6180.000000   2279659   2278093   2276664   2275321   2273995  
  6170.000000   2272625   2271179   2269662   2268107   2266554  
  6160.000000   2265032   2263541   2262061   2260556   2259008  
  6150.000000   2257416   2255803   2254204   2252648   2251145  
  6140.000000   2249690   2248265   2246860   2245476   2244128  
  6130.000000   2242837   2241613   2240448   2239323   2238206  
  6120.000000   2237080   2235940   2234805   2233698   2232645  
  6110.000000   2231650   2230706   2229789   2228884   2227977  
  6100.000000   2227074   2226185   2225325   2224493   2223690  
  6090.000000   2222904   2222138   2221398   2220709   2220092  
  6080.000000   2219569   2219140   2218801   2218525   2218297  
  6070.000000   2218098   2217927   2217780   2217665   2217575  
  6060.000000   2217516   2217483   2217494   2217565   2217729  
  6050.000000   2218004   2218406   2218922   2219535   2220213  
  6040.000000   2220944   2221720   2222562   2223485   2224510  
  6030.000000   2225630   2226830   2228070   2229319   2230545  
  6020.000000   2231746   2232925   2234101   2235287   2236496  
  6010.000000   2237728   2238982   2240253   2241542   2242848  
  6000.000000   2244175   2245521   2246888   2248273   2249684  
  5990.000000   2251125   2252610   2254146   2255741   2257387  
  5980.000000   2259078   2260798   2262544   2264308   2266099  
  5970.000000   2267919   2269777   2271671   2273608   2275585  
  5960.000000   2277615   2279699   2281850   2284055   2286302  
  5950.000000   2288558   2290799   2292999   2295167   2297321  
  5940.000000   2299507   2301770   2304147   2306658   2309298  
  5930.000000   2312051   2314887   2317777   2320692   2323598  
  5920.000000   2326456   2329220   2331846   2334296   2336558  
  5910.000000   2338640   2340577   2342412   2344196   2345970  
  5900.000000   2347766   2349608   2351515   2353507   2355592  
  5890.000000   2357774   2360033   2362342   2364660   2366956  
  5880.000000   2369211   2371426   2373620   2375809   2378004  
  5870.000000   2380192   2382349   2384436   2386434   2388332  
  5860.000000   2390149   2391914   2393667   2395437   2397249  
  5850.000000   2399120   2401067   2403111   2405272   2407564  
  5840.000000   2409986   2412516   2415118   2417750   2420377  
  5830.000000   2422981   2425561   2428123   2430676   2433214  
  5820.000000   2435721   2438174   2440558   2442872   2445130  
  5810.000000   2447357   2449566   2451771   2453950   2456096  
  5800.000000   2458176   2460201   2462164   2464105   2466022  
  5790.000000   2467929   2469776   2471511   2473025   2474228  
  5780.000000   2475001   2475270   2474968   2474092   2472661  
  5770.000000   2470766   2468518   2466072   2463563   2461124  
  5760.000000   2458824   2456709   2454767   2452986   2451338  
  5750.000000   2449819   2448430   2447180   2446066   2445066  
  5740.000000   2444151   2443278   2442428   2441584   2440767  
  5730.000000   2439992   2439289   2438659   2438106   2437611  
  5720.000000   2437167   2436765   2436413   2436115   2435881  
  5710.000000   2435700   2435563   2435450   2435351   2435266  
  5700.000000   2435209   2435194   2435233   2435328   2435468  
  5690.000000   2435642   2435838   2436061   2436315   2436608  
  5680.000000   2436923   2437234   2437485   2437620   2437575  
  5670.000000   2437315   2436814   2436071   2435090   2433887  
  5660.000000   2432478   2430898   2429188   2427415   2425642  
  5650.000000   2423938   2422337   2420857   2419477   2418169  
  5640.000000   2416900   2415656   2414435   2413250   2412116  
  5630.000000   2411038   2410015   2409033   2408085   2407165  
  5620.000000   2406278   2405422   2404598   2403789   2402977  
  5610.000000   2402143   2401283   2400410   2399556   2398754  
  5600.000000   2398029   2397382   2396792   2396222   2395636  
  5590.000000   2395006   2394325   2393599   2392837   2392048  
  5580.000000   2391225   2390362   2389451   2388495   2387507  
  5570.000000   2386511   2385523   2384556   2383604   2382653  
  5560.000000   2381682   2380677   2379633   2378552   2377441  
  5550.000000   2376309   2375162   2374006   2372848   2371701  
  5540.000000   2370580   2369494   2368445   2367427   2366422  
  5530.000000   2365414   2364397   2363373   2362360   2361375  
  5520.000000   2360431   2359529   2358654   2357784   2356896  
  5510.000000   2355974   2355009   2354003   2352962   2351892  
  5500.000000   2350798   2349690   2348577   2347475   2346390  
  5490.000000   2345327   2344268   2343192   2342065   2340867  
  5480.000000   2339588   2338239   2336841   2335418   2333981  
  5470.000000   2332525   2331029   2329470   2327826   2326095  
  5460.000000   2324285   2322416   2320503   2318560   2316590  
  5450.000000   2314599   2312595   2310592   2308608   2306657  
  5440.000000   2304748   2302883   2301065   2299303   2297617  
  5430.000000   2296023   2294535   2293136   2291791   2290442  
  5420.000000   2289046   2287572   2286044   2284514   2283067  
  5410.000000   2281765   2280649   2279697   2278871   2278111  
  5400.000000   2277394   2276713   2276110   2275618   2275283  
  5390.000000   2275106   2275084   2275182   2275398   2275727  
  5380.000000   2276211   2276865   2277725   2278764   2279965  
  5370.000000   2281264   2282641   2284060   2285554   2287128  
  5360.000000   2288844   2290706   2292768   2295025   2297538  
  5350.000000   2300316   2303438   2306914   2310803   2315069  
  5340.000000   2319731   2324722   2330073   2335740   2341790  
  5330.000000   2348196   2355023   2362226   2369853   2377848  
  5320.000000   2386288   2395153   2404561   2414512   2425123  
  5310.000000   2436356   2448285   2460833   2474058   2487897  
  5300.000000   2502439   2517659   2533682   2550504   2568248  
  5290.000000   2586885   2606480   2626930   2648207   2670145  
  5280.000000   2692691   2715723   2739284   2763373   2788119  
  5270.000000   2813549   2839701   2866449   2893625   2920984  
  5260.000000   2948330   2975545   3002621   3029640   3056673  
  5250.000000   3083765   3110808   3137649   3164005   3189698  
  5240.000000   3214538   3238557   3261769   3284360   3306382  
  5230.000000   3327958   3348999   3369475   3389180   3408061  
  5220.000000   3425969   3442979   3459078   3474453   3489141  
  5210.000000   3503302   3516888   3529938   3542292   3553934  
  5200.000000   3564720   3574717   3583890   3592394   3600233  
  5190.000000   3607531   3614227   3620363   3625830   3630666  
  5180.000000   3634802   3638333   3641239   3643623   3645450  
  5170.000000   3646786   3647572   3647868   3647644   3646989  
  5160.000000   3645898   3644456   3642631   3640468   3637914  
  5150.000000   3635006   3631717   3628115   3624200   3620040  
  5140.000000   3615621   3610981   3606095   3600996   3595684  
  5130.000000   3590215   3584608   3578915   3573138   3567300  
  5120.000000   3561386   3555412   3549379   3543317   3537236  
  5110.000000   3531158   3525072   3518973   3512834   3506650  
  5100.000000   3500421   3494172   3487934   3481744   3475627  
  5090.000000   3469598   3463653   3457785   3451974   3446207  
  5080.000000   3440460   3434717   3428954   3423153   3417302  
  5070.000000   3411400   3405457   3399494   3393524   3387562  
  5060.000000   3381601   3375635   3369643   3363615   3357542  
  5050.000000   3351434   3345294   3339135   3332954   3326745  
  5040.000000   3320494   3314189   3307823   3301398   3294926  
  5030.000000   3288421   3281902   3275382   3268883   3262420  
  5020.000000   3256021   3249705   3243501   3237420   3231478  
  5010.000000   3225664   3219981   3214410   3208961   3203624  
  5000.000000   3198430   3193378   3188504   3183802   3179305  
  4990.000000   3175001   3170924   3167066   3163472   3160133  
  4980.000000   3157093   3154332   3151882   3149710   3147848  
  4970.000000   3146269   3145015   3144071   3143485   3143240  
  4960.000000   3143379   3143872   3144757   3145995   3147620  
  4950.000000   3149588   3151924   3154572   3157548   3160796  
  4940.000000   3164341   3168146   3172260   3176667   3181421  
  4930.000000   3186499   3191933   3197678   3203743   3210074  
  4920.000000   3216678   3223514   3230599   3237902   3245443  
  4910.000000   3253195   3261174   3269354   3277746   3286322  
  4900.000000   3295079   3303987   3313028   3322171   3331396  
  4890.000000   3340678   3349997   3359330   3368640   3377892  
  4880.000000   3387030   3396015   3404789   3413334   3421613  
  4870.000000   3429629   3437359   3444813   3451968   3458837  
  4860.000000   3465394   3471662   3477625   3483315   3488723  
  4850.000000   3493889   3498811   3503535   3508070   3512470  
  4840.000000   3516745   3520936   3525035   3529060   3532982  
  4830.000000   3536808   3540514   3544117   3547611   3551019  
  4820.000000   3554338   3557578   3560724   3563778   3566725  
  4810.000000   3569575   3572331   3575018   3577649   3580248  
  4800.000000   3582821   3585384   3587932   3590476   3593006  
  4790.000000   3595526   3598026   3600504   3602948   3605360  
  4780.000000   3607731   3610072   3612378   3614656   3616888  
  4770.000000   3619065   3621155   3623144   3625004   3626735  
  4760.000000   3628329   3629802   3631149   3632386   3633498  
  4750.000000   3634487   3635333   3636039   3636593   3637009  
  4740.000000   3637283   3637438   3637470   3637396   3637208  
  4730.000000   3636915   3636505   3635983   3635341   3634590  
  4720.000000   3633734   3632797   3631797   3630770   3629742  
  4710.000000   3628743   3627786   3626884   3626031   3625220  
  4700.000000   3624439   3623678   3622929   3622194   3621480  
  4690.000000   3620799   3620169   3619607   3619127   3618731  
  4680.000000   3618413   3618145   3617893   3617607   3617250  
  4670.000000   3616788   3616216   3615543   3614810   3614053  
  4660.000000   3613323   3612649   3612064   3611579   3611214  
  4650.000000   3610977   3610892   3610973   3611237   3611683  
  4640.000000   3612299   3613058   3613927   3614871   3615863  
  4630.000000   3616885   3617929   3618986   3620046   3621088  
  4620.000000   3622085   3623001   3623802   3624461   3624961  
  4610.000000   3625300   3625489   3625555   3625525   3625442  
  4600.000000   3625333   3625236   3625160   3625123   3625105  
  4590.000000   3625097   3625060   3624971   3624790   3624497  
  4580.000000   3624065   3623488   3622749   3621856   3620809  
  4570.000000   3619630   3618333   3616950   3615497   3614000  
  4560.000000   3612457   3610873   3609229   3607518   3605725  
  4550.000000   3603855   3601910   3599911   3597871   3595810  
  4540.000000   3593741   3591671   3589610   3587562   3585541  
  4530.000000   3583550   3581608   3579714   3577888   3576125  
  4520.000000   3574456   3572880   3571441   3570141   3569035  
  4510.000000   3568121   3567458   3567045   3566956   3567197  
  4500.000000   3567864   3568967   3570601   3572759   3575520  
  4490.000000   3578851   3582817   3587375   3592590   3598419  
  4480.000000   3604925   3612059   3619873   3628307   3637397  
  4470.000000   3647073   3657353   3668156   3679474   3691211  
  4460.000000   3703339   3715760   3728449   3741330   3754395  
  4450.000000   3767596   3780934   3794370   3807892   3821460  
  4440.000000   3835045   3848615   3862141   3875615   3889016  
  4430.000000   3902362   3915623   3928814   3941874   3954790  
  4420.000000   3967454   3979828   3991779   4003265   4014155  
  4410.000000   4024418   4033940   4042702   4050607   4057665  
  4400.000000   4063817   4069123   4073591   4077340   4080436  
  4390.000000   4083033   4085220   4087143   4088877   4090532  
  4380.000000   4092159   4093831   4095583   4097473   4099540  
  4370.000000   4101842   4104432   4107363   4110686   4114428  
  4360.000000   4118611   4123224   4128243   4133622   4139290  
  4350.000000   4145187   4151216   4157339   4163488   4169682  
  4340.000000   4175902   4182186   4188473   4194666   4200499  
  4330.000000   4205625   4209569   4211889   4212216   4210416  
  4320.000000   4206604   4201196   4194781   4188068   4181677  
  4310.000000   4176109   4171603   4168231   4165863   4164332  
  4300.000000   4163427   4163005   4162957   4163220   4163752  
  4290.000000   4164489   4165389   4166376   4167429   4168512  
  4280.000000   4169648   4170849   4172142   4173552   4175080  
  4270.000000   4176745   4178527   4180414   4182315   4184105  
  4260.000000   4185558   4186414   4186377   4185220   4182810  
  4250.000000   4179189   4174537   4169187   4163507   4157885  
  4240.000000   4152600   4147854   4143690   4140086   4136924  
  4230.000000   4134087   4131441   4128885   4126341   4123753  
  4220.000000   4121106   4118390   4115655   4112940   4110344  
  4210.000000   4107931   4105799   4103984   4102534   4101429  
  4200.000000   4100661   4100173   4099935   4099876   4099969  
  4190.000000   4100151   4100415   4100715   4101081   4101500  
  4180.000000   4102036   4102698   4103562   4104634   4105978  
  4170.000000   4107593   4109539   4111818   4114500   4117592  
  4160.000000   4121163   4125198   4129745   4134758   4140258  
  4150.000000   4146182   4152550   4159301   4166465   4173996  
  4140.000000   4181944   4190279   4199072   4208301   4218034  
  4130.000000   4228236   4238942   4250085   4261673   4273631  
  4120.000000   4285972   4298657   4311736   4325209   4339146  
  4110.000000   4353549   4368459   4383835   4399660   4415844  
  4100.000000   4432329   4449017   4465859   4482793   4499813  
  4090.000000   4516907   4534093   4551376   4568758   4586240  
  4080.000000   4603802   4621449   4639159   4656942   4674757  
  4070.000000   4692588   4710341   4727962   4745323   4762376  
  4060.000000   4779020   4795261   4811034   4826375   4841218  
  4050.000000   4855598   4869439   4882791   4895584   4907889  
  4040.000000   4919626   4930845   4941424   4951386   4960592  
  4030.000000   4969078   4976725   4983585   4989556   4994676  
  4020.000000   4998819   5002042   5004320   5005756   5006318  
  4010.000000   5006178   5005426   5004092   5001938   4999046  
  4000.000000   4995779  
##END= 
