##TITLE= Sample 018 By ssteindl date Montag, November 26 2018
##JCAMP-DX= 4.24
##DATA TYPE= INFRARED SPECTRUM
##ORIGIN= Exported PE Spectrum Data File
##OWNER= Sandra Steindl
##DATE= 18/11/26
##TIME= 11:37:52.00
##SPECTROMETER/DATA SYSTEM= PERKIN-ELMER Frontier FT-IR/NIR IR
##INSTRUMENT PARAMETERS=
  APODIZATION=stark
  DETECTOR=INGAAS
##RESOLUTION= 16.000000
##DELTAX= -2.000000
##XUNITS= 1/CM
##YUNITS= A
##XFACTOR= 1.00
##YFACTOR= 0.00000011920928955078
##FIRSTX= 10000.00
##LASTX= 4000.00
##NPOINTS= 3001
##FIRSTY= 0.276090
##MAXY= 0.626621
##MINY= 0.219151
##XYDATA= (X++(Y..Y))
 10000.000000   2316012   2315865   2317405   2322195   2329009  
  9990.000000   2335039   2338454   2338889   2336419   2331335  
  9980.000000   2324393   2316660   2308989   2302135   2296928  
  9970.000000   2294225   2294476   2297496   2302259   2307047  
  9960.000000   2309918   2309386   2304928   2297234   2287917  
  9950.000000   2278969   2272053   2268003   2266726   2267433  
  9940.000000   2269153   2271095   2272864   2274290   2275199  
  9930.000000   2275170   2273623   2270030   2264384   2257331  
  9920.000000   2250212   2244565   2241623   2241823   2244642  
  9910.000000   2248945   2253410   2257187   2260072   2262501  
  9900.000000   2265133   2268356   2272020   2275325   2277237  
  9890.000000   2276788   2273620   2268001   2260835   2253283  
  9880.000000   2246456   2241235   2238087   2237244   2238610  
  9870.000000   2241948   2246776   2252447   2258181   2263189  
  9860.000000   2266837   2268749   2268863   2267339   2264480  
  9850.000000   2260603   2256096   2251434   2247291   2244460  
  9840.000000   2243651   2245204   2248788   2253405   2257538  
  9830.000000   2259692   2258862   2254978   2248938   2242318  
  9820.000000   2236807   2233605   2233097   2234803   2237733  
  9810.000000   2240761   2243037   2244119   2243935   2242637  
  9800.000000   2240426   2237561   2234371   2231373   2229209  
  9790.000000   2228512   2229640   2232476   2236372   2240320  
  9780.000000   2243276   2244511   2243836   2241576   2238349  
  9770.000000   2234732   2231039   2227267   2223293   2219094  
  9760.000000   2214974   2211511   2209387   2209037   2210401  
  9750.000000   2212881   2215492   2217276   2217629   2216550  
  9740.000000   2214622   2212734   2211803   2212398   2214653  
  9730.000000   2218209   2222382   2226314   2229197   2230427  
  9720.000000   2229759   2227364   2223842   2220108   2217180  
  9710.000000   2215908   2216662   2219213   2222710   2226015  
  9700.000000   2228033   2228218   2226709   2224362   2222304  
  9690.000000   2221503   2222308   2224298   2226488   2227665  
  9680.000000   2226939   2223965   2219085   2213081   2206856  
  9670.000000   2201158   2196373   2192631   2189919   2188303  
  9660.000000   2187983   2189221   2192125   2196457   2201502  
  9650.000000   2206229   2209533   2210637   2209372   2206227  
  9640.000000   2202227   2198535   2196106   2195338   2195996  
  9630.000000   2197319   2198335   2198200   2196469   2193187  
  9620.000000   2188810   2184021   2179487   2175701   2172883  
  9610.000000   2171027   2169980   2169571   2169672   2170221  
  9600.000000   2171186   2172524   2174142   2175894   2177587  
  9590.000000   2178984   2179857   2179978   2179211   2177530  
  9580.000000   2175096   2172253   2169488   2167344   2166230  
  9570.000000   2166305   2167356   2168849   2170091   2170454  
  9560.000000   2169602   2167585   2164776   2161706   2158811  
  9550.000000   2156328   2154242   2152438   2150877   2149703  
  9540.000000   2149247   2149828   2151545   2154069   2156653  
  9530.000000   2158291   2158104   2155660   2151247   2145806  
  9520.000000   2140641   2136990   2135578   2136496   2139204  
  9510.000000   2142886   2146708   2150105   2152784   2154671  
  9500.000000   2155708   2155752   2154570   2151935   2147846  
  9490.000000   2142586   2136811   2131282   2126686   2123353  
  9480.000000   2121192   2119824   2118739   2117614   2116368  
  9470.000000   2115251   2114658   2114990   2116465   2119003  
  9460.000000   2122266   2125685   2128658   2130605   2131156  
  9450.000000   2130151   2127721   2124251   2120340   2116704  
  9440.000000   2114031   2112817   2113239   2115068   2117753  
  9430.000000   2120526   2122641   2123527   2122918   2120879  
  9420.000000   2117747   2114069   2110503   2107744   2106442  
  9410.000000   2107081   2109859   2114593   2120656   2127097  
  9400.000000   2132757   2136613   2137995   2136850   2133762  
  9390.000000   2129777   2126087   2123604   2122703   2123115  
  9380.000000   2124047   2124475   2123502   2120702   2116288  
  9370.000000   2111062   2106096   2102385   2100443   2100242  
  9360.000000   2101186   2102437   2103170   2102978   2101997  
  9350.000000   2100885   2100479   2101397   2103707   2106802  
  9340.000000   2109599   2110801   2109404   2104943   2097771  
  9330.000000   2088887   2079714   2071623   2065621   2062164  
  9320.000000   2061162   2062117   2064298   2066957   2069491  
  9310.000000   2071555   2073079   2074224   2075325   2076742  
  9300.000000   2078792   2081546   2084841   2088205   2091104  
  9290.000000   2093057   2093894   2093792   2093217   2092767  
  9280.000000   2092889   2093740   2095070   2096420   2097279  
  9270.000000   2097382   2096733   2095654   2094549   2093772  
  9260.000000   2093416   2093328   2093174   2092618   2091428  
  9250.000000   2089540   2087003   2083943   2080486   2076794  
  9240.000000   2073068   2069611   2066815   2065063   2064586  
  9230.000000   2065242   2066515   2067606   2067751   2066449  
  9220.000000   2063664   2059852   2055834   2052541   2050716  
  9210.000000   2050704   2052423   2055468   2059277   2063245  
  9200.000000   2066788   2069393   2070656   2070335   2068421  
  9190.000000   2065212   2061333   2057592   2054753   2053253  
  9180.000000   2053056   2053675   2054359   2054393   2053329  
  9170.000000   2051205   2048463   2045763   2043640   2042337  
  9160.000000   2041757   2041587   2041488   2041249   2040876  
  9150.000000   2040518   2040340   2040378   2040489   2040410  
  9140.000000   2039909   2038890   2037473   2035898   2034436  
  9130.000000   2033239   2032282   2031412   2030436   2029298  
  9120.000000   2028120   2027212   2026925   2027507   2028957  
  9110.000000   2031000   2033153   2034832   2035555   2035016  
  9100.000000   2033233   2030428   2027029   2023501   2020328  
  9090.000000   2017877   2016369   2015869   2016290   2017493  
  9080.000000   2019266   2021462   2023957   2026740   2029805  
  9070.000000   2033127   2036577   2039881   2042672   2044488  
  9060.000000   2044922   2043691   2040791   2036493   2031341  
  9050.000000   2026048   2021353   2017879   2015930   2015487  
  9040.000000   2016151   2017342   2018415   2018915   2018686  
  9030.000000   2017901   2016959   2016259   2016038   2016215  
  9020.000000   2016464   2016294   2015329   2013470   2011025  
  9010.000000   2008594   2006859   2006342   2007213   2009232  
  9000.000000   2011808   2014235   2015915   2016530   2016065  
  8990.000000   2014782   2013079   2011385   2010029   2009227  
  8980.000000   2009058   2009479   2010315   2011269   2011973  
  8970.000000   2012045   2011187   2009281   2006437   2002992  
  8960.000000   1999423   1996212   1993727   1992144   1991443  
  8950.000000   1991451   1991908   1992569   1993230   1993771  
  8940.000000   1994124   1994283   1994310   1994288   1994328  
  8930.000000   1994471   1994703   1994879   1994799   1994256  
  8920.000000   1993170   1991653   1990008   1988686   1988107  
  8910.000000   1988537   1989954   1992070   1994431   1996563  
  8900.000000   1998116   1998924   1999014   1998506   1997538  
  8890.000000   1996211   1994627   1992922   1991323   1990128  
  8880.000000   1989632   1990025   1991263   1993078   1995018  
  8870.000000   1996635   1997624   1997932   1997758   1997433  
  8860.000000   1997275   1997439   1997864   1998326   1998558  
  8850.000000   1998397   1997881   1997249   1996840   1996961  
  8840.000000   1997712   1998968   2000354   2001416   2001746  
  8830.000000   2001138   1999671   1997678   1995651   1994043  
  8820.000000   1993106   1992801   1992804   1992641   1991862  
  8810.000000   1990240   1987878   1985215   1982869   1981425  
  8800.000000   1981199   1982130   1983804   1985591   1986891  
  8790.000000   1987303   1986786   1985595   1984190   1983012  
  8780.000000   1982366   1982328   1982811   1983632   1984630  
  8770.000000   1985704   1986821   1987976   1989144   1990287  
  8760.000000   1991365   1992385   1993421   1994567   1995911  
  8750.000000   1997416   1998937   2000202   2000940   2000979  
  8740.000000   2000332   1999241   1998064   1997221   1997015  
  8730.000000   1997629   1999052   2001163   2003729   2006473  
  8720.000000   2009065   2011149   2012370   2012431   2011213  
  8710.000000   2008825   2005665   2002299   1999331   1997210  
  8700.000000   1996106   1995896   1996242   1996784   1997275  
  8690.000000   1997706   1998247   1999140   2000534   2002363  
  8680.000000   2004364   2006129   2007312   2007715   2007415  
  8670.000000   2006682   2005921   2005508   2005697   2006578  
  8660.000000   2008072   2010007   2012151   2014283   2016207  
  8650.000000   2017786   2018940   2019661   2020005   2020071  
  8640.000000   2019973   2019793   2019562   2019255   2018839  
  8630.000000   2018315   2017756   2017309   2017131   2017337  
  8620.000000   2017922   2018753   2019616   2020287   2020638  
  8610.000000   2020668   2020507   2020342   2020342   2020594  
  8600.000000   2021086   2021757   2022556   2023483   2024599  
  8590.000000   2025971   2027621   2029455   2031268   2032782  
  8580.000000   2033754   2034039   2033660   2032783   2031694  
  8570.000000   2030696   2030051   2029929   2030399   2031448  
  8560.000000   2032979   2034852   2036890   2038914   2040759  
  8550.000000   2042321   2043567   2044545   2045345   2046054  
  8540.000000   2046725   2047351   2047891   2048302   2048581  
  8530.000000   2048779   2048980   2049261   2049633   2050037  
  8520.000000   2050350   2050451   2050276   2049864   2049353  
  8510.000000   2048932   2048762   2048925   2049388   2050045  
  8500.000000   2050756   2051432   2052047   2052667   2053381  
  8490.000000   2054264   2055319   2056476   2057607   2058550  
  8480.000000   2059164   2059334   2059026   2058248   2057069  
  8470.000000   2055598   2053990   2052427   2051089   2050135  
  8460.000000   2049682   2049785   2050430   2051545   2053025  
  8450.000000   2054733   2056514   2058197   2059626   2060675  
  8440.000000   2061295   2061534   2061552   2061588   2061895  
  8430.000000   2062661   2063950   2065679   2067641   2069557  
  8420.000000   2071147   2072201   2072613   2072378   2071562  
  8410.000000   2070298   2068769   2067207   2065858   2064970  
  8400.000000   2064723   2065200   2066311   2067842   2069463  
  8390.000000   2070874   2071841   2072293   2072288   2071972  
  8380.000000   2071495   2070931   2070273   2069432   2068328  
  8370.000000   2066929   2065300   2063582   2061939   2060510  
  8360.000000   2059349   2058447   2057748   2057216   2056857  
  8350.000000   2056724   2056885   2057364   2058124   2059029  
  8340.000000   2059899   2060546   2060851   2060784   2060414  
  8330.000000   2059878   2059347   2058982   2058894   2059133  
  8320.000000   2059682   2060475   2061393   2062286   2062985  
  8310.000000   2063332   2063214   2062585   2061478   2060002  
  8300.000000   2058320   2056623   2055097   2053887   2053074  
  8290.000000   2052677   2052635   2052843   2053143   2053374  
  8280.000000   2053395   2053129   2052580   2051830   2051010  
  8270.000000   2050258   2049677   2049302   2049087   2048936  
  8260.000000   2048737   2048413   2047939   2047348   2046706  
  8250.000000   2046080   2045502   2044960   2044386   2043698  
  8240.000000   2042812   2041702   2040390   2038972   2037585  
  8230.000000   2036395   2035549   2035123   2035088   2035293  
  8220.000000   2035493   2035403   2034775   2033473   2031526  
  8210.000000   2029155   2026719   2024642   2023280   2022841  
  8200.000000   2023306   2024452   2025893   2027177   2027895  
  8190.000000   2027763   2026684   2024752   2022212   2019401  
  8180.000000   2016661   2014280   2012432   2011167   2010414  
  8170.000000   2010029   2009827   2009649   2009359   2008881  
  8160.000000   2008156   2007148   2005822   2004156   2002175  
  8150.000000   1999949   1997631   1995404   1993456   1991905  
  8140.000000   1990755   1989903   1989158   1988341   1987336  
  8130.000000   1986152   1984911   1983796   1982967   1982478  
  8120.000000   1982257   1982099   1981761   1981025   1979794  
  8110.000000   1978114   1976159   1974172   1972389   1970984  
  8100.000000   1970027   1969492   1969276   1969230   1969196  
  8090.000000   1969029   1968615   1967888   1966840   1965537  
  8080.000000   1964112   1962736   1961589   1960787   1960363  
  8070.000000   1960228   1960210   1960086   1959661   1958823  
  8060.000000   1957574   1956034   1954399   1952886   1951672  
  8050.000000   1950850   1950416   1950278   1950294   1950309  
  8040.000000   1950196   1949876   1949326   1948578   1947695  
  8030.000000   1946760   1945852   1945029   1944324   1943728  
  8020.000000   1943208   1942699   1942129   1941426   1940542  
  8010.000000   1939459   1938201   1936832   1935442   1934147  
  8000.000000   1933047   1932239   1931774   1931670   1931889  
  7990.000000   1932349   1932922   1933448   1933764   1933710  
  7980.000000   1933181   1932119   1930555   1928580   1926353  
  7970.000000   1924058   1921886   1920001   1918515   1917494  
  7960.000000   1916935   1916794   1916972   1917347   1917780  
  7950.000000   1918138   1918313   1918232   1917881   1917280  
  7940.000000   1916502   1915623   1914736   1913909   1913197  
  7930.000000   1912632   1912230   1911990   1911890   1911887  
  7920.000000   1911910   1911874   1911687   1911287   1910657  
  7910.000000   1909842   1908944   1908092   1907414   1906989  
  7900.000000   1906831   1906877   1907012   1907095   1907002  
  7890.000000   1906653   1906037   1905207   1904272   1903366  
  7880.000000   1902622   1902140   1901969   1902090   1902425  
  7870.000000   1902851   1903233   1903460   1903465   1903252  
  7860.000000   1902877   1902442   1902044   1901767   1901644  
  7850.000000   1901668   1901791   1901949   1902069   1902084  
  7840.000000   1901933   1901569   1900963   1900108   1899029  
  7830.000000   1897777   1896428   1895064   1893760   1892576  
  7820.000000   1891549   1890717   1890106   1889754   1889678  
  7810.000000   1889876   1890286   1890792   1891233   1891436  
  7800.000000   1891277   1890698   1889750   1888549   1887255  
  7790.000000   1886009   1884896   1883943   1883127   1882426  
  7780.000000   1881837   1881399   1881161   1881160   1881362  
  7770.000000   1881658   1881874   1881813   1881328   1880357  
  7760.000000   1878961   1877287   1875537   1873905   1872530  
  7750.000000   1871482   1870755   1870307   1870073   1869997  
  7740.000000   1870025   1870110   1870188   1870187   1870027  
  7730.000000   1869647   1869026   1868186   1867204   1866176  
  7720.000000   1865205   1864357   1863656   1863081   1862574  
  7710.000000   1862082   1861558   1861000   1860426   1859878  
  7700.000000   1859388   1858958   1858552   1858100   1857518  
  7690.000000   1856738   1855739   1854553   1853267   1851995  
  7680.000000   1850843   1849877   1849110   1848509   1848016  
  7670.000000   1847581   1847184   1846838   1846578   1846424  
  7660.000000   1846368   1846357   1846310   1846151   1845847  
  7650.000000   1845424   1844973   1844611   1844442   1844514  
  7640.000000   1844793   1845180   1845536   1845741   1845724  
  7630.000000   1845492   1845114   1844685   1844286   1843950  
  7620.000000   1843655   1843336   1842923   1842368   1841668  
  7610.000000   1840874   1840071   1839356   1838810   1838482  
  7600.000000   1838372   1838445   1838636   1838869   1839072  
  7590.000000   1839190   1839201   1839115   1838976   1838842  
  7580.000000   1838770   1838785   1838884   1839018   1839127  
  7570.000000   1839151   1839067   1838895   1838698   1838556  
  7560.000000   1838531   1838646   1838879   1839166   1839443  
  7550.000000   1839661   1839813   1839919   1840018   1840129  
  7540.000000   1840246   1840333   1840355   1840305   1840233  
  7530.000000   1840240   1840455   1840982   1841856   1843023  
  7520.000000   1844344   1845636   1846731   1847518   1847986  
  7510.000000   1848204   1848296   1848387   1848580   1848922  
  7500.000000   1849425   1850064   1850815   1851641   1852521  
  7490.000000   1853422   1854308   1855132   1855859   1856472  
  7480.000000   1856996   1857490   1858043   1858753   1859709  
  7470.000000   1860968   1862545   1864405   1866466   1868606  
  7460.000000   1870683   1872543   1874067   1875179   1875890  
  7450.000000   1876283   1876510   1876744   1877156   1877863  
  7440.000000   1878918   1880307   1881969   1883829   1885817  
  7430.000000   1887882   1889982   1892079   1894136   1896105  
  7420.000000   1897955   1899658   1901221   1902662   1904022  
  7410.000000   1905339   1906649   1907989   1909399   1910934  
  7400.000000   1912646   1914573   1916708   1918990   1921293  
  7390.000000   1923462   1925358   1926899   1928090   1929025  
  7380.000000   1929860   1930760   1931843   1933159   1934684  
  7370.000000   1936350   1938076   1939798   1941479   1943104  
  7360.000000   1944659   1946129   1947493   1948740   1949887  
  7350.000000   1950986   1952119   1953380   1954839   1956525  
  7340.000000   1958416   1960455   1962564   1964675   1966728  
  7330.000000   1968678   1970486   1972119   1973559   1974810  
  7320.000000   1975911   1976932   1977954   1979048   1980247  
  7310.000000   1981534   1982846   1984099   1985217   1986168  
  7300.000000   1986956   1987629   1988242   1988848   1989475  
  7290.000000   1990140   1990850   1991622   1992469   1993406  
  7280.000000   1994423   1995480   1996503   1997408   1998121  
  7270.000000   1998605   1998871   1998965   1998965   1998941  
  7260.000000   1998954   1999039   1999227   1999544   2000024  
  7250.000000   2000696   2001582   2002670   2003926   2005286  
  7240.000000   2006693   2008101   2009512   2010938   2012421  
  7230.000000   2013966   2015572   2017193   2018794   2020342  
  7220.000000   2021861   2023398   2025043   2026865   2028924  
  7210.000000   2031214   2033695   2036278   2038876   2041412  
  7200.000000   2043855   2046208   2048524   2050869   2053330  
  7190.000000   2055964   2058818   2061875   2065089   2068353  
  7180.000000   2071559   2074596   2077416   2080028   2082528  
  7170.000000   2085041   2087726   2090688   2093986   2097579  
  7160.000000   2101385   2105272   2109142   2112924   2116622  
  7150.000000   2120277   2123979   2127815   2131877   2136212  
  7140.000000   2140849   2145751   2150868   2156096   2161350  
  7130.000000   2166523   2171565   2176439   2181184   2185853  
  7120.000000   2190555   2195372   2200400   2205681   2211247  
  7110.000000   2217084   2223180   2229492   2235982   2242587  
  7100.000000   2249251   2255901   2262499   2269020   2275498  
  7090.000000   2281980   2288550   2295263   2302154   2309196  
  7080.000000   2316328   2323445   2330457   2337292   2343939  
  7070.000000   2350433   2356862   2363321   2369900   2376647  
  7060.000000   2383567   2390618   2397735   2404844   2411895  
  7050.000000   2418870   2425790   2432705   2439666   2446712  
  7040.000000   2453844   2461031   2468213   2475324   2482307  
  7030.000000   2489135   2495805   2502345   2508787   2515170  
  7020.000000   2521512   2527827   2534105   2540334   2546482  
  7010.000000   2552525   2558424   2564166   2569743   2575184  
  7000.000000   2580525   2585823   2591110   2596405   2601673  
  6990.000000   2606870   2611926   2616809   2621509   2626075  
  6980.000000   2630564   2635047   2639548   2644061   2648523  
  6970.000000   2652873   2657040   2661010   2664787   2668424  
  6960.000000   2671960   2675441   2678866   2682233   2685509  
  6950.000000   2688685   2691741   2694689   2697520   2700237  
  6940.000000   2702813   2705237   2707483   2709560   2711480  
  6930.000000   2713280   2714991   2716652   2718278   2719887  
  6920.000000   2721481   2723078   2724684   2726321   2727992  
  6910.000000   2729706   2731449   2733211   2734967   2736703  
  6900.000000   2738393   2740015   2741541   2742943   2744196  
  6890.000000   2745288   2746219   2747009   2747685   2748283  
  6880.000000   2748834   2749370   2749918   2750506   2751156  
  6870.000000   2751883   2752680   2753529   2754394   2755248  
  6860.000000   2756074   2756894   2757749   2758699   2759781  
  6850.000000   2760994   2762285   2763562   2764724   2765693  
  6840.000000   2766441   2766994   2767418   2767787   2768152  
  6830.000000   2768538   2768933   2769323   2769695   2770062  
  6820.000000   2770437   2770840   2771256   2771655   2771983  
  6810.000000   2772204   2772302   2772308   2772276   2772265  
  6800.000000   2772310   2772408   2772513   2772571   2772529  
  6790.000000   2772377   2772135   2771855   2771592   2771389  
  6780.000000   2771261   2771203   2771191   2771197   2771188  
  6770.000000   2771131   2770983   2770707   2770273   2769686  
  6760.000000   2768983   2768244   2767563   2767026   2766674  
  6750.000000   2766490   2766402   2766312   2766121   2765771  
  6740.000000   2765248   2764581   2763824   2763032   2762247  
  6730.000000   2761494   2760790   2760150   2759589   2759128  
  6720.000000   2758768   2758503   2758295   2758104   2757884  
  6710.000000   2757611   2757276   2756891   2756470   2756020  
  6700.000000   2755530   2754975   2754318   2753529   2752587  
  6690.000000   2751494   2750265   2748943   2747571   2746211  
  6680.000000   2744911   2743717   2742641   2741674   2740764  
  6670.000000   2739846   2738839   2737688   2736362   2734879  
  6660.000000   2733286   2731648   2730027   2728465   2726976  
  6650.000000   2725550   2724161   2722780   2721377   2719936  
  6640.000000   2718442   2716898   2715314   2713717   2712138  
  6630.000000   2710615   2709170   2707807   2706504   2705218  
  6620.000000   2703899   2702502   2701000   2699387   2697671  
  6610.000000   2695873   2694008   2692096   2690157   2688223  
  6600.000000   2686334   2684532   2682842   2681265   2679762  
  6590.000000   2678274   2676733   2675094   2673346   2671523  
  6580.000000   2669683   2667883   2666163   2664526   2662948  
  6570.000000   2661392   2659830   2658252   2656672   2655110  
  6560.000000   2653581   2652085   2650608   2649133   2647653  
  6550.000000   2646177   2644733   2643352   2642054   2640835  
  6540.000000   2639668   2638510   2637320   2636067   2634746  
  6530.000000   2633364   2631944   2630512   2629093   2627710  
  6520.000000   2626388   2625146   2623999   2622943   2621961  
  6510.000000   2621010   2620045   2619023   2617927   2616762  
  6500.000000   2615568   2614396   2613301   2612320   2611468  
  6490.000000   2610733   2610086   2609484   2608884   2608248  
  6480.000000   2607551   2606780   2605942   2605058   2604155  
  6470.000000   2603261   2602395   2601555   2600728   2599891  
  6460.000000   2599025   2598126   2597208   2596294   2595407  
  6450.000000   2594555   2593726   2592894   2592034   2591130  
  6440.000000   2590192   2589249   2588335   2587471   2586660  
  6430.000000   2585877   2585090   2584269   2583411   2582534  
  6420.000000   2581677   2580878   2580162   2579526   2578953  
  6410.000000   2578415   2577900   2577410   2576965   2576587  
  6400.000000   2576292   2576074   2575910   2575762   2575597  
  6390.000000   2575393   2575143   2574854   2574540   2574216  
  6380.000000   2573895   2573587   2573301   2573040   2572800  
  6370.000000   2572569   2572322   2572030   2571666   2571219  
  6360.000000   2570695   2570118   2569516   2568916   2568326  
  6350.000000   2567746   2567166   2566587   2566014   2565467  
  6340.000000   2564963   2564505   2564074   2563628   2563114  
  6330.000000   2562491   2561737   2560862   2559902   2558908  
  6320.000000   2557923   2556981   2556090   2555254   2554455  
  6310.000000   2553682   2552910   2552113   2551255   2550301  
  6300.000000   2549217   2547998   2546651   2545219   2543743  
  6290.000000   2542272   2540830   2539423   2538034   2536644  
  6280.000000   2535227   2533770   2532261   2530695   2529058  
  6270.000000   2527344   2525544   2523668   2521738   2519791  
  6260.000000   2517863   2515982   2514149   2512356   2510573  
  6250.000000   2508780   2506965   2505129   2503275   2501406  
  6240.000000   2499507   2497558   2495537   2493441   2491291  
  6230.000000   2489131   2487015   2484982   2483046   2481186  
  6220.000000   2479356   2477503   2475585   2473587   2471520  
  6210.000000   2469412   2467296   2465202   2463152   2461163  
  6200.000000   2459251   2457427   2455697   2454053   2452466  
  6190.000000   2450894   2449293   2447631   2445905   2444137  
  6180.000000   2442372   2440654   2439017   2437464   2435979  
  6170.000000   2434527   2433075   2431598   2430088   2428546  
  6160.000000   2426977   2425388   2423784   2422169   2420555  
  6150.000000   2418952   2417374   2415822   2414292   2412768  
  6140.000000   2411237   2409693   2408147   2406623   2405151  
  6130.000000   2403748   2402415   2401126   2399850   2398551  
  6120.000000   2397222   2395873   2394548   2393291   2392149  
  6110.000000   2391144   2390281   2389536   2388882   2388282  
  6100.000000   2387712   2387144   2386566   2385960   2385325  
  6090.000000   2384657   2383974   2383291   2382637   2382032  
  6080.000000   2381497   2381036   2380662   2380375   2380191  
  6070.000000   2380117   2380164   2380320   2380569   2380872  
  6060.000000   2381199   2381517   2381826   2382131   2382467  
  6050.000000   2382854   2383316   2383849   2384449   2385094  
  6040.000000   2385782   2386512   2387304   2388169   2389124  
  6030.000000   2390166   2391288   2392467   2393692   2394947  
  6020.000000   2396236   2397553   2398907   2400292   2401708  
  6010.000000   2403150   2404621   2406117   2407643   2409188  
  6000.000000   2410743   2412284   2413798   2415271   2416714  
  5990.000000   2418144   2419598   2421102   2422680   2424332  
  5980.000000   2426057   2427839   2429677   2431567   2433524  
  5970.000000   2435553   2437665   2439853   2442114   2444430  
  5960.000000   2446803   2449225   2451705   2454238   2456823  
  5950.000000   2459437   2462068   2464692   2467311   2469929  
  5940.000000   2472571   2475258   2478009   2480831   2483715  
  5930.000000   2486646   2489602   2492567   2495523   2498456  
  5920.000000   2501344   2504166   2506897   2509513   2511999  
  5910.000000   2514346   2516554   2518624   2520562   2522380  
  5900.000000   2524103   2525773   2527447   2529197   2531082  
  5890.000000   2533149   2535403   2537821   2540347   2542924  
  5880.000000   2545497   2548030   2550503   2552909   2555241  
  5870.000000   2557486   2559632   2561668   2563605   2565463  
  5860.000000   2567286   2569114   2570982   2572908   2574893  
  5850.000000   2576930   2579016   2581154   2583358   2585640  
  5840.000000   2588006   2590444   2592929   2595431   2597925  
  5830.000000   2600400   2602863   2605329   2607817   2610333  
  5820.000000   2612870   2615411   2617929   2620404   2622813  
  5810.000000   2625147   2627390   2629541   2631588   2633546  
  5800.000000   2635420   2637252   2639061   2640887   2642720  
  5790.000000   2644556   2646329   2647988   2649435   2650602  
  5780.000000   2651399   2651773   2651663   2651054   2649942  
  5770.000000   2648379   2646438   2644240   2641901   2639547  
  5760.000000   2637259   2635108   2633112   2631292   2629643  
  5750.000000   2628174   2626880   2625757   2624780   2623916  
  5740.000000   2623125   2622371   2621644   2620942   2620286  
  5730.000000   2619682   2619139   2618634   2618144   2617636  
  5720.000000   2617105   2616554   2616018   2615526   2615109  
  5710.000000   2614777   2614527   2614345   2614226   2614169  
  5700.000000   2614184   2614280   2614456   2614691   2614951  
  5690.000000   2615198   2615400   2615547   2615642   2615706  
  5680.000000   2615749   2615781   2615789   2615756   2615650  
  5670.000000   2615448   2615117   2614629   2613950   2613055  
  5660.000000   2611921   2610561   2609010   2607341   2605637  
  5650.000000   2603988   2602448   2601047   2599771   2598592  
  5640.000000   2597465   2596361   2595255   2594141   2593013  
  5630.000000   2591870   2590713   2589549   2588398   2587287  
  5620.000000   2586249   2585302   2584449   2583669   2582927  
  5610.000000   2582184   2581417   2580623   2579817   2579023  
  5600.000000   2578256   2577517   2576789   2576049   2575278  
  5590.000000   2574470   2573632   2572781   2571927   2571072  
  5580.000000   2570205   2569316   2568392   2567440   2566468  
  5570.000000   2565494   2564522   2563552   2562566   2561548  
  5560.000000   2560487   2559386   2558258   2557121   2555990  
  5550.000000   2554870   2553757   2552648   2551545   2550461  
  5540.000000   2549415   2548422   2547484   2546589   2545709  
  5530.000000   2544817   2543896   2542946   2541982   2541023  
  5520.000000   2540084   2539160   2538237   2537292   2536307  
  5510.000000   2535279   2534214   2533129   2532033   2530932  
  5500.000000   2529821   2528697   2527556   2526411   2525270  
  5490.000000   2524144   2523022   2521882   2520689   2519417  
  5480.000000   2518052   2516609   2515119   2513623   2512145  
  5470.000000   2510695   2509252   2507788   2506269   2504680  
  5460.000000   2503011   2501268   2499452   2497560   2495584  
  5450.000000   2493525   2491391   2489215   2487041   2484915  
  5440.000000   2482872   2480923   2479064   2477279   2475553  
  5430.000000   2473874   2472240   2470635   2469050   2467458  
  5420.000000   2465848   2464221   2462618   2461097   2459739  
  5410.000000   2458591   2457678   2456956   2456368   2455829  
  5400.000000   2455296   2454741   2454192   2453680   2453266  
  5390.000000   2452974   2452834   2452843   2453020   2453366  
  5380.000000   2453910   2454650   2455590   2456684   2457902  
  5370.000000   2459178   2460505   2461858   2463285   2464798  
  5360.000000   2466461   2468273   2470279   2472463   2474880  
  5350.000000   2477537   2480518   2483839   2487574   2491698  
  5340.000000   2496246   2501159   2506472   2512141   2518223  
  5330.000000   2524679   2531556   2538789   2546411   2554359  
  5320.000000   2562710   2571455   2580731   2590556   2601066  
  5310.000000   2612234   2624135   2636681   2649914   2663751  
  5300.000000   2678268   2693431   2709370   2726088   2743727  
  5290.000000   2762271   2781796   2802198   2823446   2845357  
  5280.000000   2867870   2890858   2914365   2938403   2963119  
  5270.000000   2988557   3014767   3041622   3068944   3096467  
  5260.000000   3123974   3151331   3178523   3205632   3232744  
  5250.000000   3259912   3287040   3313977   3340435   3366228  
  5240.000000   3391156   3415248   3438517   3461158   3483235  
  5230.000000   3504888   3526041   3546675   3566583   3585700  
  5220.000000   3603860   3621117   3637440   3653005   3667848  
  5210.000000   3682141   3695849   3709031   3721533   3733338  
  5200.000000   3744292   3754444   3763743   3772334   3780225  
  5190.000000   3787549   3794261   3800421   3805931   3810831  
  5180.000000   3815052   3818680   3821691   3824186   3826127  
  5170.000000   3827584   3828500   3828940   3828876   3828405  
  5160.000000   3827524   3826322   3824767   3822898   3820651  
  5150.000000   3818048   3815044   3811689   3807975   3803963  
  5140.000000   3799643   3795058   3790187   3785073   3779714  
  5130.000000   3774172   3768465   3762651   3756735   3750748  
  5120.000000   3744676   3738541   3732338   3726101   3719839  
  5110.000000   3713578   3707316   3701055   3694784   3688504  
  5100.000000   3682221   3675957   3669733   3663572   3657482  
  5090.000000   3651463   3645503   3639595   3633732   3627918  
  5080.000000   3622155   3616443   3610767   3605108   3599435  
  5070.000000   3593724   3587955   3582128   3576241   3570304  
  5060.000000   3564315   3558274   3552163   3545978   3539710  
  5050.000000   3533371   3526968   3520524   3514046   3507543  
  5040.000000   3501012   3494449   3487853   3481231   3474599  
  5030.000000   3467977   3461393   3454863   3448406   3442031  
  5020.000000   3435753   3429573   3423512   3417569   3411761  
  5010.000000   3406078   3400529   3395093   3389783   3384586  
  5000.000000   3379537   3374640   3369947   3365468   3361252  
  4990.000000   3357296   3353636   3350252   3347171   3344363  
  4980.000000   3341852   3339599   3337630   3335903   3334453  
  4970.000000   3333255   3332362   3331767   3331539   3331671  
  4960.000000   3332220   3333161   3334531   3336285   3338445  
  4950.000000   3340962   3343855   3347073   3350641   3354511  
  4940.000000   3358714   3363214   3368049   3373186   3378659  
  4930.000000   3384424   3390499   3396832   3403440   3410283  
  4920.000000   3417395   3424760   3432423   3440375   3448644  
  4910.000000   3457202   3466053   3475150   3484481   3494000  
  4900.000000   3503688   3513509   3523443   3533461   3543546  
  4890.000000   3553676   3563828   3573985   3584112   3594180  
  4880.000000   3604135   3613940   3623527   3632862   3641880  
  4870.000000   3650562   3658859   3666781   3674309   3681485  
  4860.000000   3688318   3694870   3701150   3707206   3713024  
  4850.000000   3718624   3723970   3729079   3733928   3738559  
  4840.000000   3742977   3747246   3751385   3755451   3759455  
  4830.000000   3763431   3767370   3771283   3775138   3778924  
  4820.000000   3782595   3786132   3789504   3792717   3795775  
  4810.000000   3798717   3801574   3804385   3807166   3809929  
  4800.000000   3812660   3815354   3817997   3820598   3823160  
  4790.000000   3825709   3828256   3830817   3833387   3835966  
  4780.000000   3838533   3841080   3843583   3846033   3848403  
  4770.000000   3850684   3852850   3854895   3856807   3858596  
  4760.000000   3860264   3861833   3863300   3864681   3865959  
  4750.000000   3867136   3868187   3869114   3869899   3870550  
  4740.000000   3871055   3871425   3871649   3871740   3871687  
  4730.000000   3871505   3871185   3870739   3870159   3869454  
  4720.000000   3868621   3867677   3866635   3865528   3864382  
  4710.000000   3863235   3862109   3861027   3859994   3859015  
  4700.000000   3858085   3857207   3856381   3855616   3854919  
  4690.000000   3854295   3853747   3853271   3852859   3852493  
  4680.000000   3852156   3851817   3851453   3851025   3850511  
  4670.000000   3849880   3849132   3848269   3847330   3846356  
  4660.000000   3845417   3844572   3843891   3843418   3843190  
  4650.000000   3843215   3843492   3843997   3844704   3845576  
  4640.000000   3846581   3847682   3848853   3850062   3851286  
  4630.000000   3852496   3853667   3854774   3855803   3856740  
  4620.000000   3857584   3858337   3858997   3859564   3860025  
  4610.000000   3860372   3860588   3860675   3860639   3860513  
  4600.000000   3860328   3860135   3859956   3859821   3859720  
  4590.000000   3859646   3859563   3859452   3859276   3859021  
  4580.000000   3858660   3858186   3857577   3856834   3855945  
  4570.000000   3854924   3853778   3852533   3851198   3849795  
  4560.000000   3848317   3846771   3845143   3843440   3841660  
  4550.000000   3839822   3837933   3836010   3834054   3832064  
  4540.000000   3830035   3827967   3825868   3823755   3821656  
  4530.000000   3819588   3817576   3815616   3813720   3811873  
  4520.000000   3810097   3808390   3806802   3805344   3804081  
  4510.000000   3803014   3802202   3801635   3801383   3801448  
  4500.000000   3801929   3802843   3804302   3806313   3808970  
  4490.000000   3812254   3816240   3820893   3826283   3832370  
  4480.000000   3839216   3846764   3855055   3864015   3873664  
  4470.000000   3883921   3894799   3906216   3918176   3930589  
  4460.000000   3943439   3956628   3970125   3983836   3997731  
  4450.000000   4011734   4025825   4039949   4054090   4068217  
  4440.000000   4082314   4096371   4110370   4124316   4138183  
  4430.000000   4151978   4165655   4179217   4192589   4205762  
  4420.000000   4218635   4231192   4243322   4255008   4266133  
  4410.000000   4276682   4286533   4295665   4303962   4311412  
  4400.000000   4317932   4323561   4328281   4332197   4335362  
  4390.000000   4337927   4339981   4341683   4343122   4344433  
  4380.000000   4345687   4346986   4348384   4349957   4351749  
  4370.000000   4353818   4356197   4358919   4362001   4365444  
  4360.000000   4369249   4373397   4377874   4382658   4387713  
  4350.000000   4393016   4398505   4404156   4409905   4415750  
  4340.000000   4421648   4427603   4433536   4439346   4444786  
  4330.000000   4449549   4453216   4455399   4455771   4454216  
  4320.000000   4450837   4446009   4440260   4434232   4428480  
  4310.000000   4423457   4419367   4416267   4414021   4412463  
  4300.000000   4411385   4410654   4410172   4409895   4409804  
  4290.000000   4409869   4410077   4410380   4410771   4411228  
  4280.000000   4411769   4412406   4413161   4414057   4415094  
  4270.000000   4416290   4417620   4419061   4420518   4421860  
  4260.000000   4422867   4423295   4422878   4421418   4418807  
  4250.000000   4415099   4410471   4405234   4399729   4394310  
  4240.000000   4389231   4384675   4380679   4377215   4374166  
  4230.000000   4371412   4368813   4366259   4363658   4360947  
  4220.000000   4358103   4355116   4352040   4348925   4345885  
  4210.000000   4343000   4340386   4338099   4336200   4334682  
  4200.000000   4333545   4332736   4332226   4331948   4331878  
  4190.000000   4331953   4332165   4332463   4332860   4333323  
  4180.000000   4333892   4334552   4335366   4336333   4337530  
  4170.000000   4338972   4340749   4342885   4345471   4348521  
  4160.000000   4352103   4356193   4360824   4365935   4371544  
  4150.000000   4377581   4384071   4390958   4398281   4405996  
  4140.000000   4414157   4422727   4431768   4441246   4451217  
  4130.000000   4461636   4472541   4483874   4495657   4507836  
  4120.000000   4520442   4533445   4546896   4560784   4575164  
  4110.000000   4590020   4605386   4621220   4637513   4654189  
  4100.000000   4671199   4688444   4705864   4723375   4740947  
  4090.000000   4758548   4776188   4793880   4811647   4829516  
  4080.000000   4847490   4865586   4883778   4902061   4920368  
  4070.000000   4938663   4956837   4974833   4992532   5009903  
  4060.000000   5026857   5043408   5059485   5075119   5090227  
  4050.000000   5104842   5118884   5132418   5145386   5157872  
  4040.000000   5169798   5181208   5191962   5202066   5211364  
  4030.000000   5219888   5227528   5234351   5240277   5245353  
  4020.000000   5249455   5252625   5254815   5256113   5256478  
  4010.000000   5256087   5255048   5253420   5250993   5247856  
  4000.000000   5244358  
##END= 
