##TITLE= Sample 001 By ssteindl date Montag, November 26 2018
##JCAMP-DX= 4.24
##DATA TYPE= INFRARED SPECTRUM
##ORIGIN= Exported PE Spectrum Data File
##OWNER= Sandra Steindl
##DATE= 18/11/26
##TIME= 11:22:07.00
##SPECTROMETER/DATA SYSTEM= PERKIN-ELMER Frontier FT-IR/NIR IR
##INSTRUMENT PARAMETERS=
  APODIZATION=stark
  DETECTOR=INGAAS
##RESOLUTION= 16.000000
##DELTAX= -2.000000
##XUNITS= 1/CM
##YUNITS= A
##XFACTOR= 1.00
##YFACTOR= 0.00000011920928955078
##FIRSTX= 10000.00
##LASTX= 4000.00
##NPOINTS= 3001
##FIRSTY= 0.290130
##MAXY= 0.607599
##MINY= 0.227890
##XYDATA= (X++(Y..Y))
 10000.000000   2433786   2437198   2440778   2444292   2446629  
  9990.000000   2446483   2443153   2436907   2428668   2419903  
  9980.000000   2412239   2407025   2404688   2404682   2405759  
  9970.000000   2406485   2405763   2403133   2398849   2393557  
  9960.000000   2387983   2382618   2377725   2373449   2370091  
  9950.000000   2368162   2368306   2370985   2376179   2383253  
  9940.000000   2391075   2398362   2404129   2407918   2409951  
  9930.000000   2410772   2411048   2411075   2410827   2409952  
  9920.000000   2408176   2405553   2402573   2400117   2399022  
  9910.000000   2399953   2402976   2407797   2413688   2419920  
  9900.000000   2425799   2430821   2434594   2436737   2436893  
  9890.000000   2434713   2430083   2423174   2414578   2405181  
  9880.000000   2396002   2387976   2381714   2377523   2375313  
  9870.000000   2374852   2375729   2377567   2379977   2382574  
  9860.000000   2384996   2386858   2387886   2387842   2386654  
  9850.000000   2384322   2381023   2377059   2372939   2369328  
  9840.000000   2366986   2366606   2368564   2372743   2378391  
  9830.000000   2384281   2388978   2391295   2390666   2387316  
  9820.000000   2382203   2376621   2371849   2368675   2367317  
  9810.000000   2367376   2368150   2368897   2369106   2368637  
  9800.000000   2367633   2366473   2365551   2365275   2365957  
  9790.000000   2367835   2371006   2375345   2380448   2385611  
  9780.000000   2389942   2392591   2392998   2391122   2387474  
  9770.000000   2382966   2378639   2375302   2373306   2372451  
  9760.000000   2372106   2371483   2369911   2367117   2363264  
  9750.000000   2358917   2354829   2351715   2350090   2350103  
  9740.000000   2351590   2354031   2356744   2358963   2360085  
  9730.000000   2359809   2358304   2356204   2354480   2354171  
  9720.000000   2356049   2360351   2366663   2373963   2380929  
  9710.000000   2386278   2389216   2389607   2387981   2385258  
  9700.000000   2382360   2379954   2378249   2377154   2376415  
  9690.000000   2375935   2375837   2376490   2378208   2381081  
  9680.000000   2384645   2388034   2390084   2389828   2386815  
  9670.000000   2381336   2374403   2367370   2361567   2357770  
  9660.000000   2356029   2355632   2355438   2354305   2351511  
  9650.000000   2347019   2341461   2335968   2331750   2329794  
  9640.000000   2330541   2333839   2339002   2345025   2350840  
  9630.000000   2355525   2358472   2359439   2358554   2356210  
  9620.000000   2352966   2349360   2345826   2342544   2339497  
  9610.000000   2336467   2333209   2329558   2325522   2321361  
  9600.000000   2317440   2314228   2312021   2310971   2310954  
  9590.000000   2311721   2312976   2314486   2316152   2317890  
  9580.000000   2319619   2321058   2321827   2321395   2319391  
  9570.000000   2315641   2310457   2304508   2298796   2294336  
  9560.000000   2291896   2291836   2293987   2297863   2302758  
  9550.000000   2308080   2313393   2318531   2323430   2328044  
  9540.000000   2332194   2335543   2337687   2338246   2337053  
  9530.000000   2334194   2330032   2325080   2319863   2314807  
  9520.000000   2310168   2306079   2302593   2299717   2297421  
  9510.000000   2295590   2294020   2292443   2290602   2288398  
  9500.000000   2285951   2283681   2282200   2282185   2284155  
  9490.000000   2288265   2294246   2301366   2308667   2315092  
  9480.000000   2319770   2322111   2321883   2319210   2314514  
  9470.000000   2308520   2302174   2296587   2292799   2291587  
  9460.000000   2293117   2296884   2301646   2305816   2307809  
  9450.000000   2306612   2302037   2294806   2286285   2278017  
  9440.000000   2271265   2266618   2263958   2262607   2261735  
  9430.000000   2260673   2259142   2257232   2255261   2253579  
  9420.000000   2252417   2251823   2251705   2251896   2252282  
  9410.000000   2252810   2253512   2254425   2255580   2256974  
  9400.000000   2258621   2260533   2262726   2265082   2267316  
  9390.000000   2268908   2269254   2267864   2264595   2259796  
  9380.000000   2254256   2249057   2245265   2243655   2244469  
  9370.000000   2247341   2251396   2255526   2258687   2260160  
  9360.000000   2259649   2257304   2253654   2249495   2245757  
  9350.000000   2243297   2242726   2244222   2247495   2251807  
  9340.000000   2256173   2259604   2261377   2261268   2259560  
  9330.000000   2256969   2254317   2252308   2251294   2251281  
  9320.000000   2252025   2253193   2254518   2255817   2256950  
  9310.000000   2257728   2257841   2256932   2254695   2251063  
  9300.000000   2246312   2241087   2236280   2232763   2231136  
  9290.000000   2231529   2233578   2236542   2239503   2241601  
  9280.000000   2242240   2241225   2238806   2235573   2232292  
  9270.000000   2229714   2228406   2228633   2230274   2232866  
  9260.000000   2235728   2238182   2239754   2240284   2239892  
  9250.000000   2238862   2237471   2235835   2233882   2231421  
  9240.000000   2228327   2224679   2220825   2217340   2214826  
  9230.000000   2213710   2214036   2215482   2217447   2219284  
  9220.000000   2220454   2220657   2219840   2218159   2215912  
  9210.000000   2213415   2211026   2209064   2207872   2207627  
  9200.000000   2208293   2209505   2210646   2211038   2210145  
  9190.000000   2207891   2204713   2201591   2199677   2199915  
  9180.000000   2202631   2207420   2213273   2218819   2222734  
  9170.000000   2224108   2222687   2218843   2213307   2206987  
  9160.000000   2200727   2195293   2191247   2188954   2188519  
  9150.000000   2189781   2192274   2195181   2197439   2197997  
  9140.000000   2196153   2191728   2185148   2177329   2169516  
  9130.000000   2162910   2158401   2156377   2156773   2159191  
  9120.000000   2163046   2167695   2172504   2176923   2180496  
  9110.000000   2182850   2183749   2183132   2181285   2178690  
  9100.000000   2176023   2173879   2172718   2172673   2173537  
  9090.000000   2174881   2176185   2177094   2177475   2177516  
  9080.000000   2177595   2178138   2179393   2181304   2183485  
  9070.000000   2185342   2186278   2185921   2184272   2181746  
  9060.000000   2179036   2176913   2175936   2176296   2177740  
  9050.000000   2179674   2181368   2182177   2181739   2180026  
  9040.000000   2177295   2173982   2170534   2167357   2164745  
  9030.000000   2162917   2162010   2162111   2163208   2165139  
  9020.000000   2167537   2169892   2171648   2172336   2171719  
  9010.000000   2169843   2167071   2163903   2160854   2158288  
  9000.000000   2156385   2155147   2154460   2154225   2154396  
  8990.000000   2155007   2156074   2157554   2159272   2160920  
  8980.000000   2162111   2162477   2161834   2160181   2157771  
  8970.000000   2154988   2152316   2150169   2148803   2148282  
  8960.000000   2148480   2149177   2150103   2151059   2151950  
  8950.000000   2152802   2153693   2154693   2155802   2156908  
  8940.000000   2157819   2158301   2158203   2157486   2156283  
  8930.000000   2154851   2153504   2152525   2152057   2152103  
  8920.000000   2152520   2153099   2153620   2153928   2153949  
  8910.000000   2153696   2153219   2152589   2151851   2151048  
  8900.000000   2150204   2149368   2148598   2147974   2147556  
  8890.000000   2147373   2147381   2147472   2147480   2147216  
  8880.000000   2146525   2145317   2143615   2141549   2139336  
  8870.000000   2137214   2135388   2133981   2133019   2132453  
  8860.000000   2132204   2132200   2132416   2132845   2133472  
  8850.000000   2134220   2134938   2135424   2135496   2135073  
  8840.000000   2134250   2133284   2132539   2132342   2132874  
  8830.000000   2134077   2135672   2137231   2138311   2138587  
  8820.000000   2137933   2136453   2134423   2132203   2130147  
  8810.000000   2128526   2127501   2127107   2127254   2127749  
  8800.000000   2128321   2128690   2128621   2128021   2126964  
  8790.000000   2125696   2124547   2123824   2123704   2124143  
  8780.000000   2124934   2125740   2126282   2126387   2126063  
  8770.000000   2125430   2124640   2123808   2122973   2122155  
  8760.000000   2121422   2120951   2121013   2121882   2123680  
  8750.000000   2126270   2129196   2131795   2133387   2133523  
  8740.000000   2132172   2129716   2126844   2124258   2122460  
  8730.000000   2121575   2121366   2121372   2121126   2120371  
  8720.000000   2119149   2117781   2116715   2116342   2116840  
  8710.000000   2118115   2119854   2121634   2123088   2123981  
  8700.000000   2124302   2124207   2123993   2123986   2124467  
  8690.000000   2125585   2127326   2129505   2131811   2133889  
  8680.000000   2135422   2136226   2136289   2135792   2135042  
  8670.000000   2134378   2134056   2134170   2134657   2135305  
  8660.000000   2135855   2136062   2135782   2135004   2133831  
  8650.000000   2132475   2131185   2130223   2129804   2130079  
  8640.000000   2131099   2132809   2135023   2137458   2139759  
  8630.000000   2141596   2142726   2143066   2142703   2141872  
  8620.000000   2140894   2140062   2139565   2139410   2139443  
  8610.000000   2139397   2138993   2138058   2136585   2134772  
  8600.000000   2132931   2131444   2130602   2130557   2131256  
  8590.000000   2132477   2133927   2135299   2136385   2137062  
  8580.000000   2137320   2137180   2136683   2135854   2134769  
  8570.000000   2133555   2132444   2131726   2131697   2132542  
  8560.000000   2134252   2136609   2139222   2141668   2143600  
  8550.000000   2144874   2145571   2145939   2146274   2146777  
  8540.000000   2147506   2148346   2149101   2149573   2149649  
  8530.000000   2149337   2148730   2147978   2147214   2146557  
  8520.000000   2146080   2145858   2145953   2146403   2147175  
  8510.000000   2148138   2149078   2149746   2149956   2149666  
  8500.000000   2149024   2148328   2147934   2148116   2148979  
  8490.000000   2150407   2152129   2153805   2155175   2156115  
  8480.000000   2156659   2156941   2157110   2157276   2157478  
  8470.000000   2157727   2158043   2158488   2159153   2160114  
  8460.000000   2161362   2162767   2164077   2165013   2165357  
  8450.000000   2165042   2164169   2162979   2161768   2160781  
  8440.000000   2160130   2159802   2159688   2159681   2159717  
  8430.000000   2159819   2160060   2160516   2161189   2161975  
  8420.000000   2162667   2163027   2162869   2162123   2160883  
  8410.000000   2159384   2157951   2156898   2156426   2156582  
  8400.000000   2157239   2158146   2158988   2159482   2159461  
  8390.000000   2158891   2157873   2156579   2155206   2153914  
  8380.000000   2152807   2151925   2151284   2150897   2150796  
  8370.000000   2151016   2151558   2152384   2153377   2154391  
  8360.000000   2155261   2155879   2156226   2156362   2156399  
  8350.000000   2156420   2156454   2156432   2156221   2155664  
  8340.000000   2154658   2153206   2151422   2149520   2147727  
  8330.000000   2146254   2145226   2144683   2144570   2144780  
  8320.000000   2145173   2145603   2145929   2146017   2145771  
  8310.000000   2145149   2144196   2143035   2141863   2140891  
  8300.000000   2140303   2140182   2140478   2141030   2141604  
  8290.000000   2141989   2142046   2141765   2141252   2140690  
  8280.000000   2140261   2140072   2140108   2140235   2140251  
  8270.000000   2139955   2139227   2138065   2136597   2135041  
  8260.000000   2133619   2132508   2131763   2131344   2131122  
  8250.000000   2130959   2130741   2130426   2130020   2129561  
  8240.000000   2129063   2128496   2127784   2126833   2125577  
  8230.000000   2124007   2122194   2120270   2118390   2116696  
  8220.000000   2115275   2114162   2113331   2112742   2112329  
  8210.000000   2112032   2111780   2111500   2111125   2110601  
  8200.000000   2109915   2109087   2108178   2107250   2106339  
  8190.000000   2105431   2104464   2103377   2102140   2100820  
  8180.000000   2099553   2098526   2097876   2097649   2097721  
  8170.000000   2097839   2097669   2096910   2095401   2093166  
  8160.000000   2090420   2087466   2084620   2082092   2079962  
  8150.000000   2078177   2076617   2075171   2073798   2072559  
  8140.000000   2071567   2070955   2070780   2071018   2071537  
  8130.000000   2072151   2072667   2072921   2072830   2072352  
  8120.000000   2071504   2070303   2068781   2066963   2064897  
  8110.000000   2062670   2060411   2058287   2056464   2055080  
  8100.000000   2054194   2053781   2053725   2053856   2053985  
  8090.000000   2053946   2053634   2053008   2052092   2050951  
  8080.000000   2049684   2048394   2047191   2046171   2045408  
  8070.000000   2044935   2044730   2044712   2044747   2044688  
  8060.000000   2044400   2043812   2042931   2041842   2040670  
  8050.000000   2039543   2038539   2037671   2036889   2036118  
  8040.000000   2035287   2034371   2033381   2032365   2031368  
  8030.000000   2030407   2029472   2028516   2027495   2026376  
  8020.000000   2025152   2023841   2022472   2021092   2019748  
  8010.000000   2018530   2017545   2016933   2016808   2017221  
  8000.000000   2018100   2019231   2020291   2020901   2020753  
  7990.000000   2019668   2017687   2015025   2012041   2009124  
  7980.000000   2006609   2004715   2003522   2003006   2003069  
  7970.000000   2003589   2004427   2005448   2006505   2007452  
  7960.000000   2008158   2008531   2008552   2008254   2007740  
  7950.000000   2007110   2006462   2005841   2005255   2004690  
  7940.000000   2004129   2003582   2003071   2002632   2002274  
  7930.000000   2001983   2001707   2001386   2000972   2000446  
  7920.000000   1999832   1999181   1998554   1998004   1997569  
  7910.000000   1997266   1997103   1997079   1997178   1997368  
  7900.000000   1997590   1997767   1997820   1997686   1997349  
  7890.000000   1996838   1996223   1995585   1994988   1994456  
  7880.000000   1993978   1993515   1993033   1992526   1992019  
  7870.000000   1991563   1991201   1990954   1990802   1990698  
  7860.000000   1990581   1990409   1990167   1989873   1989556  
  7850.000000   1989239   1988920   1988574   1988157   1987631  
  7840.000000   1986981   1986223   1985400   1984572   1983799  
  7830.000000   1983124   1982566   1982117   1981743   1981391  
  7820.000000   1980990   1980479   1979811   1978985   1978050  
  7810.000000   1977109   1976291   1975714   1975442   1975451  
  7800.000000   1975624   1975768   1975681   1975201   1974268  
  7790.000000   1972936   1971360   1969742   1968275   1967089  
  7780.000000   1966229   1965668   1965329   1965134   1965021  
  7770.000000   1964966   1964958   1964997   1965060   1965107  
  7760.000000   1965082   1964927   1964603   1964094   1963409  
  7750.000000   1962575   1961625   1960594   1959517   1958429  
  7740.000000   1957365   1956356   1955413   1954523   1953643  
  7730.000000   1952709   1951652   1950430   1949044   1947547  
  7720.000000   1946037   1944628   1943422   1942481   1941821  
  7710.000000   1941409   1941188   1941096   1941085   1941120  
  7700.000000   1941184   1941258   1941320   1941335   1941263  
  7690.000000   1941063   1940713   1940206   1939566   1938836  
  7680.000000   1938075   1937347   1936707   1936200   1935834  
  7670.000000   1935601   1935454   1935334   1935169   1934901  
  7660.000000   1934486   1933907   1933170   1932290   1931289  
  7650.000000   1930184   1928995   1927749   1926493   1925294  
  7640.000000   1924234   1923395   1922829   1922549   1922510  
  7630.000000   1922623   1922777   1922854   1922774   1922485  
  7620.000000   1921986   1921301   1920483   1919588   1918685  
  7610.000000   1917846   1917143   1916647   1916404   1916438  
  7600.000000   1916721   1917195   1917760   1918311   1918749  
  7590.000000   1919000   1919032   1918841   1918465   1917943  
  7580.000000   1917329   1916661   1915972   1915279   1914602  
  7570.000000   1913956   1913366   1912868   1912503   1912318  
  7560.000000   1912343   1912595   1913055   1913673   1914376  
  7550.000000   1915068   1915658   1916061   1916225   1916119  
  7540.000000   1915758   1915175   1914443   1913646   1912889  
  7530.000000   1912266   1911852   1911681   1911738   1911970  
  7520.000000   1912297   1912640   1912949   1913211   1913458  
  7510.000000   1913740   1914106   1914575   1915141   1915758  
  7500.000000   1916381   1916961   1917483   1917947   1918380  
  7490.000000   1918808   1919261   1919761   1920333   1920998  
  7480.000000   1921772   1922655   1923628   1924639   1925624  
  7470.000000   1926515   1927278   1927915   1928481   1929048  
  7460.000000   1929686   1930429   1931264   1932145   1933022  
  7450.000000   1933871   1934724   1935651   1936739   1938037  
  7440.000000   1939531   1941123   1942673   1944029   1945097  
  7430.000000   1945862   1946407   1946882   1947450   1948241  
  7420.000000   1949316   1950663   1952207   1953843   1955463  
  7410.000000   1956976   1958318   1959450   1960356   1961044  
  7400.000000   1961555   1961956   1962339   1962800   1963430  
  7390.000000   1964281   1965359   1966632   1968035   1969501  
  7380.000000   1970971   1972417   1973833   1975236   1976647  
  7370.000000   1978069   1979497   1980895   1982227   1983447  
  7360.000000   1984535   1985488   1986346   1987169   1988035  
  7350.000000   1989019   1990168   1991498   1992970   1994526  
  7340.000000   1996087   1997601   1999033   2000387   2001679  
  7330.000000   2002926   2004127   2005252   2006251   2007073  
  7320.000000   2007679   2008069   2008276   2008371   2008445  
  7310.000000   2008588   2008869   2009321   2009935   2010665  
  7300.000000   2011440   2012188   2012846   2013387   2013820  
  7290.000000   2014198   2014588   2015069   2015689   2016464  
  7280.000000   2017369   2018347   2019325   2020233   2021023  
  7270.000000   2021657   2022115   2022378   2022439   2022300  
  7260.000000   2021999   2021606   2021239   2021031   2021106  
  7250.000000   2021530   2022295   2023308   2024423   2025486  
  7240.000000   2026393   2027118   2027736   2028371   2029168  
  7230.000000   2030215   2031537   2033062   2034690   2036287  
  7220.000000   2037771   2039095   2040288   2041404   2042537  
  7210.000000   2043767   2045170   2046791   2048664   2050789  
  7200.000000   2053158   2055733   2058469   2061300   2064169  
  7190.000000   2067008   2069780   2072450   2075025   2077508  
  7180.000000   2079935   2082323   2084707   2087100   2089528  
  7170.000000   2092011   2094592   2097313   2100236   2103401  
  7160.000000   2106833   2110506   2114365   2118318   2122278  
  7150.000000   2126165   2129964   2133689   2137424   2141241  
  7140.000000   2145217   2149353   2153614   2157907   2162160  
  7130.000000   2166324   2170432   2174564   2178844   2183372  
  7120.000000   2188206   2193317   2198620   2203984   2209307  
  7110.000000   2214516   2219615   2224633   2229631   2234634  
  7100.000000   2239664   2244702   2249745   2254799   2259919  
  7090.000000   2265169   2270633   2276356   2282353   2288578  
  7080.000000   2294956   2301385   2307783   2314085   2320279  
  7070.000000   2326372   2332417   2338458   2344548   2350711  
  7060.000000   2356957   2363261   2369592   2375908   2382186  
  7050.000000   2388421   2394636   2400866   2407145   2413483  
  7040.000000   2419857   2426221   2432518   2438709   2444787  
  7030.000000   2450791   2456776   2462804   2468903   2475061  
  7020.000000   2481214   2487287   2493198   2498905   2504398  
  7010.000000   2509713   2514894   2519994   2525039   2530053  
  7000.000000   2535029   2539974   2544877   2549747   2554578  
  6990.000000   2559377   2564128   2568827   2573447   2577971  
  6980.000000   2582358   2586571   2590561   2594300   2597774  
  6970.000000   2601018   2604093   2607094   2610100   2613173  
  6960.000000   2616314   2619492   2622634   2625686   2628608  
  6950.000000   2631422   2634163   2636897   2639657   2642457  
  6940.000000   2645263   2648034   2650711   2653260   2655653  
  6930.000000   2657883   2659936   2661809   2663495   2665015  
  6920.000000   2666407   2667746   2669102   2670545   2672089  
  6910.000000   2673715   2675353   2676935   2678398   2679734  
  6900.000000   2680964   2682147   2683335   2684561   2685814  
  6890.000000   2687056   2688232   2689296   2690228   2691040  
  6880.000000   2691768   2692466   2693184   2693969   2694846  
  6870.000000   2695827   2696897   2698021   2699149   2700227  
  6860.000000   2701207   2702066   2702807   2703462   2704072  
  6850.000000   2704681   2705309   2705959   2706614   2707257  
  6840.000000   2707873   2708463   2709032   2709584   2710108  
  6830.000000   2710583   2710980   2711278   2711475   2711589  
  6820.000000   2711652   2711703   2711764   2711851   2711958  
  6810.000000   2712087   2712236   2712416   2712635   2712895  
  6800.000000   2713177   2713448   2713662   2713780   2713776  
  6790.000000   2713649   2713410   2713081   2712684   2712242  
  6780.000000   2711778   2711321   2710902   2710546   2710253  
  6770.000000   2709997   2709718   2709356   2708865   2708248  
  6760.000000   2707555   2706879   2706314   2705919   2705693  
  6750.000000   2705575   2705464   2705266   2704925   2704439  
  6740.000000   2703853   2703229   2702617   2702038   2701482  
  6730.000000   2700929   2700367   2699809   2699285   2698827  
  6720.000000   2698445   2698119   2697800   2697436   2696990  
  6710.000000   2696461   2695872   2695259   2694648   2694039  
  6700.000000   2693406   2692718   2691951   2691113   2690230  
  6690.000000   2689346   2688488   2687665   2686851   2686015  
  6680.000000   2685119   2684155   2683124   2682045   2680928  
  6670.000000   2679773   2678561   2677272   2675896   2674453  
  6660.000000   2672976   2671519   2670120   2668800   2667545  
  6650.000000   2666329   2665111   2663863   2662567   2661220  
  6640.000000   2659819   2658365   2656852   2655282   2653660  
  6630.000000   2652006   2650345   2648700   2647081   2645486  
  6620.000000   2643895   2642292   2640664   2639014   2637352  
  6610.000000   2635691   2634032   2632368   2630685   2628970  
  6600.000000   2627223   2625456   2623685   2621920   2620155  
  6590.000000   2618368   2616536   2614647   2612718   2610792  
  6580.000000   2608926   2607173   2605554   2604057   2602640  
  6570.000000   2601250   2599846   2598408   2596945   2595474  
  6560.000000   2594011   2592556   2591099   2589625   2588134  
  6550.000000   2586645   2585194   2583816   2582530   2581325  
  6540.000000   2580163   2578996   2577781   2576503   2575178  
  6530.000000   2573839   2572530   2571277   2570093   2568967  
  6520.000000   2567883   2566825   2565781   2564747   2563717  
  6510.000000   2562684   2561638   2560574   2559497   2558423  
  6500.000000   2557375   2556374   2555427   2554521   2553628  
  6490.000000   2552717   2551767   2550776   2549761   2548749  
  6480.000000   2547764   2546813   2545894   2544990   2544088  
  6470.000000   2543183   2542281   2541393   2540527   2539683  
  6460.000000   2538850   2538015   2537172   2536325   2535491  
  6450.000000   2534686   2533918   2533178   2532442   2531676  
  6440.000000   2530856   2529967   2529018   2528033   2527044  
  6430.000000   2526076   2525153   2524285   2523479   2522739  
  6420.000000   2522070   2521473   2520945   2520476   2520052  
  6410.000000   2519660   2519290   2518943   2518623   2518332  
  6400.000000   2518068   2517816   2517555   2517266   2516935  
  6390.000000   2516560   2516150   2515717   2515275   2514828  
  6380.000000   2514375   2513911   2513432   2512936   2512424  
  6370.000000   2511898   2511356   2510793   2510203   2509586  
  6360.000000   2508946   2508297   2507651   2507021   2506407  
  6350.000000   2505804   2505199   2504590   2503976   2503373  
  6340.000000   2502795   2502255   2501754   2501281   2500812  
  6330.000000   2500323   2499790   2499200   2498545   2497823  
  6320.000000   2497034   2496181   2495266   2494302   2493302  
  6310.000000   2492283   2491251   2490209   2489140   2488031  
  6300.000000   2486864   2485647   2484395   2483143   2481914  
  6290.000000   2480726   2479561   2478391   2477165   2475845  
  6280.000000   2474406   2472851   2471195   2469469   2467695  
  6270.000000   2465893   2464071   2462242   2460415   2458613  
  6260.000000   2456848   2455136   2453467   2451828   2450186  
  6250.000000   2448516   2446794   2445013   2443171   2441276  
  6240.000000   2439332   2437348   2435332   2433298   2431264  
  6230.000000   2429249   2427266   2425316   2423388   2421463  
  6220.000000   2419526   2417571   2415603   2413635   2411678  
  6210.000000   2409733   2407788   2405827   2403846   2401858  
  6200.000000   2399897   2398010   2396235   2394583   2393033  
  6190.000000   2391532   2390018   2388441   2386785   2385066  
  6180.000000   2383325   2381604   2379931   2378306   2376713  
  6170.000000   2375122   2373515   2371886   2370248   2368620  
  6160.000000   2367015   2365439   2363886   2362349   2360825  
  6150.000000   2359317   2357836   2356391   2354987   2353616  
  6140.000000   2352271   2350942   2349627   2348333   2347067  
  6130.000000   2345827   2344603   2343370   2342107   2340799  
  6120.000000   2339452   2338088   2336747   2335459   2334247  
  6110.000000   2333110   2332041   2331019   2330035   2329085  
  6100.000000   2328182   2327336   2326559   2325850   2325210  
  6090.000000   2324632   2324118   2323666   2323281   2322946  
  6080.000000   2322647   2322347   2322024   2321656   2321256  
  6070.000000   2320850   2320490   2320217   2320067   2320046  
  6060.000000   2320146   2320333   2320583   2320868   2321182  
  6050.000000   2321521   2321898   2322321   2322809   2323369  
  6040.000000   2324019   2324761   2325603   2326533   2327540  
  6030.000000   2328598   2329694   2330811   2331954   2333122  
  6020.000000   2334325   2335559   2336818   2338082   2339343  
  6010.000000   2340597   2341860   2343151   2344499   2345915  
  6000.000000   2347399   2348929   2350483   2352034   2353580  
  5990.000000   2355123   2356688   2358291   2359953   2361674  
  5980.000000   2363459   2365298   2367197   2369151   2371162  
  5970.000000   2373217   2375300   2377385   2379460   2381522  
  5960.000000   2383598   2385719   2387927   2390238   2392649  
  5950.000000   2395124   2397623   2400105   2402562   2405008  
  5940.000000   2407482   2410026   2412669   2415411   2418229  
  5930.000000   2421083   2423936   2426759   2429542   2432280  
  5920.000000   2434972   2437604   2440157   2442609   2444945  
  5910.000000   2447166   2449286   2451331   2453324   2455289  
  5900.000000   2457239   2459190   2461154   2463153   2465203  
  5890.000000   2467320   2469502   2471738   2474001   2476267  
  5880.000000   2478516   2480737   2482927   2485082   2487194  
  5870.000000   2489241   2491207   2493077   2494862   2496584  
  5860.000000   2498288   2500013   2501792   2503640   2505560  
  5850.000000   2507548   2509612   2511762   2514022   2516405  
  5840.000000   2518913   2521521   2524194   2526885   2529558  
  5830.000000   2532194   2534792   2537356   2539892   2542391  
  5820.000000   2544838   2547214   2549506   2551719   2553864  
  5810.000000   2555964   2558023   2560044   2562002   2563892  
  5800.000000   2565692   2567434   2569132   2570841   2572569  
  5790.000000   2574331   2576067   2577725   2579195   2580395  
  5780.000000   2581223   2581617   2581514   2580898   2579762  
  5770.000000   2578157   2576149   2573855   2571391   2568891  
  5760.000000   2566450   2564150   2562022   2560092   2558354  
  5750.000000   2556814   2555461   2554289   2553278   2552396  
  5740.000000   2551609   2550879   2550186   2549512   2548864  
  5730.000000   2548237   2547638   2547050   2546473   2545895  
  5720.000000   2545335   2544813   2544371   2544031   2543809  
  5710.000000   2543685   2543627   2543590   2543542   2543468  
  5700.000000   2543378   2543294   2543244   2543251   2543325  
  5690.000000   2543476   2543701   2544008   2544390   2544837  
  5680.000000   2545313   2545771   2546140   2546363   2546387  
  5670.000000   2546190   2545765   2545128   2544288   2543259  
  5660.000000   2542042   2540654   2539116   2537478   2535790  
  5650.000000   2534118   2532501   2530969   2529516   2528135  
  5640.000000   2526808   2525533   2524308   2523142   2522036  
  5630.000000   2520981   2519964   2518968   2517988   2517026  
  5620.000000   2516098   2515215   2514381   2513580   2512789  
  5610.000000   2511977   2511130   2510248   2509349   2508458  
  5600.000000   2507598   2506775   2505983   2505209   2504439  
  5590.000000   2503672   2502913   2502172   2501449   2500738  
  5580.000000   2500018   2499270   2498480   2497651   2496792  
  5570.000000   2495918   2495037   2494144   2493223   2492258  
  5560.000000   2491240   2490178   2489093   2488012   2486951  
  5550.000000   2485913   2484883   2483840   2482766   2481660  
  5540.000000   2480537   2479422   2478340   2477308   2476326  
  5530.000000   2475390   2474486   2473609   2472753   2471917  
  5520.000000   2471090   2470256   2469392   2468478   2467502  
  5510.000000   2466468   2465389   2464285   2463169   2462048  
  5500.000000   2460917   2459774   2458617   2457462   2456324  
  5490.000000   2455220   2454146   2453088   2452007   2450872  
  5480.000000   2449651   2448336   2446933   2445461   2443935  
  5470.000000   2442368   2440760   2439112   2437422   2435702  
  5460.000000   2433958   2432201   2430424   2428613   2426747  
  5450.000000   2424815   2422817   2420782   2418749   2416761  
  5440.000000   2414848   2413020   2411271   2409586   2407958  
  5430.000000   2406379   2404852   2403364   2401897   2400414  
  5420.000000   2398889   2397304   2395690   2394098   2392614  
  5410.000000   2391301   2390202   2389301   2388561   2387917  
  5400.000000   2387336   2386797   2386326   2385944   2385691  
  5390.000000   2385565   2385566   2385663   2385857   2386145  
  5380.000000   2386566   2387139   2387901   2388831   2389918  
  5370.000000   2391106   2392379   2393702   2395106   2396594  
  5360.000000   2398222   2399990   2401944   2404074   2406435  
  5350.000000   2409034   2411954   2415211   2418883   2422949  
  5340.000000   2427447   2432324   2437612   2443260   2449316  
  5330.000000   2455734   2462554   2469709   2477233   2485068  
  5320.000000   2493293   2501903   2511036   2520711   2531066  
  5310.000000   2542075   2553813   2566194   2579259   2592921  
  5300.000000   2607253   2622217   2637934   2654407   2671765  
  5290.000000   2689988   2709147   2729140   2749939   2771379  
  5280.000000   2793411   2815922   2838964   2862543   2886788  
  5270.000000   2911720   2937364   2963580   2990193   3016955  
  5260.000000   3043679   3070262   3096714   3123124   3149575  
  5250.000000   3176107   3202612   3228928   3254766   3279939  
  5240.000000   3304253   3327730   3350378   3372378   3393784  
  5230.000000   3414732   3435150   3455034   3474201   3492606  
  5220.000000   3510106   3526762   3542552   3557648   3572088  
  5210.000000   3586038   3599465   3612421   3624755   3636442  
  5200.000000   3647326   3657442   3666734   3675330   3683225  
  5190.000000   3690540   3697222   3703329   3708769   3713595  
  5180.000000   3717754   3721345   3724348   3726858   3728824  
  5170.000000   3730289   3731174   3731523   3731299   3730598  
  5160.000000   3729433   3727914   3726038   3723870   3721373  
  5150.000000   3718588   3715486   3712124   3708493   3704645  
  5140.000000   3700556   3696248   3691686   3686895   3681869  
  5130.000000   3676665   3671307   3665854   3660314   3654714  
  5120.000000   3649035   3643291   3637476   3631620   3625736  
  5110.000000   3619855   3613977   3608106   3602222   3596322  
  5100.000000   3590398   3584463   3578531   3572622   3566743  
  5090.000000   3560896   3555072   3549266   3543475   3537709  
  5080.000000   3531977   3526292   3520651   3515046   3509456  
  5070.000000   3503862   3498244   3492598   3486916   3481204  
  5060.000000   3475451   3469654   3463791   3457855   3451833  
  5050.000000   3445728   3439548   3433309   3427023   3420701  
  5040.000000   3414346   3407963   3401553   3395126   3388693  
  5030.000000   3382270   3375870   3369504   3363183   3356908  
  5020.000000   3350690   3344532   3338450   3332450   3326552  
  5010.000000   3320758   3315087   3309534   3304117   3298827  
  5000.000000   3293689   3288697   3283884   3279244   3274818  
  4990.000000   3270602   3266640   3262922   3259487   3256315  
  4980.000000   3253435   3250819   3248498   3246449   3244722  
  4970.000000   3243307   3242264   3241581   3241301   3241388  
  4960.000000   3241863   3242670   3243828   3245289   3247088  
  4950.000000   3249191   3251639   3254393   3257485   3260868  
  4940.000000   3264570   3268550   3272848   3277435   3282350  
  4930.000000   3287558   3293084   3298882   3304968   3311303  
  4920.000000   3317916   3324785   3331944   3339376   3347103  
  4910.000000   3355094   3363355   3371847   3380569   3389487  
  4900.000000   3398593   3407855   3417254   3426756   3436332  
  4890.000000   3445948   3455572   3465169   3474699   3484130  
  4880.000000   3493420   3502547   3511473   3520195   3528681  
  4870.000000   3536929   3544900   3552588   3559952   3566997  
  4860.000000   3573704   3580106   3586208   3592057   3597653  
  4850.000000   3603030   3608169   3613092   3617783   3622278  
  4840.000000   3626580   3630738   3634764   3638700   3642541  
  4830.000000   3646311   3649991   3653591   3657088   3660482  
  4820.000000   3663748   3666887   3669882   3672748   3675493  
  4810.000000   3678156   3680762   3683348   3685927   3688508  
  4800.000000   3691080   3693638   3696171   3698691   3701205  
  4790.000000   3703737   3706290   3708871   3711454   3714019  
  4780.000000   3716532   3718977   3721338   3723625   3725840  
  4770.000000   3727998   3730091   3732116   3734046   3735872  
  4760.000000   3737566   3739128   3740544   3741827   3742968  
  4750.000000   3743983   3744861   3745614   3746228   3746714  
  4740.000000   3747057   3747272   3747348   3747302   3747130  
  4730.000000   3746848   3746451   3745952   3745341   3744623  
  4720.000000   3743791   3742856   3741825   3740728   3739590  
  4710.000000   3738448   3737331   3736264   3735257   3734316  
  4700.000000   3733438   3732617   3731854   3731150   3730515  
  4690.000000   3729957   3729488   3729110   3728825   3728618  
  4680.000000   3728473   3728355   3728232   3728062   3727818  
  4670.000000   3727468   3727014   3726458   3725838   3725187  
  4660.000000   3724562   3724003   3723562   3723269   3723153  
  4650.000000   3723226   3723497   3723964   3724622   3725457  
  4640.000000   3726456   3727599   3728867   3730235   3731679  
  4630.000000   3733165   3734660   3736126   3737526   3738829  
  4620.000000   3740010   3741054   3741953   3742707   3743312  
  4610.000000   3743774   3744092   3744284   3744363   3744367  
  4600.000000   3744329   3744295   3744288   3744334   3744420  
  4590.000000   3744536   3744638   3744696   3744668   3744533  
  4580.000000   3744266   3743867   3743330   3742672   3741899  
  4570.000000   3741036   3740094   3739095   3738039   3736935  
  4560.000000   3735768   3734533   3733210   3731798   3730289  
  4550.000000   3728693   3727015   3725270   3723462   3721606  
  4540.000000   3719708   3717784   3715851   3713926   3712029  
  4530.000000   3710165   3708341   3706543   3704775   3703022  
  4520.000000   3701312   3699649   3698093   3696660   3695423  
  4510.000000   3694392   3693638   3693164   3693046   3693285  
  4500.000000   3693968   3695093   3696740   3698890   3701615  
  4490.000000   3704887   3708779   3713267   3718431   3724242  
  4480.000000   3730769   3737959   3745854   3754383   3763572  
  4470.000000   3773347   3783731   3794652   3806122   3818058  
  4460.000000   3830452   3843213   3856313   3869661   3883223  
  4450.000000   3896915   3910703   3924522   3938351   3952161  
  4440.000000   3965945   3979703   3993424   4007106   4020709  
  4430.000000   4034217   4047562   4060730   4073645   4086312  
  4420.000000   4098658   4110693   4122332   4133571   4144300  
  4410.000000   4154495   4164030   4172873   4180905   4188110  
  4400.000000   4194406   4199831   4204375   4208146   4211214  
  4390.000000   4213740   4215829   4217641   4219258   4220794  
  4380.000000   4222289   4223812   4225392   4227089   4228952  
  4370.000000   4231051   4233445   4236186   4239312   4242835  
  4360.000000   4246761   4251070   4255741   4260742   4266018  
  4350.000000   4271524   4277172   4282922   4288699   4294514  
  4340.000000   4300345   4306234   4312132   4317962   4323480  
  4330.000000   4328357   4332138   4334389   4334739   4333044  
  4320.000000   4329394   4324172   4317928   4311336   4304989  
  4310.000000   4299380   4294754   4291201   4288612   4286835  
  4300.000000   4285660   4284938   4284543   4284400   4284463  
  4290.000000   4284681   4285034   4285479   4286019   4286639  
  4280.000000   4287363   4288203   4289173   4290286   4291536  
  4270.000000   4292931   4294444   4296055   4297667   4299153  
  4260.000000   4300291   4300838   4300523   4299145   4296588  
  4250.000000   4292899   4288248   4282940   4277310   4271714  
  4240.000000   4266414   4261603   4257331   4253590   4250277  
  4230.000000   4247290   4244502   4241813   4239144   4236431  
  4220.000000   4233652   4230788   4227878   4224955   4222115  
  4210.000000   4219426   4217000   4214895   4213183   4211870  
  4200.000000   4210964   4210415   4210181   4210180   4210357  
  4190.000000   4210629   4210965   4211306   4211669   4212031  
  4180.000000   4212449   4212924   4213531   4214276   4215236  
  4170.000000   4216425   4217931   4219780   4222065   4224807  
  4160.000000   4228081   4231873   4236221   4241072   4246445  
  4150.000000   4252278   4258593   4265330   4272519   4280100  
  4140.000000   4288104   4296473   4305251   4314397   4323974  
  4130.000000   4333954   4344399   4355276   4366628   4378406  
  4120.000000   4390637   4403276   4416353   4429839   4443777  
  4110.000000   4458143   4472970   4488217   4503878   4519875  
  4100.000000   4536165   4552653   4569291   4586013   4602804  
  4090.000000   4619652   4636574   4653587   4670704   4687940  
  4080.000000   4705286   4722747   4740294   4757927   4775585  
  4070.000000   4793239   4810783   4828156   4845232   4861964  
  4060.000000   4878251   4894096   4909430   4924282   4938580  
  4050.000000   4952362   4965560   4978244   4990370   5002036  
  4040.000000   5013189   5023895   5034044   5043656   5052584  
  4030.000000   5060848   5068316   5075022   5080858   5085851  
  4020.000000   5089874   5092980   5095143   5096463   5096909  
  4010.000000   5096652   5095788   5094349   5092097   5089106  
  4000.000000   5085740  
##END= 
