##TITLE= Sample 032 By ssteindl date Montag, November 26 2018
##JCAMP-DX= 4.24
##DATA TYPE= INFRARED SPECTRUM
##ORIGIN= Exported PE Spectrum Data File
##OWNER= Sandra Steindl
##DATE= 18/11/26
##TIME= 11:51:07.00
##SPECTROMETER/DATA SYSTEM= PERKIN-ELMER Frontier FT-IR/NIR IR
##INSTRUMENT PARAMETERS=
  APODIZATION=stark
  DETECTOR=INGAAS
##RESOLUTION= 16.000000
##DELTAX= -2.000000
##XUNITS= 1/CM
##YUNITS= A
##XFACTOR= 1.00
##YFACTOR= 0.00000011920928955078
##FIRSTX= 10000.00
##LASTX= 4000.00
##NPOINTS= 3001
##FIRSTY= 0.309691
##MAXY= 0.626907
##MINY= 0.242739
##XYDATA= (X++(Y..Y))
 10000.000000   2597880   2594854   2591972   2589264   2586550  
  9990.000000   2583513   2580075   2576509   2573373   2571341  
  9980.000000   2570961   2572462   2575638   2579947   2584732  
  9970.000000   2589397   2593517   2596800   2599017   2599919  
  9960.000000   2599284   2597029   2593352   2588814   2584233  
  9950.000000   2580495   2578213   2577528   2577999   2578817  
  9940.000000   2579062   2578106   2575727   2572144   2567792  
  9930.000000   2563106   2558433   2553982   2550004   2546782  
  9920.000000   2544651   2543814   2544152   2545159   2546048  
  9910.000000   2546085   2544997   2543182   2541678   2541684  
  9900.000000   2544011   2548556   2554210   2559202   2561788  
  9890.000000   2561013   2557169   2551766   2546957   2544685  
  9880.000000   2545903   2550225   2556096   2561403   2564260  
  9870.000000   2563605   2559479   2552851   2545186   2537968  
  9860.000000   2532318   2528872   2527774   2528796   2531437  
  9850.000000   2534996   2538655   2541629   2543285   2543416  
  9840.000000   2542205   2540288   2538442   2537355   2537391  
  9830.000000   2538430   2540045   2541563   2542407   2542096  
  9820.000000   2540381   2537101   2532226   2525837   2518261  
  9810.000000   2510177   2502599   2496767   2493778   2494314  
  9800.000000   2498341   2505167   2513609   2522391   2530434  
  9790.000000   2537049   2541936   2544980   2546197   2545566  
  9780.000000   2543257   2539616   2535340   2531289   2528248  
  9770.000000   2526678   2526451   2527067   2527743   2527969  
  9760.000000   2527596   2527024   2526860   2527594   2529201  
  9750.000000   2531005   2531895   2530702   2526772   2520214  
  9740.000000   2511994   2503555   2496382   2491528   2489354  
  9730.000000   2489602   2491542   2494350   2497270   2499804  
  9720.000000   2501683   2502844   2503377   2503472   2503398  
  9710.000000   2503398   2503603   2503893   2503919   2503181  
  9700.000000   2501289   2498196   2494309   2490416   2487354  
  9690.000000   2485659   2485285   2485566   2485523   2484209  
  9680.000000   2481215   2476765   2471694   2467031   2463593  
  9670.000000   2461709   2461181   2461588   2462582   2464194  
  9660.000000   2466791   2470854   2476590   2483634   2491026  
  9650.000000   2497399   2501485   2502479   2500369   2495802  
  9640.000000   2489854   2483596   2477839   2473059   2469482  
  9630.000000   2467289   2466634   2467654   2470188   2473743  
  9620.000000   2477374   2480037   2480849   2479523   2476474  
  9610.000000   2472698   2469399   2467477   2467226   2468194  
  9600.000000   2469455   2469957   2469010   2466472   2462778  
  9590.000000   2458635   2454707   2451354   2448601   2446270  
  9580.000000   2444242   2442600   2441667   2441853   2443406  
  9570.000000   2446292   2450089   2454205   2458038   2461242  
  9560.000000   2463814   2465988   2468096   2470238   2472233  
  9550.000000   2473541   2473510   2471600   2467651   2462011  
  9540.000000   2455456   2449045   2443790   2440506   2439554  
  9530.000000   2440896   2444000   2448055   2452021   2454913  
  9520.000000   2455949   2454782   2451585   2446995   2441978  
  9510.000000   2437465   2434140   2432150   2431156   2430413  
  9500.000000   2429111   2426675   2423006   2418567   2414185  
  9490.000000   2410806   2409122   2409377   2411308   2414264  
  9480.000000   2417466   2420203   2422032   2422806   2422652  
  9470.000000   2421852   2420726   2419546   2418514   2417731  
  9460.000000   2417263   2417067   2417053   2417006   2416679  
  9450.000000   2415812   2414243   2411970   2409164   2406166  
  9440.000000   2403394   2401296   2400229   2400435   2401942  
  9430.000000   2404615   2408107   2411974   2415697   2418798  
  9420.000000   2420919   2421881   2421727   2420637   2418887  
  9410.000000   2416675   2414137   2411252   2408012   2404443  
  9400.000000   2400733   2397221   2394272   2392201   2391066  
  9390.000000   2390777   2391079   2391830   2393035   2394908  
  9380.000000   2397704   2401518   2406095   2410709   2414348  
  9370.000000   2415934   2414821   2410960   2405052   2398230  
  9360.000000   2391727   2386475   2382848   2380732   2379673  
  9350.000000   2379303   2379451   2380301   2382070   2384857  
  9340.000000   2388342   2391841   2394510   2395605   2394870  
  9330.000000   2392478   2389051   2385212   2381414   2377724  
  9320.000000   2373961   2369934   2365735   2361939   2359457  
  9310.000000   2359252   2361798   2366905   2373563   2380342  
  9300.000000   2385748   2388795   2389308   2387872   2385579  
  9290.000000   2383435   2382072   2381466   2381105   2380164  
  9280.000000   2377896   2373941   2368500   2362326   2356408  
  9270.000000   2351779   2349164   2348969   2351100   2355059  
  9260.000000   2359961   2364764   2368489   2370421   2370279  
  9250.000000   2368218   2364836   2360903   2357215   2354240  
  9240.000000   2352121   2350609   2349290   2347737   2345689  
  9230.000000   2343224   2340692   2338677   2337705   2338166  
  9220.000000   2340162   2343527   2347825   2352406   2356526  
  9210.000000   2359480   2360770   2360185   2357865   2354278  
  9200.000000   2350159   2346292   2343315   2341540   2340890  
  9190.000000   2340943   2341059   2340624   2339244   2336894  
  9180.000000   2333903   2330817   2328221   2326530   2325889  
  9170.000000   2326130   2326874   2327682   2328244   2328495  
  9160.000000   2328627   2329036   2330128   2332181   2335162  
  9150.000000   2338736   2342328   2345273   2347025   2347279  
  9140.000000   2346088   2343753   2340730   2337432   2334140  
  9130.000000   2330954   2327850   2324793   2321810   2319086  
  9120.000000   2316872   2315478   2315074   2315705   2317199  
  9110.000000   2319275   2321581   2323772   2325573   2326760  
  9100.000000   2327217   2326855   2325688   2323799   2321404  
  9090.000000   2318791   2316262   2314086   2312434   2311397  
  9080.000000   2310960   2311081   2311667   2312630   2313818  
  9070.000000   2315002   2315868   2316071   2315369   2313670  
  9060.000000   2311125   2308078   2305008   2302349   2300366  
  9050.000000   2299117   2298513   2298407   2298673   2299267  
  9040.000000   2300189   2301404   2302730   2303847   2304384  
  9030.000000   2304055   2302822   2300935   2298905   2297291  
  9020.000000   2296495   2296606   2297382   2298369   2299093  
  9010.000000   2299258   2298849   2298096   2297306   2296717  
  9000.000000   2296353   2296061   2295606   2294838   2293795  
  8990.000000   2292704   2291873   2291533   2291702   2292149  
  8980.000000   2292457   2292206   2291150   2289306   2286968  
  8970.000000   2284549   2282466   2280954   2280029   2279512  
  8960.000000   2279141   2278710   2278130   2277491   2276987  
  8950.000000   2276869   2277316   2278409   2280078   2282117  
  8940.000000   2284231   2286052   2287254   2287552   2286814  
  8930.000000   2285056   2282496   2279479   2276425   2273741  
  8920.000000   2271763   2270696   2270577   2271319   2272717  
  8910.000000   2274525   2276445   2278222   2279651   2280627  
  8900.000000   2281148   2281293   2281216   2281060   2280925  
  8890.000000   2280812   2280633   2280250   2279549   2278512  
  8880.000000   2277236   2275924   2274801   2274043   2273693  
  8870.000000   2273634   2273625   2273373   2272650   2271366  
  8860.000000   2269615   2267647   2265796   2264381   2263624  
  8850.000000   2263609   2264281   2265468   2266928   2268404  
  8840.000000   2269682   2270616   2271145   2271269   2271058  
  8830.000000   2270593   2269975   2269271   2268544   2267831  
  8820.000000   2267160   2266572   2266102   2265813   2265744  
  8810.000000   2265943   2266410   2267118   2267994   2268915  
  8800.000000   2269742   2270295   2270433   2270025   2269043  
  8790.000000   2267523   2265611   2263527   2261537   2259930  
  8780.000000   2258942   2258766   2259484   2261107   2263510  
  8770.000000   2266480   2269692   2272767   2275302   2276940  
  8760.000000   2277463   2276813   2275163   2272818   2270179  
  8750.000000   2267600   2265334   2263482   2262011   2260832  
  8740.000000   2259861   2259121   2258711   2258797   2259478  
  8730.000000   2260740   2262393   2264117   2265569   2266456  
  8720.000000   2266687   2266333   2265657   2264939   2264426  
  8710.000000   2264200   2264190   2264236   2264171   2263954  
  8700.000000   2263688   2263630   2264080   2265274   2267256  
  8690.000000   2269829   2272578   2274963   2276484   2276810  
  8680.000000   2275905   2274005   2271574   2269165   2267282  
  8670.000000   2266274   2266259   2267138   2268643   2270447  
  8660.000000   2272227   2273741   2274829   2275428   2275550  
  8650.000000   2275267   2274705   2274002   2273320   2272785  
  8640.000000   2272499   2272490   2272718   2273096   2273511  
  8630.000000   2273891   2274205   2274495   2274835   2275308  
  8620.000000   2275962   2276779   2277690   2278570   2279307  
  8610.000000   2279808   2280049   2280068   2279952   2279820  
  8600.000000   2279768   2279883   2280200   2280734   2281456  
  8590.000000   2282330   2283304   2284316   2285288   2286116  
  8580.000000   2286688   2286878   2286574   2285709   2284306  
  8570.000000   2282494   2280516   2278684   2277319   2276667  
  8560.000000   2276821   2277693   2279018   2280434   2281569  
  8550.000000   2282159   2282121   2281572   2280790   2280102  
  8540.000000   2279802   2280042   2280814   2281945   2283172  
  8530.000000   2284218   2284891   2285135   2285041   2284809  
  8520.000000   2284684   2284853   2285394   2286227   2287148  
  8510.000000   2287887   2288195   2287954   2287221   2286250  
  8500.000000   2285406   2285083   2285560   2286919   2288994  
  8490.000000   2291412   2293690   2295360   2296095   2295796  
  8480.000000   2294613   2292885   2291050   2289531   2288653  
  8470.000000   2288553   2289178   2290291   2291554   2292608  
  8460.000000   2293155   2293047   2292322   2291213   2290075  
  8450.000000   2289306   2289219   2289957   2291443   2293400  
  8440.000000   2295439   2297175   2298338   2298846   2298815  
  8430.000000   2298485   2298129   2297935   2297949   2298065  
  8420.000000   2298085   2297803   2297098   2296009   2294725  
  8410.000000   2293553   2292801   2292698   2293289   2294443  
  8400.000000   2295867   2297203   2298118   2298415   2298079  
  8390.000000   2297275   2296277   2295388   2294846   2294755  
  8380.000000   2295069   2295613   2296167   2296512   2296492  
  8370.000000   2296043   2295183   2294025   2292713   2291427  
  8360.000000   2290348   2289636   2289401   2289652   2290282  
  8350.000000   2291070   2291734   2291991   2291642   2290643  
  8340.000000   2289134   2287406   2285805   2284638   2284083  
  8330.000000   2284170   2284779   2285713   2286752   2287715  
  8320.000000   2288476   2288950   2289057   2288707   2287818  
  8310.000000   2286344   2284330   2281922   2279368   2276952  
  8300.000000   2274938   2273485   2272612   2272210   2272078  
  8290.000000   2272017   2271864   2271547   2271072   2270509  
  8280.000000   2269953   2269482   2269149   2268950   2268857  
  8270.000000   2268803   2268717   2268511   2268123   2267518  
  8260.000000   2266717   2265803   2264884   2264094   2263520  
  8250.000000   2263216   2263154   2263273   2263476   2263678  
  8240.000000   2263804   2263795   2263587   2263097   2262226  
  8230.000000   2260879   2259016   2256685   2254052   2251364  
  8220.000000   2248899   2246888   2245445   2244559   2244084  
  8210.000000   2243836   2243639   2243413   2243162   2242960  
  8200.000000   2242873   2242903   2242963   2242887   2242494  
  8190.000000   2241645   2240323   2238623   2236737   2234878  
  8180.000000   2233208   2231802   2230623   2229573   2228528  
  8170.000000   2227402   2226170   2224869   2223570   2222338  
  8160.000000   2221200   2220134   2219082   2217971   2216747  
  8150.000000   2215392   2213938   2212460   2211061   2209854  
  8140.000000   2208925   2208313   2207987   2207845   2207728  
  8130.000000   2207456   2206869   2205875   2204479   2202779  
  8120.000000   2200946   2199162   2197584   2196279   2195236  
  8110.000000   2194356   2193514   2192593   2191522   2190300  
  8100.000000   2188984   2187688   2186541   2185683   2185222  
  8090.000000   2185218   2185647   2186395   2187248   2187933  
  8080.000000   2188176   2187776   2186675   2184980   2182942  
  8070.000000   2180871   2179045   2177607   2176531   2175640  
  8060.000000   2174680   2173428   2171778   2169788   2167647  
  8050.000000   2165617   2163920   2162681   2161888   2161423  
  8040.000000   2161116   2160816   2160440   2159977   2159472  
  8030.000000   2158981   2158532   2158104   2157636   2157041  
  8020.000000   2156260   2155261   2154074   2152761   2151413  
  8010.000000   2150113   2148919   2147856   2146914   2146069  
  8000.000000   2145291   2144570   2143915   2143351   2142901  
  7990.000000   2142558   2142278   2141976   2141548   2140905  
  7980.000000   2140018   2138930   2137759   2136658   2135767  
  7970.000000   2135166   2134848   2134730   2134688   2134601  
  7960.000000   2134392   2134023   2133499   2132823   2131995  
  7950.000000   2131001   2129848   2128582   2127314   2126197  
  7940.000000   2125389   2124988   2124991   2125286   2125684  
  7930.000000   2125990   2126071   2125895   2125533   2125107  
  7920.000000   2124731   2124459   2124275   2124117   2123924  
  7910.000000   2123684   2123445   2123286   2123274   2123413  
  7900.000000   2123624   2123764   2123678   2123253   2122468  
  7890.000000   2121386   2120144   2118890   2117754   2116820  
  7880.000000   2116128   2115694   2115520   2115608   2115939  
  7870.000000   2116467   2117108   2117757   2118309   2118692  
  7860.000000   2118878   2118878   2118718   2118416   2117961  
  7850.000000   2117332   2116526   2115586   2114615   2113751  
  7840.000000   2113121   2112780   2112670   2112633   2112447  
  7830.000000   2111920   2110954   2109598   2108034   2106530  
  7820.000000   2105342   2104652   2104507   2104837   2105469  
  7810.000000   2106203   2106848   2107265   2107369   2107140  
  7800.000000   2106595   2105788   2104794   2103695   2102563  
  7790.000000   2101438   2100321   2099168   2097914   2096504  
  7780.000000   2094923   2093223   2091509   2089913   2088548  
  7770.000000   2087463   2086635   2085969   2085352   2084688  
  7760.000000   2083941   2083145   2082382   2081747   2081307  
  7750.000000   2081073   2081009   2081033   2081064   2081023  
  7740.000000   2080863   2080546   2080049   2079347   2078438  
  7730.000000   2077343   2076131   2074915   2073826   2072992  
  7720.000000   2072473   2072271   2072297   2072435   2072559  
  7710.000000   2072589   2072498   2072297   2072002   2071589  
  7700.000000   2070985   2070064   2068711   2066855   2064537  
  7690.000000   2061915   2059241   2056808   2054867   2053580  
  7680.000000   2052969   2052951   2053353   2053980   2054650  
  7670.000000   2055212   2055563   2055623   2055352   2054722  
  7660.000000   2053764   2052536   2051162   2049781   2048551  
  7650.000000   2047589   2046965   2046682   2046684   2046883  
  7640.000000   2047176   2047476   2047720   2047877   2047943  
  7630.000000   2047930   2047863   2047761   2047632   2047466  
  7620.000000   2047240   2046921   2046486   2045936   2045305  
  7610.000000   2044661   2044080   2043623   2043305   2043079  
  7600.000000   2042855   2042524   2042004   2041274   2040384  
  7590.000000   2039448   2038600   2037961   2037595   2037504  
  7580.000000   2037637   2037914   2038263   2038622   2038951  
  7570.000000   2039210   2039355   2039338   2039123   2038703  
  7560.000000   2038126   2037481   2036888   2036453   2036239  
  7550.000000   2036243   2036395   2036596   2036748   2036799  
  7540.000000   2036751   2036655   2036586   2036604   2036738  
  7530.000000   2036969   2037252   2037526   2037752   2037914  
  7520.000000   2038034   2038144   2038279   2038456   2038669  
  7510.000000   2038895   2039107   2039295   2039471   2039673  
  7500.000000   2039951   2040343   2040857   2041454   2042062  
  7490.000000   2042583   2042941   2043099   2043086   2042987  
  7480.000000   2042925   2043010   2043313   2043837   2044532  
  7470.000000   2045311   2046096   2046835   2047529   2048201  
  7460.000000   2048890   2049603   2050325   2051012   2051633  
  7450.000000   2052179   2052695   2053258   2053965   2054886  
  7440.000000   2056048   2057416   2058918   2060464   2061983  
  7430.000000   2063426   2064778   2066038   2067216   2068317  
  7420.000000   2069350   2070335   2071309   2072321   2073419  
  7410.000000   2074626   2075931   2077284   2078612   2079842  
  7400.000000   2080929   2081862   2082667   2083385   2084065  
  7390.000000   2084742   2085447   2086206   2087049   2088016  
  7380.000000   2089135   2090416   2091827   2093306   2094774  
  7370.000000   2096157   2097410   2098521   2099514   2100417  
  7360.000000   2101258   2102044   2102776   2103461   2104127  
  7350.000000   2104831   2105643   2106620   2107775   2109070  
  7340.000000   2110420   2111735   2112948   2114049   2115080  
  7330.000000   2116120   2117240   2118474   2119795   2121132  
  7320.000000   2122388   2123485   2124379   2125081   2125637  
  7310.000000   2126118   2126583   2127074   2127598   2128147  
  7300.000000   2128696   2129223   2129708   2130136   2130498  
  7290.000000   2130787   2131003   2131156   2131270   2131380  
  7280.000000   2131530   2131770   2132143   2132682   2133396  
  7270.000000   2134272   2135275   2136348   2137429   2138450  
  7260.000000   2139367   2140153   2140817   2141385   2141910  
  7250.000000   2142437   2143022   2143689   2144457   2145317  
  7240.000000   2146253   2147232   2148228   2149218   2150210  
  7230.000000   2151229   2152339   2153609   2155107   2156855  
  7220.000000   2158830   2160937   2163059   2165066   2166882  
  7210.000000   2168494   2169987   2171491   2173163   2175103  
  7200.000000   2177343   2179815   2182407   2184986   2187472  
  7190.000000   2189837   2192134   2194446   2196868   2199451  
  7180.000000   2202210   2205103   2208077   2211067   2214040  
  7170.000000   2216970   2219866   2222735   2225604   2228488  
  7160.000000   2231422   2234420   2237507   2240677   2243924  
  7150.000000   2247215   2250540   2253888   2257295   2260800  
  7140.000000   2264469   2268327   2272381   2276581   2280877  
  7130.000000   2285203   2289552   2293933   2298420   2303066  
  7120.000000   2307933   2313012   2318278   2323657   2329100  
  7110.000000   2334569   2340079   2345655   2351343   2357154  
  7100.000000   2363086   2369091   2375128   2381137   2387094  
  7090.000000   2392973   2398779   2404511   2410188   2415824  
  7080.000000   2421463   2427152   2432952   2438908   2445051  
  7070.000000   2451369   2457828   2464370   2470943   2477503  
  7060.000000   2484028   2490503   2496921   2503270   2509545  
  7050.000000   2515743   2521882   2527994   2534118   2540291  
  7040.000000   2546525   2552817   2559141   2565477   2571805  
  7030.000000   2578125   2584435   2590732   2596982   2603145  
  7020.000000   2609165   2615005   2620652   2626128   2631464  
  7010.000000   2636700   2641842   2646892   2651828   2656659  
  7000.000000   2661405   2666131   2670886   2675711   2680576  
  6990.000000   2685419   2690131   2694639   2698905   2702977  
  6980.000000   2706940   2710898   2714895   2718917   2722865  
  6970.000000   2726625   2730089   2733235   2736114   2738856  
  6960.000000   2741593   2744441   2747431   2750542   2753680  
  6950.000000   2756762   2759705   2762479   2765077   2767527  
  6940.000000   2769851   2772081   2774228   2776312   2778335  
  6930.000000   2780309   2782222   2784065   2785815   2787466  
  6920.000000   2789013   2790485   2791902   2793294   2794661  
  6910.000000   2795986   2797226   2798346   2799325   2800177  
  6900.000000   2800939   2801669   2802410   2803192   2804013  
  6890.000000   2804864   2805730   2806617   2807536   2808510  
  6880.000000   2809546   2810634   2811735   2812799   2813771  
  6870.000000   2814607   2815282   2815792   2816149   2816386  
  6860.000000   2816550   2816711   2816946   2817336   2817928  
  6850.000000   2818733   2819701   2820739   2821731   2822578  
  6840.000000   2823219   2823653   2823918   2824073   2824170  
  6830.000000   2824237   2824280   2824304   2824318   2824359  
  6820.000000   2824467   2824685   2825022   2825454   2825917  
  6810.000000   2826341   2826659   2826836   2826860   2826745  
  6800.000000   2826509   2826181   2825790   2825380   2825006  
  6790.000000   2824734   2824608   2824639   2824781   2824946  
  6780.000000   2825020   2824913   2824579   2824044   2823379  
  6770.000000   2822680   2822022   2821448   2820958   2820534  
  6760.000000   2820160   2819835   2819565   2819351   2819161  
  6750.000000   2818929   2818572   2818019   2817248   2816299  
  6740.000000   2815267   2814265   2813382   2812658   2812074  
  6730.000000   2811575   2811102   2810625   2810148   2809702  
  6720.000000   2809311   2808979   2808676   2808355   2807975  
  6710.000000   2807523   2807018   2806498   2805995   2805511  
  6700.000000   2805010   2804438   2803735   2802875   2801861  
  6690.000000   2800734   2799537   2798311   2797066   2795798  
  6680.000000   2794495   2793156   2791793   2790432   2789091  
  6670.000000   2787778   2786476   2785168   2783839   2782501  
  6660.000000   2781180   2779918   2778737   2777633   2776560  
  6650.000000   2775453   2774244   2772890   2771382   2769750  
  6640.000000   2768037   2766291   2764539   2762796   2761057  
  6630.000000   2759325   2757597   2755887   2754197   2752529  
  6620.000000   2750870   2749202   2747503   2745765   2743980  
  6610.000000   2742154   2740287   2738383   2736441   2734475  
  6600.000000   2732506   2730574   2728717   2726960   2725297  
  6590.000000   2723686   2722063   2720358   2718527   2716565  
  6580.000000   2714509   2712425   2710382   2708429   2706587  
  6570.000000   2704849   2703194   2701603   2700067   2698585  
  6560.000000   2697163   2695799   2694483   2693199   2691931  
  6550.000000   2690669   2689412   2688152   2686883   2685578  
  6540.000000   2684210   2682752   2681197   2679567   2677911  
  6530.000000   2676296   2674783   2673415   2672205   2671136  
  6520.000000   2670167   2669250   2668334   2667381   2666367  
  6510.000000   2665284   2664146   2662985   2661843   2660764  
  6500.000000   2659773   2658863   2657992   2657087   2656075  
  6490.000000   2654899   2653554   2652082   2650567   2649102  
  6480.000000   2647760   2646573   2645525   2644565   2643634  
  6470.000000   2642687   2641702   2640685   2639654   2638632  
  6460.000000   2637634   2636668   2635741   2634854   2634011  
  6450.000000   2633200   2632401   2631572   2630668   2629650  
  6440.000000   2628505   2627252   2625946   2624662   2623478  
  6430.000000   2622451   2621615   2620965   2620474   2620088  
  6420.000000   2619745   2619374   2618912   2618307   2617543  
  6410.000000   2616637   2615655   2614681   2613813   2613116  
  6400.000000   2612613   2612274   2612031   2611806   2611537  
  6390.000000   2611200   2610805   2610384   2609963   2609551  
  6380.000000   2609132   2608674   2608154   2607563   2606923  
  6370.000000   2606272   2605646   2605071   2604544   2604051  
  6360.000000   2603563   2603066   2602553   2602033   2601509  
  6350.000000   2600980   2600431   2599845   2599205   2598514  
  6340.000000   2597785   2597040   2596292   2595543   2594774  
  6330.000000   2593958   2593070   2592104   2591069   2589996  
  6320.000000   2588913   2587846   2586798   2585763   2584723  
  6310.000000   2583665   2582577   2581458   2580301   2579102  
  6300.000000   2577843   2576517   2575120   2573672   2572200  
  6290.000000   2570746   2569336   2567985   2566674   2565371  
  6280.000000   2564029   2562612   2561095   2559479   2557774  
  6270.000000   2556005   2554191   2552354   2550506   2548656  
  6260.000000   2546806   2544957   2543099   2541223   2539313  
  6250.000000   2537361   2535365   2533341   2531312   2529308  
  6240.000000   2527357   2525474   2523661   2521902   2520175  
  6230.000000   2518450   2516699   2514904   2513052   2511146  
  6220.000000   2509202   2507246   2505311   2503427   2501615  
  6210.000000   2499877   2498196   2496543   2494883   2493187  
  6200.000000   2491441   2489644   2487805   2485934   2484041  
  6190.000000   2482129   2480203   2478273   2476360   2474487  
  6180.000000   2472680   2470951   2469301   2467716   2466174  
  6170.000000   2464660   2463166   2461693   2460249   2458832  
  6160.000000   2457435   2456035   2454613   2453154   2451663  
  6150.000000   2450164   2448690   2447271   2445922   2444641  
  6140.000000   2443406   2442193   2440982   2439765   2438544  
  6130.000000   2437324   2436109   2434890   2433657   2432393  
  6120.000000   2431097   2429774   2428447   2427138   2425873  
  6110.000000   2424669   2423541   2422493   2421534   2420663  
  6100.000000   2419883   2419179   2418535   2417920   2417315  
  6090.000000   2416701   2416085   2415480   2414917   2414414  
  6080.000000   2413989   2413637   2413352   2413120   2412942  
  6070.000000   2412820   2412771   2412801   2412920   2413116  
  6060.000000   2413385   2413709   2414094   2414536   2415052  
  6050.000000   2415639   2416302   2417023   2417795   2418604  
  6040.000000   2419463   2420382   2421389   2422493   2423699  
  6030.000000   2424981   2426312   2427656   2428997   2430326  
  6020.000000   2431658   2433000   2434367   2435752   2437151  
  6010.000000   2438549   2439949   2441358   2442797   2444280  
  6000.000000   2445822   2447410   2449032   2450663   2452294  
  5990.000000   2453918   2455550   2457202   2458892   2460621  
  5980.000000   2462395   2464213   2466089   2468035   2470079  
  5970.000000   2472234   2474504   2476866   2479292   2481738  
  5960.000000   2484182   2486602   2489009   2491407   2493814  
  5950.000000   2496229   2498656   2501092   2503550   2506054  
  5940.000000   2508639   2511340   2514176   2517147   2520225  
  5930.000000   2523369   2526535   2529686   2532796   2535847  
  5920.000000   2538825   2541706   2544466   2547079   2549535  
  5910.000000   2551839   2554020   2556115   2558166   2560204  
  5900.000000   2562245   2564301   2566378   2568493   2570665  
  5890.000000   2572919   2575272   2577727   2580268   2582869  
  5880.000000   2585496   2588115   2590702   2593232   2595686  
  5870.000000   2598037   2600267   2602362   2604330   2606199  
  5860.000000   2608019   2609844   2611725   2613691   2615752  
  5850.000000   2617899   2620116   2622390   2624714   2627089  
  5840.000000   2629515   2631985   2634490   2637013   2639545  
  5830.000000   2642085   2644641   2647221   2649828   2652445  
  5820.000000   2655047   2657599   2660074   2662463   2664773  
  5810.000000   2667030   2669250   2671453   2673627   2675773  
  5800.000000   2677863   2679914   2681922   2683929   2685930  
  5790.000000   2687939   2689899   2691756   2693393   2694713  
  5780.000000   2695593   2695957   2695734   2694914   2693508  
  5770.000000   2691595   2689271   2686685   2683971   2681276  
  5760.000000   2678687   2676271   2674031   2671959   2670017  
  5750.000000   2668189   2666459   2664837   2663330   2661949  
  5740.000000   2660697   2659563   2658542   2657614   2656774  
  5730.000000   2656001   2655289   2654616   2653973   2653343  
  5720.000000   2652734   2652150   2651615   2651138   2650731  
  5710.000000   2650383   2650084   2649815   2649575   2649366  
  5700.000000   2649210   2649123   2649114   2649180   2649296  
  5690.000000   2649435   2649568   2649682   2649766   2649827  
  5680.000000   2649856   2649847   2649767   2649586   2649262  
  5670.000000   2648770   2648082   2647191   2646087   2644774  
  5660.000000   2643258   2641568   2639741   2637840   2635928  
  5650.000000   2634072   2632312   2630673   2629146   2627716  
  5640.000000   2626354   2625041   2623762   2622509   2621275  
  5630.000000   2620050   2618828   2617604   2616387   2615188  
  5620.000000   2614032   2612929   2611886   2610890   2609926  
  5610.000000   2608973   2608028   2607096   2606199   2605355  
  5600.000000   2604576   2603855   2603173   2602503   2601824  
  5590.000000   2601124   2600403   2599668   2598925   2598170  
  5580.000000   2597395   2596592   2595757   2594897   2594027  
  5570.000000   2593160   2592300   2591441   2590561   2589643  
  5560.000000   2588669   2587643   2586574   2585483   2584386  
  5550.000000   2583294   2582209   2581129   2580057   2579001  
  5540.000000   2577970   2576977   2576019   2575089   2574170  
  5530.000000   2573248   2572317   2571385   2570461   2569554  
  5520.000000   2568658   2567756   2566820   2565825   2564761  
  5510.000000   2563636   2562471   2561293   2560120   2558959  
  5500.000000   2557800   2556637   2555460   2554277   2553090  
  5490.000000   2551906   2550709   2549480   2548181   2546794  
  5480.000000   2545312   2543760   2542174   2540596   2539044  
  5470.000000   2537515   2535974   2534379   2532693   2530903  
  5460.000000   2529018   2527066   2525074   2523063   2521039  
  5450.000000   2519007   2516970   2514943   2512950   2511015  
  5440.000000   2509153   2507364   2505640   2503963   2502328  
  5430.000000   2500726   2499158   2497614   2496079   2494522  
  5420.000000   2492933   2491308   2489693   2488153   2486777  
  5410.000000   2485623   2484720   2484026   2483483   2483005  
  5400.000000   2482549   2482088   2481659   2481295   2481054  
  5390.000000   2480948   2480988   2481144   2481416   2481796  
  5380.000000   2482323   2483016   2483916   2485010   2486292  
  5370.000000   2487703   2489221   2490798   2492453   2494175  
  5360.000000   2496017   2497979   2500121   2502445   2505025  
  5350.000000   2507878   2511093   2514680   2518706   2523133  
  5340.000000   2527986   2533198   2538804   2544760   2551135  
  5330.000000   2557897   2565111   2572720   2580767   2589190  
  5320.000000   2598057   2607345   2617176   2627549   2638592  
  5310.000000   2650273   2662673   2675714   2689456   2703830  
  5300.000000   2718923   2734708   2751315   2768742   2787116  
  5290.000000   2806402   2826658   2847762   2869673   2892209  
  5280.000000   2915315   2938878   2962955   2987566   3012860  
  5270.000000   3038875   3065649   3093048   3120890   3148915  
  5260.000000   3176915   3204773   3232485   3260141   3287825  
  5250.000000   3315589   3343329   3370887   3397964   3424364  
  5240.000000   3449870   3474495   3498235   3521275   3543675  
  5230.000000   3565584   3586943   3607756   3627831   3647115  
  5220.000000   3665440   3682854   3699320   3715014   3729980  
  5210.000000   3744408   3758282   3771673   3784431   3796531  
  5200.000000   3807794   3818246   3827814   3836625   3844680  
  5190.000000   3852115   3858897   3865102   3870653   3875612  
  5180.000000   3879923   3883680   3886859   3889550   3891703  
  5170.000000   3893368   3894478   3895086   3895163   3894803  
  5160.000000   3894011   3892878   3891380   3889561   3887363  
  5150.000000   3884818   3881891   3878643   3875071   3871236  
  5140.000000   3867124   3862769   3858141   3853273   3848161  
  5130.000000   3842865   3837411   3831865   3826245   3820590  
  5120.000000   3814896   3809184   3803447   3797703   3791945  
  5110.000000   3786180   3780389   3774568   3768701   3762798  
  5100.000000   3756870   3750950   3745060   3739220   3733426  
  5090.000000   3727666   3721919   3716170   3710410   3704648  
  5080.000000   3698888   3693141   3687398   3681651   3675880  
  5070.000000   3670078   3664237   3658370   3652482   3646588  
  5060.000000   3640683   3634759   3628790   3622757   3616636  
  5050.000000   3610422   3604110   3597715   3591245   3584722  
  5040.000000   3578158   3571573   3564981   3558395   3551821  
  5030.000000   3545257   3538700   3532142   3525586   3519038  
  5020.000000   3512525   3506072   3499720   3493490   3487411  
  5010.000000   3481483   3475715   3470088   3464608   3459257  
  5000.000000   3454049   3448973   3444053   3439280   3434689  
  4990.000000   3430272   3426069   3422072   3418318   3414792  
  4980.000000   3411526   3408494   3405728   3403204   3400965  
  4970.000000   3398994   3397342   3395993   3394995   3394324  
  4960.000000   3394023   3394065   3394492   3395277   3396458  
  4950.000000   3397999   3399926   3402193   3404821   3407766  
  4940.000000   3411060   3414670   3418634   3422912   3427527  
  4930.000000   3432423   3437608   3443030   3448715   3454642  
  4920.000000   3460865   3467381   3474237   3481410   3488910  
  4910.000000   3496684   3504721   3512971   3521433   3530082  
  4900.000000   3538921   3547928   3557090   3566366   3575717  
  4890.000000   3585090   3594436   3603713   3612877   3621904  
  4880.000000   3630761   3639439   3647908   3656171   3664192  
  4870.000000   3671971   3679462   3686665   3693536   3700085  
  4860.000000   3706287   3712170   3717719   3722964   3727887  
  4850.000000   3732512   3736823   3740857   3744616   3748160  
  4840.000000   3751511   3754730   3757832   3760858   3763803  
  4830.000000   3766690   3769507   3772273   3774979   3777637  
  4820.000000   3780238   3782785   3785271   3787703   3790081  
  4810.000000   3792422   3794733   3797028   3799310   3801583  
  4800.000000   3803853   3806131   3808433   3810782   3813190  
  4790.000000   3815661   3818177   3820712   3823224   3825686  
  4780.000000   3828076   3830401   3832668   3834902   3837108  
  4770.000000   3839291   3841428   3843500   3845475   3847343  
  4760.000000   3849087   3850713   3852211   3853588   3854826  
  4750.000000   3855930   3856884   3857702   3858385   3858960  
  4740.000000   3859430   3859817   3860114   3860326   3860439  
  4730.000000   3860457   3860374   3860203   3859948   3859629  
  4720.000000   3859251   3858829   3858370   3857884   3857380  
  4710.000000   3856869   3856362   3855870   3855405   3854978  
  4700.000000   3854608   3854310   3854104   3854009   3854036  
  4690.000000   3854192   3854475   3854871   3855360   3855914  
  4680.000000   3856501   3857080   3857618   3858073   3858423  
  4670.000000   3858640   3858729   3858696   3858581   3858420  
  4660.000000   3858271   3858182   3858211   3858392   3858761  
  4650.000000   3859328   3860099   3861063   3862201   3863490  
  4640.000000   3864905   3866423   3868021   3869679   3871375  
  4630.000000   3873080   3874765   3876395   3877941   3879378  
  4620.000000   3880689   3881868   3882915   3883834   3884623  
  4610.000000   3885290   3885833   3886266   3886597   3886859  
  4600.000000   3887069   3887263   3887450   3887648   3887843  
  4590.000000   3888033   3888191   3888307   3888354   3888320  
  4580.000000   3888178   3887918   3887512   3886960   3886251  
  4570.000000   3885404   3884426   3883345   3882167   3880910  
  4560.000000   3879564   3878133   3876604   3874986   3873277  
  4550.000000   3871498   3869654   3867758   3865808   3863804  
  4540.000000   3861743   3859631   3857485   3855329   3853198  
  4530.000000   3851117   3849117   3847200   3845384   3843657  
  4520.000000   3842039   3840519   3839137   3837889   3836827  
  4510.000000   3835949   3835319   3834937   3834885   3835174  
  4500.000000   3835899   3837067   3838768   3840989   3843805  
  4490.000000   3847187   3851212   3855856   3861203   3867226  
  4480.000000   3873995   3881460   3889659   3898516   3908048  
  4470.000000   3918173   3928907   3940168   3951961   3964195  
  4460.000000   3976852   3989832   4003103   4016574   4030217  
  4450.000000   4043961   4057790   4071654   4085542   4099426  
  4440.000000   4113297   4127150   4140972   4154770   4168514  
  4430.000000   4182203   4195774   4209212   4222430   4235407  
  4420.000000   4248047   4260339   4272186   4283582   4294423  
  4410.000000   4304690   4314265   4323120   4331148   4338348  
  4400.000000   4344662   4350152   4354829   4358812   4362162  
  4390.000000   4365021   4367470   4369649   4371645   4373583  
  4380.000000   4375538   4377604   4379830   4382271   4384954  
  4370.000000   4387915   4391182   4394788   4398773   4403158  
  4360.000000   4407966   4413189   4418800   4424751   4430954  
  4350.000000   4437336   4443779   4450234   4456616   4462949  
  4340.000000   4469215   4475478   4481692   4487785   4493494  
  4330.000000   4498463   4502182   4504165   4503989   4501488  
  4320.000000   4496763   4490257   4482612   4474614   4466960  
  4310.000000   4460221   4454680   4450429   4447329   4445185  
  4300.000000   4443751   4442844   4442324   4442107   4442149  
  4290.000000   4442397   4442842   4443443   4444222   4445174  
  4280.000000   4446338   4447717   4449313   4451109   4453066  
  4270.000000   4455166   4457368   4459648   4461914   4464039  
  4260.000000   4465789   4466889   4467025   4465951   4463522  
  4250.000000   4459776   4454907   4449266   4443251   4437283  
  4240.000000   4431674   4426658   4422301   4418593   4415413  
  4230.000000   4412626   4410070   4407612   4405149   4402610  
  4220.000000   4399985   4397281   4394570   4391909   4389411  
  4210.000000   4387134   4385168   4383532   4382260   4381326  
  4200.000000   4380718   4380378   4380271   4380326   4380507  
  4190.000000   4380747   4381032   4381319   4381633   4381957  
  4180.000000   4382346   4382800   4383385   4384109   4385051  
  4170.000000   4386236   4387762   4389665   4392036   4394891  
  4160.000000   4398289   4402200   4406649   4411579   4417007  
  4150.000000   4422869   4429186   4435891   4443004   4450458  
  4140.000000   4458290   4466457   4475032   4484005   4493460  
  4130.000000   4503384   4513830   4524746   4536145   4547959  
  4120.000000   4560200   4572824   4585868   4599317   4613213  
  4110.000000   4627536   4642306   4657475   4673026   4688883  
  4100.000000   4705003   4721294   4737708   4754174   4770671  
  4090.000000   4787182   4803730   4820346   4837066   4853932  
  4080.000000   4870953   4888145   4905472   4922914   4940384  
  4070.000000   4957828   4975124   4992210   5008968   5025371  
  4060.000000   5041345   5056915   5072029   5086724   5100931  
  4050.000000   5114679   5127888   5140605   5152768   5164450  
  4040.000000   5175582   5186219   5196251   5205704   5214448  
  4030.000000   5222519   5229810   5236369   5242105   5247052  
  4020.000000   5251094   5254281   5256588   5258111   5258821  
  4010.000000   5258880   5258372   5257330   5255537   5253069  
  4000.000000   5250260  
##END= 
