##TITLE= Sample 017 By ssteindl date Montag, November 26 2018
##JCAMP-DX= 4.24
##DATA TYPE= INFRARED SPECTRUM
##ORIGIN= Exported PE Spectrum Data File
##OWNER= Sandra Steindl
##DATE= 18/11/26
##TIME= 11:36:54.00
##SPECTROMETER/DATA SYSTEM= PERKIN-ELMER Frontier FT-IR/NIR IR
##INSTRUMENT PARAMETERS=
  APODIZATION=stark
  DETECTOR=INGAAS
##RESOLUTION= 16.000000
##DELTAX= -2.000000
##XUNITS= 1/CM
##YUNITS= A
##XFACTOR= 1.00
##YFACTOR= 0.00000011920928955078
##FIRSTX= 10000.00
##LASTX= 4000.00
##NPOINTS= 3001
##FIRSTY= 0.304591
##MAXY= 0.593430
##MINY= 0.248187
##XYDATA= (X++(Y..Y))
 10000.000000   2555094   2550049   2546080   2544414   2544849  
  9990.000000   2546151   2547372   2548265   2548983   2549977  
  9980.000000   2552000   2555664   2560938   2567049   2572812  
  9970.000000   2577033   2578880   2578181   2575376   2571288  
  9960.000000   2566775   2562515   2558878   2555990   2553743  
  9950.000000   2551897   2550031   2547631   2544122   2539095  
  9940.000000   2532476   2524720   2516744   2509703   2504588  
  9930.000000   2501823   2501154   2501696   2502390   2502363  
  9920.000000   2501313   2499500   2497573   2496169   2495687  
  9910.000000   2496096   2497187   2498684   2500565   2502947  
  9900.000000   2505969   2509498   2512998   2515699   2516913  
  9890.000000   2516498   2515041   2513736   2513917   2516414  
  9880.000000   2521125   2526893   2531897   2534321   2533051  
  9870.000000   2528159   2520833   2512978   2506437   2502442  
  9860.000000   2501297   2502505   2505181   2508389   2511434  
  9850.000000   2513793   2515039   2514745   2512564   2508458  
  9840.000000   2502939   2497127   2492616   2490958   2493175  
  9830.000000   2499270   2508121   2517817   2526195   2531643  
  9820.000000   2533514   2532329   2529454   2526556   2525028  
  9810.000000   2525513   2527798   2530910   2533536   2534441  
  9800.000000   2532879   2528806   2522807   2515987   2509545  
  9790.000000   2504596   2501798   2501317   2502781   2505428  
  9780.000000   2508363   2510758   2512096   2512179   2511124  
  9770.000000   2509181   2506673   2503870   2501067   2498539  
  9760.000000   2496620   2495616   2495751   2497112   2499568  
  9750.000000   2502865   2506607   2510446   2514046   2517183  
  9740.000000   2519670   2521333   2522014   2521555   2519930  
  9730.000000   2517249   2513816   2510014   2506195   2502557  
  9720.000000   2499111   2495775   2492497   2489403   2486788  
  9710.000000   2485056   2484498   2485155   2486729   2488677  
  9700.000000   2490440   2491653   2492317   2492740   2493360  
  9690.000000   2494478   2496106   2497960   2499642   2500856  
  9680.000000   2501569   2502016   2502499   2503206   2503995  
  9670.000000   2504465   2504090   2502517   2499763   2496233  
  9660.000000   2492583   2489380   2486862   2484807   2482650  
  9650.000000   2479814   2475982   2471397   2466722   2462921  
  9640.000000   2460794   2460796   2462839   2466398   2470698  
  9630.000000   2474862   2478142   2479829   2479427   2476512  
  9620.000000   2471022   2463217   2453919   2444323   2435857  
  9610.000000   2429793   2426934   2427477   2430976   2436646  
  9600.000000   2443516   2450819   2457981   2464703   2470765  
  9590.000000   2475929   2479905   2482369   2483156   2482274  
  9580.000000   2479987   2476674   2472741   2468498   2464136  
  9570.000000   2459790   2455572   2451675   2448254   2445411  
  9560.000000   2443009   2440722   2438105   2434842   2430956  
  9550.000000   2426893   2423426   2421345   2421129   2422707  
  9540.000000   2425467   2428487   2430918   2432296   2432718  
  9530.000000   2432716   2432981   2433957   2435626   2437448  
  9520.000000   2438669   2438617   2437061   2434228   2430705  
  9510.000000   2427134   2423983   2421443   2419457   2417899  
  9500.000000   2416705   2415974   2415890   2416596   2418008  
  9490.000000   2419796   2421464   2422578   2422993   2422902  
  9480.000000   2422789   2423146   2424260   2426023   2427934  
  9470.000000   2429312   2429577   2428561   2426641   2424621  
  9460.000000   2423430   2423722   2425566   2428403   2431200  
  9450.000000   2432845   2432511   2429951   2425614   2420504  
  9440.000000   2415896   2412903   2412103   2413363   2415887  
  9430.000000   2418563   2420323   2420546   2419192   2416858  
  9420.000000   2414503   2413169   2413548   2415754   2419252  
  9410.000000   2423010   2425888   2426922   2425678   2422256  
  9400.000000   2417246   2411479   2405781   2400799   2396902  
  9390.000000   2394248   2392831   2392603   2393459   2395259  
  9380.000000   2397753   2400610   2403433   2405846   2407589  
  9370.000000   2408527   2408693   2408174   2407100   2405552  
  9360.000000   2403628   2401479   2399385   2397756   2397018  
  9350.000000   2397473   2399099   2401508   2403996   2405765  
  9340.000000   2406182   2404987   2402380   2398935   2395383  
  9330.000000   2392376   2390279   2389156   2388827   2389052  
  9320.000000   2389638   2390520   2391700   2393129   2394602  
  9310.000000   2395718   2396005   2395059   2392758   2389296  
  9300.000000   2385183   2381064   2377553   2375072   2373764  
  9290.000000   2373569   2374278   2375683   2377584   2379816  
  9280.000000   2382163   2384332   2385948   2386636   2386164  
  9270.000000   2384497   2381871   2378684   2375446   2372579  
  9260.000000   2370356   2368835   2367924   2367461   2367259  
  9250.000000   2367181   2367092   2366928   2366661   2366349  
  9240.000000   2366120   2366161   2366684   2367811   2369492  
  9230.000000   2371424   2373105   2374000   2373718   2372180  
  9220.000000   2369635   2366651   2363927   2362087   2361446  
  9210.000000   2361916   2363065   2364255   2364840   2364309  
  9200.000000   2362406   2359177   2354945   2350224   2345606  
  9190.000000   2341668   2338901   2337591   2337771   2339172  
  9180.000000   2341329   2343652   2345603   2346775   2347005  
  9170.000000   2346389   2345232   2343910   2342775   2342094  
  9160.000000   2342093   2342913   2344624   2347160   2350308  
  9150.000000   2353685   2356744   2358890   2359630   2358765  
  9140.000000   2356525   2353487   2350463   2348192   2347152  
  9130.000000   2347380   2348463   2349769   2350626   2350679  
  9120.000000   2349919   2348814   2348040   2348310   2350018  
  9110.000000   2353134   2357149   2361157   2364082   2364924  
  9100.000000   2363103   2358517   2351667   2343487   2335224  
  9090.000000   2328063   2322849   2319919   2319054   2319660  
  9080.000000   2320925   2322199   2323151   2323925   2324955  
  9070.000000   2326760   2329648   2333508   2337819   2341697  
  9060.000000   2344265   2344841   2343274   2339901   2335477  
  9050.000000   2330938   2327129   2324631   2323595   2323848  
  9040.000000   2324953   2326422   2327772   2328660   2328859  
  9030.000000   2328305   2327047   2325218   2323036   2320720  
  9020.000000   2318541   2316656   2315157   2313979   2312988  
  9010.000000   2312028   2310980   2309880   2308893   2308343  
  9000.000000   2308573   2309859   2312293   2315707   2319687  
  8990.000000   2323609   2326807   2328675   2328867   2327339  
  8980.000000   2324418   2320698   2316922   2313814   2311901  
  8970.000000   2311421   2312256   2314026   2316182   2318191  
  8960.000000   2319632   2320314   2320240   2319580   2318536  
  8950.000000   2317299   2315995   2314705   2313507   2312499  
  8940.000000   2311823   2311603   2311891   2312589   2313424  
  8930.000000   2313987   2313837   2312652   2310382   2307284  
  8920.000000   2303899   2300862   2298750   2297878   2298231  
  8910.000000   2299485   2301124   2302656   2303753   2304391  
  8900.000000   2304775   2305266   2306172   2307655   2309639  
  8890.000000   2311840   2313858   2315271   2315788   2315273  
  8880.000000   2313789   2311528   2308756   2305758   2302786  
  8870.000000   2300059   2297713   2295844   2294472   2293584  
  8860.000000   2293108   2292969   2293082   2293369   2293748  
  8850.000000   2294111   2294348   2294309   2293878   2292960  
  8840.000000   2291572   2289841   2288023   2286445   2285439  
  8830.000000   2285263   2286031   2287681   2289970   2292523  
  8820.000000   2294911   2296727   2297681   2297629   2296627  
  8810.000000   2294884   2292735   2290553   2288680   2287366  
  8800.000000   2286736   2286813   2287532   2288788   2290427  
  8790.000000   2292277   2294107   2295653   2296622   2296769  
  8780.000000   2296001   2294410   2292328   2290206   2288526  
  8770.000000   2287618   2287563   2288171   2289055   2289814  
  8760.000000   2290186   2290174   2290016   2290092   2290717  
  8750.000000   2292010   2293794   2295664   2297133   2297815  
  8740.000000   2297592   2296629   2295313   2294079   2293251  
  8730.000000   2292930   2292981   2293118   2293035   2292531  
  8720.000000   2291588   2290362   2289112   2288110   2287543  
  8710.000000   2287480   2287870   2288590   2289498   2290466  
  8700.000000   2291405   2292267   2293029   2293693   2294257  
  8690.000000   2294731   2295146   2295529   2295929   2296345  
  8680.000000   2296747   2297019   2297001   2296514   2295432  
  8670.000000   2293758   2291669   2289522   2287792   2286948  
  8660.000000   2287300   2288892   2291441   2294429   2297228  
  8650.000000   2299311   2300394   2300523   2300027   2299393  
  8640.000000   2299064   2299299   2300092   2301205   2302290  
  8630.000000   2303019   2303198   2302782   2301843   2300515  
  8620.000000   2298919   2297153   2295276   2293371   2291560  
  8610.000000   2290016   2288910   2288372   2288428   2289008  
  8600.000000   2289947   2291047   2292120   2293013   2293633  
  8590.000000   2293892   2293762   2293210   2292294   2291110  
  8580.000000   2289850   2288733   2287977   2287726   2288009  
  8570.000000   2288772   2289904   2291328   2293002   2294946  
  8560.000000   2297169   2299617   2302114   2304374   2306071  
  8550.000000   2306930   2306841   2305891   2304352   2302584  
  8540.000000   2300910   2299549   2298567   2297925   2297518  
  8530.000000   2297265   2297135   2297130   2297234   2297365  
  8520.000000   2297379   2297094   2296370   2295183   2293680  
  8510.000000   2292149   2290949   2290404   2290714   2291899  
  8500.000000   2293790   2296100   2298504   2300694   2302441  
  8490.000000   2303592   2304105   2304005   2303397   2302435  
  8480.000000   2301334   2300318   2299582   2299255   2299377  
  8470.000000   2299904   2300718   2301681   2302668   2303591  
  8460.000000   2304384   2304994   2305367   2305456   2305250  
  8450.000000   2304813   2304314   2304013   2304187   2305042  
  8440.000000   2306607   2308710   2310978   2312962   2314261  
  8430.000000   2314666   2314219   2313188   2311951   2310842  
  8420.000000   2310039   2309507   2309058   2308458   2307557  
  8410.000000   2306377   2305101   2304009   2303327   2303163  
  8400.000000   2303439   2303956   2304486   2304864   2305066  
  8390.000000   2305164   2305273   2305436   2305580   2305556  
  8380.000000   2305200   2304473   2303500   2302607   2302205  
  8370.000000   2302632   2303981   2306026   2308259   2310024  
  8360.000000   2310713   2309939   2307675   2304246   2300247  
  8350.000000   2296352   2293159   2291065   2290214   2290498  
  8340.000000   2291603   2293120   2294628   2295802   2296441  
  8330.000000   2296521   2296181   2295678   2295309   2295279  
  8320.000000   2295676   2296393   2297212   2297828   2297987  
  8310.000000   2297560   2296598   2295317   2294002   2292947  
  8300.000000   2292341   2292269   2292664   2293392   2294268  
  8290.000000   2295133   2295858   2296367   2296621   2296603  
  8280.000000   2296308   2295713   2294793   2293504   2291821  
  8270.000000   2289745   2287341   2284763   2282244   2280082  
  8260.000000   2278546   2277831   2277959   2278798   2280056  
  8250.000000   2281392   2282485   2283127   2283261   2282946  
  8240.000000   2282314   2281477   2280509   2279408   2278153  
  8230.000000   2276720   2275139   2273494   2271901   2270486  
  8220.000000   2269324   2268456   2267851   2267466   2267230  
  8210.000000   2267075   2266927   2266705   2266332   2265742  
  8200.000000   2264914   2263866   2262673   2261421   2260189  
  8190.000000   2259008   2257865   2256725   2255568   2254428  
  8180.000000   2253383   2252546   2251990   2251727   2251659  
  8170.000000   2251631   2251462   2251036   2250334   2249439  
  8160.000000   2248486   2247587   2246771   2245968   2245032  
  8150.000000   2243811   2242219   2240280   2238128   2235953  
  8140.000000   2233930   2232151   2230609   2229212   2227844  
  8130.000000   2226411   2224888   2223317   2221792   2220429  
  8120.000000   2219336   2218594   2218259   2218343   2218820  
  8110.000000   2219597   2220524   2221397   2222001   2222159  
  8100.000000   2221791   2220943   2219784   2218559   2217509  
  8090.000000   2216806   2216489   2216471   2216569   2216576  
  8080.000000   2216310   2215672   2214636   2213253   2211603  
  8070.000000   2209787   2207903   2206047   2204320   2202813  
  8060.000000   2201600   2200704   2200084   2199621   2199150  
  8050.000000   2198506   2197584   2196381   2195016   2193695  
  8040.000000   2192651   2192059   2191979   2192325   2192891  
  8030.000000   2193417   2193677   2193544   2193033   2192267  
  8020.000000   2191423   2190643   2189978   2189359   2188646  
  8010.000000   2187687   2186408   2184865   2183243   2181813  
  8000.000000   2180830   2180450   2180663   2181296   2182056  
  7990.000000   2182628   2182767   2182364   2181473   2180277  
  7980.000000   2179027   2177963   2177247   2176931   2176956  
  7970.000000   2177183   2177437   2177560   2177438   2177030  
  7960.000000   2176355   2175485   2174512   2173517   2172557  
  7950.000000   2171639   2170744   2169827   2168861   2167841  
  7940.000000   2166801   2165809   2164947   2164294   2163899  
  7930.000000   2163777   2163907   2164235   2164692   2165195  
  7920.000000   2165664   2166018   2166201   2166174   2165936  
  7910.000000   2165520   2164990   2164431   2163923   2163528  
  7900.000000   2163275   2163167   2163179   2163274   2163406  
  7890.000000   2163518   2163544   2163396   2162989   2162244  
  7880.000000   2161137   2159706   2158081   2156458   2155068  
  7870.000000   2154128   2153775   2154057   2154896   2156148  
  7860.000000   2157612   2159105   2160481   2161652   2162582  
  7850.000000   2163257   2163670   2163790   2163582   2163003  
  7840.000000   2162043   2160732   2159159   2157465   2155809  
  7830.000000   2154357   2153221   2152471   2152089   2152018  
  7820.000000   2152148   2152364   2152555   2152632   2152535  
  7810.000000   2152228   2151701   2150955   2150019   2148929  
  7800.000000   2147756   2146573   2145466   2144509   2143748  
  7790.000000   2143200   2142841   2142631   2142506   2142421  
  7780.000000   2142335   2142236   2142120   2141993   2141858  
  7770.000000   2141698   2141482   2141154   2140649   2139895  
  7760.000000   2138841   2137469   2135812   2133968   2132085  
  7750.000000   2130344   2128916   2127917   2127373   2127212  
  7740.000000   2127269   2127340   2127236   2126847   2126171  
  7730.000000   2125320   2124480   2123851   2123581   2123708  
  7720.000000   2124155   2124738   2125231   2125418   2125162  
  7710.000000   2124422   2123258   2121799   2120201   2118611  
  7700.000000   2117141   2115862   2114805   2113980   2113377  
  7690.000000   2112971   2112715   2112543   2112367   2112107  
  7680.000000   2111702   2111136   2110446   2109700   2108990  
  7670.000000   2108378   2107893   2107512   2107188   2106860  
  7660.000000   2106495   2106090   2105668   2105261   2104884  
  7650.000000   2104530   2104173   2103794   2103401   2103043  
  7640.000000   2102798   2102737   2102886   2103191   2103521  
  7630.000000   2103697   2103559   2103022   2102116   2100975  
  7620.000000   2099797   2098771   2098013   2097537   2097261  
  7610.000000   2097055   2096791   2096401   2095888   2095314  
  7600.000000   2094755   2094267   2093853   2093474   2093073  
  7590.000000   2092606   2092075   2091523   2091025   2090651  
  7580.000000   2090437   2090368   2090387   2090414   2090376  
  7570.000000   2090233   2089984   2089663   2089316   2088981  
  7560.000000   2088678   2088399   2088126   2087834   2087513  
  7550.000000   2087153   2086761   2086328   2085849   2085304  
  7540.000000   2084681   2083988   2083270   2082611   2082128  
  7530.000000   2081940   2082134   2082736   2083690   2084872  
  7520.000000   2086119   2087259   2088167   2088765   2089049  
  7510.000000   2089050   2088830   2088440   2087937   2087363  
  7500.000000   2086781   2086264   2085897   2085758   2085884  
  7490.000000   2086270   2086852   2087541   2088241   2088888  
  7480.000000   2089466   2089996   2090519   2091053   2091588  
  7470.000000   2092063   2092413   2092574   2092544   2092370  
  7460.000000   2092155   2092012   2092045   2092306   2092791  
  7450.000000   2093453   2094229   2095065   2095937   2096849  
  7440.000000   2097823   2098879   2100019   2101215   2102423  
  7430.000000   2103586   2104655   2105593   2106397   2107083  
  7420.000000   2107690   2108265   2108854   2109493   2110196  
  7410.000000   2110957   2111754   2112548   2113304   2113986  
  7400.000000   2114576   2115068   2115471   2115816   2116147  
  7390.000000   2116526   2117025   2117713   2118637   2119810  
  7380.000000   2121184   2122662   2124112   2125400   2126425  
  7370.000000   2127146   2127587   2127817   2127936   2128028  
  7360.000000   2128156   2128346   2128607   2128937   2129344  
  7350.000000   2129846   2130459   2131192   2132027   2132930  
  7340.000000   2133862   2134795   2135723   2136660   2137621  
  7330.000000   2138609   2139603   2140561   2141436   2142202  
  7320.000000   2142861   2143454   2144032   2144640   2145286  
  7310.000000   2145943   2146553   2147053   2147405   2147610  
  7300.000000   2147707   2147751   2147794   2147867   2147969  
  7290.000000   2148091   2148220   2148371   2148581   2148905  
  7280.000000   2149391   2150064   2150906   2151856   2152820  
  7270.000000   2153696   2154393   2154859   2155089   2155122  
  7260.000000   2155039   2154929   2154883   2154960   2155180  
  7250.000000   2155518   2155920   2156318   2156665   2156942  
  7240.000000   2157183   2157445   2157807   2158325   2159037  
  7230.000000   2159936   2161002   2162194   2163492   2164871  
  7220.000000   2166324   2167827   2169358   2170879   2172369  
  7210.000000   2173816   2175250   2176716   2178283   2179992  
  7200.000000   2181864   2183871   2185967   2188090   2190207  
  7190.000000   2192298   2194383   2196479   2198606   2200749  
  7180.000000   2202881   2204954   2206941   2208828   2210650  
  7170.000000   2212455   2214324   2216316   2218488   2220852  
  7160.000000   2223403   2226100   2228905   2231767   2234666  
  7150.000000   2237591   2240573   2243650   2246887   2250316  
  7140.000000   2253957   2257763   2261671   2265575   2269408  
  7130.000000   2273118   2276725   2280268   2283832   2287470  
  7120.000000   2291231   2295112   2299106   2303191   2307371  
  7110.000000   2311656   2316069   2320608   2325250   2329934  
  7100.000000   2334601   2339199   2343731   2348231   2352775  
  7090.000000   2357421   2362204   2367098   2372051   2376989  
  7080.000000   2381872   2386696   2391509   2396375   2401359  
  7070.000000   2406488   2411751   2417104   2422494   2427876  
  7060.000000   2433224   2438525   2443774   2448957   2454064  
  7050.000000   2459087   2464039   2468947   2473852   2478776  
  7040.000000   2483718   2488644   2493499   2498243   2502868  
  7030.000000   2507423   2511989   2516667   2521515   2526544  
  7020.000000   2531690   2536848   2541900   2546762   2551388  
  7010.000000   2555788   2559992   2564045   2567981   2571831  
  7000.000000   2575622   2579397   2583197   2587065   2591006  
  6990.000000   2594994   2598952   2602803   2606472   2609947  
  6980.000000   2613262   2616509   2619780   2623150   2626619  
  6970.000000   2630137   2633595   2636887   2639925   2642687  
  6960.000000   2645191   2647509   2649705   2651846   2653955  
  6950.000000   2656043   2658089   2660089   2662033   2663943  
  6940.000000   2665830   2667717   2669598   2671461   2673262  
  6930.000000   2674966   2676535   2677964   2679270   2680502  
  6920.000000   2681714   2682962   2684271   2685646   2687052  
  6910.000000   2688449   2689788   2691044   2692199   2693255  
  6900.000000   2694206   2695049   2695772   2696372   2696862  
  6890.000000   2697286   2697703   2698181   2698761   2699453  
  6880.000000   2700217   2700994   2701718   2702359   2702917  
  6870.000000   2703434   2703961   2704533   2705150   2705772  
  6860.000000   2706338   2706795   2707113   2707302   2707402  
  6850.000000   2707467   2707546   2707679   2707884   2708180  
  6840.000000   2708576   2709079   2709678   2710339   2710998  
  6830.000000   2711582   2712023   2712290   2712391   2712380  
  6820.000000   2712323   2712279   2712268   2712285   2712294  
  6810.000000   2712275   2712222   2712164   2712133   2712158  
  6800.000000   2712222   2712283   2712264   2712105   2711774  
  6790.000000   2711286   2710690   2710052   2709418   2708806  
  6780.000000   2708203   2707591   2706955   2706308   2705679  
  6770.000000   2705106   2704608   2704181   2703798   2703425  
  6760.000000   2703035   2702626   2702210   2701806   2701426  
  6750.000000   2701063   2700700   2700322   2699930   2699546  
  6740.000000   2699198   2698915   2698698   2698523   2698342  
  6730.000000   2698112   2697804   2697421   2696985   2696519  
  6720.000000   2696025   2695477   2694822   2694014   2693030  
  6710.000000   2691900   2690693   2689510   2688439   2687536  
  6700.000000   2686803   2686199   2685646   2685068   2684396  
  6690.000000   2683584   2682611   2681477   2680198   2678810  
  6680.000000   2677367   2675939   2674602   2673424   2672446  
  6670.000000   2671681   2671092   2670625   2670194   2669721  
  6660.000000   2669129   2668365   2667396   2666220   2664858  
  6650.000000   2663358   2661778   2660175   2658587   2657025  
  6640.000000   2655468   2653885   2652245   2650553   2648840  
  6630.000000   2647174   2645619   2644226   2642995   2641887  
  6620.000000   2640819   2639703   2638464   2637061   2635491  
  6610.000000   2633776   2631957   2630079   2628183   2626310  
  6600.000000   2624496   2622773   2621154   2619633   2618179  
  6590.000000   2616751   2615306   2613826   2612311   2610785  
  6580.000000   2609275   2607788   2606310   2604801   2603224  
  6570.000000   2601557   2599818   2598061   2596356   2594768  
  6560.000000   2593325   2592018   2590802   2589626   2588449  
  6550.000000   2587259   2586069   2584899   2583758   2582634  
  6540.000000   2581495   2580299   2579022   2577662   2576243  
  6530.000000   2574805   2573391   2572031   2570741   2569527  
  6520.000000   2568386   2567316   2566313   2565366   2564452  
  6510.000000   2563542   2562608   2561633   2560625   2559612  
  6500.000000   2558638   2557739   2556933   2556207   2555524  
  6490.000000   2554834   2554092   2553267   2552346   2551330  
  6480.000000   2550230   2549061   2547843   2546598   2545357  
  6470.000000   2544153   2543010   2541941   2540938   2539985  
  6460.000000   2539060   2538152   2537262   2536403   2535584  
  6450.000000   2534798   2534022   2533216   2532348   2531399  
  6440.000000   2530391   2529364   2528379   2527477   2526678  
  6430.000000   2525965   2525303   2524652   2523989   2523310  
  6420.000000   2522631   2521968   2521334   2520724   2520130  
  6410.000000   2519550   2518995   2518494   2518073   2517747  
  6400.000000   2517504   2517305   2517100   2516845   2516520  
  6390.000000   2516132   2515705   2515260   2514802   2514311  
  6380.000000   2513758   2513117   2512387   2511597   2510801  
  6370.000000   2510056   2509397   2508837   2508354   2507918  
  6360.000000   2507498   2507082   2506667   2506258   2505846  
  6350.000000   2505410   2504921   2504351   2503690   2502957  
  6340.000000   2502188   2501429   2500716   2500069   2499487  
  6330.000000   2498957   2498459   2497983   2497511   2497027  
  6320.000000   2496499   2495895   2495179   2494337   2493377  
  6310.000000   2492335   2491259   2490190   2489145   2488112  
  6300.000000   2487050   2485926   2484712   2483420   2482076  
  6290.000000   2480732   2479423   2478173   2476975   2475810  
  6280.000000   2474644   2473449   2472197   2470870   2469452  
  6270.000000   2467937   2466328   2464647   2462931   2461226  
  6260.000000   2459565   2457965   2456410   2454868   2453293  
  6250.000000   2451666   2449991   2448307   2446660   2445089  
  6240.000000   2443598   2442155   2440704   2439189   2437577  
  6230.000000   2435869   2434092   2432288   2430485   2428690  
  6220.000000   2426894   2425077   2423235   2421382   2419553  
  6210.000000   2417787   2416109   2414525   2413014   2411545  
  6200.000000   2410091   2408637   2407186   2405744   2404312  
  6190.000000   2402879   2401427   2399934   2398398   2396826  
  6180.000000   2395247   2393689   2392174   2390708   2389286  
  6170.000000   2387904   2386567   2385290   2384094   2382990  
  6160.000000   2381965   2380980   2379978   2378904   2377729  
  6150.000000   2376455   2375118   2373770   2372460   2371214  
  6140.000000   2370031   2368892   2367775   2366662   2365551  
  6130.000000   2364444   2363347   2362254   2361154   2360034  
  6120.000000   2358896   2357751   2356628   2355556   2354556  
  6110.000000   2353628   2352756   2351915   2351086   2350262  
  6100.000000   2349456   2348678   2347946   2347253   2346592  
  6090.000000   2345939   2345289   2344644   2344033   2343483  
  6080.000000   2343028   2342676   2342424   2342248   2342128  
  6070.000000   2342041   2341984   2341956   2341969   2342021  
  6060.000000   2342119   2342252   2342428   2342645   2342917  
  6050.000000   2343248   2343645   2344099   2344606   2345155  
  6040.000000   2345757   2346423   2347184   2348059   2349064  
  6030.000000   2350184   2351399   2352668   2353964   2355260  
  6020.000000   2356553   2357834   2359108   2360362   2361591  
  6010.000000   2362784   2363948   2365101   2366279   2367512  
  6000.000000   2368829   2370230   2371705   2373222   2374759  
  5990.000000   2376299   2377848   2379417   2381026   2382686  
  5980.000000   2384404   2386169   2387980   2389828   2391719  
  5970.000000   2393654   2395637   2397658   2399711   2401777  
  5960.000000   2403856   2405945   2408062   2410212   2412408  
  5950.000000   2414640   2416899   2419167   2421444   2423739  
  5940.000000   2426082   2428501   2431022   2433648   2436359  
  5930.000000   2439121   2441893   2444641   2447343   2449989  
  5920.000000   2452574   2455091   2457525   2459863   2462092  
  5910.000000   2464214   2466243   2468203   2470123   2472027  
  5900.000000   2473931   2475845   2477773   2479727   2481713  
  5890.000000   2483744   2485818   2487930   2490062   2492194  
  5880.000000   2494308   2496396   2498455   2500485   2502485  
  5870.000000   2504441   2506339   2508162   2509907   2511587  
  5860.000000   2513231   2514876   2516557   2518291   2520088  
  5850.000000   2521940   2523843   2525795   2527805   2529881  
  5840.000000   2532031   2534250   2536523   2538830   2541157  
  5830.000000   2543495   2545849   2548226   2550628   2553039  
  5820.000000   2555434   2557775   2560031   2562188   2564252  
  5810.000000   2566248   2568203   2570148   2572086   2574030  
  5800.000000   2575959   2577884   2579787   2581691   2583579  
  5790.000000   2585462   2587291   2589033   2590599   2591913  
  5780.000000   2592862   2593362   2593319   2592692   2591467  
  5770.000000   2589704   2587499   2585014   2582405   2579834  
  5760.000000   2577403   2575177   2573149   2571297   2569570  
  5750.000000   2567946   2566407   2564967   2563634   2562421  
  5740.000000   2561327   2560343   2559462   2558672   2557978  
  5730.000000   2557368   2556841   2556365   2555917   2555457  
  5720.000000   2554968   2554437   2553884   2553327   2552800  
  5710.000000   2552320   2551903   2551554   2551282   2551099  
  5700.000000   2551020   2551054   2551194   2551418   2551677  
  5690.000000   2551926   2552115   2552228   2552260   2552237  
  5680.000000   2552179   2552105   2552008   2551869   2551642  
  5670.000000   2551289   2550765   2550044   2549102   2547940  
  5660.000000   2546560   2544995   2543284   2541493   2539686  
  5650.000000   2537931   2536273   2534738   2533324   2532014  
  5640.000000   2530778   2529593   2528440   2527308   2526191  
  5630.000000   2525084   2523989   2522907   2521851   2520833  
  5620.000000   2519869   2518964   2518115   2517299   2516492  
  5610.000000   2515668   2514816   2513942   2513070   2512227  
  5600.000000   2511436   2510708   2510037   2509412   2508815  
  5590.000000   2508237   2507668   2507105   2506533   2505937  
  5580.000000   2505291   2504579   2503793   2502944   2502056  
  5570.000000   2501163   2500286   2499439   2498613   2497791  
  5560.000000   2496949   2496073   2495154   2494193   2493192  
  5550.000000   2492159   2491096   2490012   2488918   2487831  
  5540.000000   2486771   2485752   2484779   2483841   2482919  
  5530.000000   2481996   2481058   2480110   2479162   2478231  
  5520.000000   2477331   2476461   2475613   2474770   2473918  
  5510.000000   2473048   2472156   2471244   2470312   2469361  
  5500.000000   2468391   2467407   2466421   2465452   2464512  
  5490.000000   2463606   2462715   2461805   2460829   2459751  
  5480.000000   2458548   2457231   2455826   2454380   2452928  
  5470.000000   2451494   2450077   2448667   2447237   2445768  
  5460.000000   2444239   2442639   2440953   2439176   2437305  
  5450.000000   2435352   2433345   2431332   2429361   2427478  
  5440.000000   2425708   2424054   2422506   2421044   2419652  
  5430.000000   2418314   2417020   2415744   2414459   2413128  
  5420.000000   2411734   2410276   2408803   2407379   2406095  
  5410.000000   2405004   2404133   2403446   2402889   2402391  
  5400.000000   2401921   2401464   2401052   2400714   2400490  
  5390.000000   2400374   2400363   2400425   2400558   2400765  
  5380.000000   2401091   2401569   2402243   2403106   2404153  
  5370.000000   2405333   2406626   2407988   2409433   2410939  
  5360.000000   2412537   2414209   2415990   2417872   2419927  
  5350.000000   2422187   2424763   2427694   2431065   2434852  
  5340.000000   2439074   2443657   2448611   2453881   2459515  
  5330.000000   2465478   2471828   2478514   2485578   2492962  
  5320.000000   2500735   2508875   2517497   2526604   2536314  
  5310.000000   2546593   2557516   2569011   2581137   2593839  
  5300.000000   2607214   2621256   2636095   2651737   2668297  
  5290.000000   2685732   2704078   2723208   2743069   2763485  
  5280.000000   2784406   2805723   2827494   2849736   2872588  
  5270.000000   2896086   2920276   2945044   2970240   2995630  
  5260.000000   3021030   3046319   3071481   3096577   3121670  
  5250.000000   3146799   3171874   3196763   3221217   3245073  
  5240.000000   3268152   3290467   3312019   3332971   3353376  
  5230.000000   3373367   3392894   3411963   3430409   3448184  
  5220.000000   3465138   3481305   3496640   3511282   3525249  
  5210.000000   3538686   3551559   3563919   3575631   3586682  
  5200.000000   3596937   3606447   3615171   3623248   3630684  
  5190.000000   3637605   3643969   3649831   3655102   3659824  
  5180.000000   3663931   3667499   3670490   3672976   3674901  
  5170.000000   3676306   3677129   3677431   3677202   3676554  
  5160.000000   3675506   3674154   3672475   3670499   3668160  
  5150.000000   3665477   3662418   3659052   3655397   3651537  
  5140.000000   3647478   3643258   3638845   3634249   3629441  
  5130.000000   3624453   3619287   3613993   3608579   3603081  
  5120.000000   3597497   3591853   3586152   3580426   3574684  
  5110.000000   3568950   3563221   3557497   3551763   3546021  
  5100.000000   3540271   3534534   3528828   3523174   3517574  
  5090.000000   3512024   3506505   3501004   3495512   3490032  
  5080.000000   3484569   3479133   3473719   3468321   3462919  
  5070.000000   3457498   3452045   3446564   3441055   3435528  
  5060.000000   3429979   3424402   3418773   3413078   3407300  
  5050.000000   3401441   3395507   3389517   3383484   3377421  
  5040.000000   3371328   3365206   3359055   3352880   3346694  
  5030.000000   3340519   3334376   3328284   3322260   3316309  
  5020.000000   3310440   3304654   3298961   3293361   3287867  
  5010.000000   3282477   3277203   3272035   3266988   3262050  
  5000.000000   3257241   3252555   3248017   3243620   3239394  
  4990.000000   3235331   3231465   3227790   3224346   3221123  
  4980.000000   3218157   3215428   3212965   3210741   3208792  
  4970.000000   3207101   3205717   3204633   3203899   3203491  
  4960.000000   3203443   3203712   3204318   3205218   3206444  
  4950.000000   3207966   3209827   3211999   3214519   3217345  
  4940.000000   3220501   3223944   3227703   3231747   3236115  
  4930.000000   3240782   3245781   3251074   3256677   3262542  
  4920.000000   3268677   3275041   3281651   3288481   3295556  
  4910.000000   3302857   3310406   3318179   3326183   3334379  
  4900.000000   3342750   3351247   3359838   3368480   3377148  
  4890.000000   3385819   3394476   3403112   3411701   3420227  
  4880.000000   3428648   3436941   3445059   3452989   3460695  
  4870.000000   3468176   3475394   3482345   3488983   3495305  
  4860.000000   3501271   3506899   3512177   3517149   3521821  
  4850.000000   3526240   3530408   3534359   3538082   3541609  
  4840.000000   3544933   3548097   3551107   3554012   3556824  
  4830.000000   3559582   3562290   3564968   3567604   3570203  
  4820.000000   3572750   3575246   3577683   3580073   3582419  
  4810.000000   3584741   3587045   3589342   3591626   3593894  
  4800.000000   3596132   3598335   3600497   3602627   3604737  
  4790.000000   3606844   3608960   3611094   3613241   3615396  
  4780.000000   3617541   3619664   3621741   3623763   3625711  
  4770.000000   3627580   3629359   3631053   3632663   3634205  
  4760.000000   3635681   3637106   3638468   3639766   3640976  
  4750.000000   3642088   3643078   3643947   3644683   3645303  
  4740.000000   3645802   3646195   3646473   3646644   3646696  
  4730.000000   3646634   3646453   3646163   3645767   3645281  
  4720.000000   3644712   3644077   3643384   3642654   3641901  
  4710.000000   3641148   3640416   3639726   3639096   3638541  
  4700.000000   3638073   3637698   3637421   3637243   3637167  
  4690.000000   3637190   3637313   3637532   3637844   3638236  
  4680.000000   3638692   3639183   3639681   3640140   3640530  
  4670.000000   3640813   3640984   3641036   3641002   3640912  
  4660.000000   3640823   3640781   3640841   3641042   3641421  
  4650.000000   3641997   3642790   3643799   3645021   3646437  
  4640.000000   3648020   3649731   3651532   3653379   3655241  
  4630.000000   3657090   3658912   3660694   3662430   3664108  
  4620.000000   3665714   3667224   3668611   3669851   3670923  
  4610.000000   3671824   3672558   3673157   3673653   3674096  
  4600.000000   3674516   3674951   3675406   3675887   3676373  
  4590.000000   3676850   3677289   3677678   3677995   3678235  
  4580.000000   3678380   3678430   3678372   3678210   3677943  
  4570.000000   3677588   3677153   3676658   3676103   3675493  
  4560.000000   3674808   3674038   3673159   3672170   3671064  
  4550.000000   3669860   3668569   3667213   3665799   3664335  
  4540.000000   3662818   3661246   3659620   3657947   3656241  
  4530.000000   3654518   3652799   3651094   3649424   3647792  
  4520.000000   3646226   3644726   3643328   3642029   3640867  
  4510.000000   3639832   3638968   3638271   3637813   3637613  
  4500.000000   3637778   3638343   3639418   3641017   3643229  
  4490.000000   3646033   3649496   3653581   3658353   3663773  
  4480.000000   3669898   3676676   3684142   3692221   3700928  
  4470.000000   3710181   3719991   3730283   3741068   3752273  
  4460.000000   3763901   3775872   3788170   3800713   3813475  
  4450.000000   3826382   3839410   3852501   3865635   3878774  
  4440.000000   3891894   3904971   3917975   3930893   3943692  
  4430.000000   3956371   3968895   3981276   3993465   4005471  
  4420.000000   4017223   4028715   4039849   4050605   4060876  
  4410.000000   4070636   4079778   4088285   4096062   4103113  
  4400.000000   4109380   4114907   4119693   4123835   4127386  
  4390.000000   4130480   4133200   4135685   4138011   4140283  
  4380.000000   4142548   4144869   4147264   4149776   4152428  
  4370.000000   4155267   4158338   4161694   4165379   4169421  
  4360.000000   4173833   4178604   4183701   4189087   4194692  
  4350.000000   4200468   4206323   4212228   4218106   4223982  
  4340.000000   4229831   4235710   4241571   4247350   4252799  
  4330.000000   4257582   4261208   4263194   4263108   4260756  
  4320.000000   4256200   4249842   4242292   4234317   4226612  
  4310.000000   4219760   4214064   4209634   4206344   4204003  
  4300.000000   4202358   4201217   4200433   4199915   4199618  
  4290.000000   4199489   4199520   4199668   4199957   4200384  
  4280.000000   4201002   4201835   4202916   4204255   4205840  
  4270.000000   4207663   4209678   4211843   4214039   4216111  
  4260.000000   4217806   4218838   4218894   4217735   4215229  
  4250.000000   4211424   4206524   4200881   4194894   4188975  
  4240.000000   4183428   4178473   4174164   4170484   4167310  
  4230.000000   4164515   4161946   4159482   4157023   4154496  
  4220.000000   4151877   4149155   4146385   4143617   4140964  
  4210.000000   4138503   4136343   4134525   4133101   4132047  
  4200.000000   4131348   4130933   4130758   4130743   4130853  
  4190.000000   4131029   4131270   4131549   4131907   4132340  
  4180.000000   4132912   4133623   4134531   4135626   4136958  
  4170.000000   4138521   4140374   4142528   4145056   4147966  
  4160.000000   4151322   4155101   4159339   4163986   4169062  
  4150.000000   4174511   4180361   4186563   4193154   4200090  
  4140.000000   4207418   4215104   4223209   4231711   4240680  
  4130.000000   4250092   4260001   4270365   4281216   4292502  
  4120.000000   4304248   4316414   4329037   4342091   4355613  
  4110.000000   4369571   4383981   4398784   4413956   4429406  
  4100.000000   4445082   4460890   4476785   4492712   4508672  
  4090.000000   4524670   4540741   4556915   4573212   4589642  
  4080.000000   4606187   4622834   4639540   4656292   4673030  
  4070.000000   4689731   4706305   4722709   4738833   4754645  
  4060.000000   4770054   4785069   4799626   4813759   4827405  
  4050.000000   4840600   4853277   4865489   4877175   4888403  
  4040.000000   4899097   4909302   4918901   4927915   4936221  
  4030.000000   4943860   4950740   4956922   4962331   4967007  
  4020.000000   4970834   4973856   4976034   4977447   4978051  
  4010.000000   4977995   4977364   4976186   4974240   4971598  
  4000.000000   4968604  
##END= 
