##TITLE= Sample 024 By ssteindl date Montag, November 26 2018
##JCAMP-DX= 4.24
##DATA TYPE= INFRARED SPECTRUM
##ORIGIN= Exported PE Spectrum Data File
##OWNER= Sandra Steindl
##DATE= 18/11/26
##TIME= 11:43:29.00
##SPECTROMETER/DATA SYSTEM= PERKIN-ELMER Frontier FT-IR/NIR IR
##INSTRUMENT PARAMETERS=
  APODIZATION=stark
  DETECTOR=INGAAS
##RESOLUTION= 16.000000
##DELTAX= -2.000000
##XUNITS= 1/CM
##YUNITS= A
##XFACTOR= 1.00
##YFACTOR= 0.00000011920928955078
##FIRSTX= 10000.00
##LASTX= 4000.00
##NPOINTS= 3001
##FIRSTY= 0.311895
##MAXY= 0.657093
##MINY= 0.236045
##XYDATA= (X++(Y..Y))
 10000.000000   2616361   2618616   2619243   2616215   2609638  
  9990.000000   2601080   2591738   2582104   2572561   2563615  
  9980.000000   2555449   2548284   2542602   2539170   2538540  
  9970.000000   2540787   2545355   2550943   2555838   2558238  
  9960.000000   2556943   2551523   2542687   2531876   2521075  
  9950.000000   2512147   2506508   2504826   2507003   2512403  
  9940.000000   2520029   2528864   2537927   2546440   2553784  
  9930.000000   2559533   2563491   2565624   2566151   2565301  
  9920.000000   2563383   2560555   2556954   2552702   2548014  
  9910.000000   2543363   2539314   2536613   2535716   2536861  
  9900.000000   2539693   2543562   2547536   2550768   2552629  
  9890.000000   2552785   2551210   2547978   2543267   2537165  
  9880.000000   2529826   2521456   2512509   2503658   2495749  
  9870.000000   2489582   2485702   2484272   2485075   2487621  
  9860.000000   2491318   2495548   2499768   2503474   2506279  
  9850.000000   2507934   2508443   2508137   2507675   2507928  
  9840.000000   2509736   2513608   2519506   2526751   2534178  
  9830.000000   2540412   2544199   2544722   2541702   2535476  
  9820.000000   2526831   2516913   2507010   2498407   2492166  
  9810.000000   2488942   2488775   2491041   2494490   2497588  
  9800.000000   2498866   2497440   2493241   2487092   2480457  
  9790.000000   2474929   2471830   2471725   2474442   2479101  
  9780.000000   2484484   2489336   2492644   2493849   2492915  
  9770.000000   2490335   2487054   2484239   2483011   2484057  
  9760.000000   2487334   2491954   2496385   2498953   2498482  
  9750.000000   2494837   2489037   2482987   2478691   2477511  
  9740.000000   2479528   2483536   2487545   2489600   2488639  
  9730.000000   2484830   2479447   2474220   2470540   2468943  
  9720.000000   2468962   2469552   2469684   2468913   2467568  
  9710.000000   2466523   2466643   2468295   2471074   2474004  
  9700.000000   2475977   2476251   2474773   2472057   2468912  
  9690.000000   2465922   2463272   2460723   2457957   2454881  
  9680.000000   2451806   2449353   2448113   2448356   2449800  
  9670.000000   2451807   2453614   2454796   2455389   2455881  
  9660.000000   2456880   2458727   2461268   2463793   2465367  
  9650.000000   2465153   2462824   2458640   2453338   2447801  
  9640.000000   2442713   2438444   2435028   2432453   2430728  
  9630.000000   2430029   2430490   2432079   2434419   2436821  
  9620.000000   2438470   2438677   2437156   2434039   2429862  
  9610.000000   2425234   2420713   2416585   2412972   2409919  
  9600.000000   2407538   2406070   2405756   2406734   2408844  
  9590.000000   2411680   2414661   2417276   2419242   2420549  
  9580.000000   2421404   2421978   2422326   2422231   2421390  
  9570.000000   2419528   2416641   2413043   2409303   2406071  
  9560.000000   2403822   2402781   2402831   2403699   2405040  
  9550.000000   2406604   2408247   2409863   2411327   2412384  
  9540.000000   2412724   2412034   2410174   2407254   2403659  
  9530.000000   2399977   2396842   2394820   2394262   2395300  
  9520.000000   2397766   2401255   2405118   2408581   2410883  
  9510.000000   2411435   2410003   2406747   2402214   2397168  
  9500.000000   2392383   2388447   2385621   2383873   2382963  
  9490.000000   2382647   2382739   2383172   2383871   2384671  
  9480.000000   2385253   2385190   2384115   2381824   2378463  
  9470.000000   2374436   2370387   2366928   2364518   2363323  
  9460.000000   2363229   2363964   2365208   2366745   2368451  
  9450.000000   2370301   2372262   2374264   2376164   2377777  
  9440.000000   2378916   2379425   2379222   2378286   2376697  
  9430.000000   2374588   2372161   2369642   2367233   2365076  
  9420.000000   2363169   2361395   2359540   2357422   2354988  
  9410.000000   2352393   2349968   2348104   2347098   2347000  
  9400.000000   2347592   2348437   2349077   2349204   2348799  
  9390.000000   2348132   2347627   2347700   2348554   2350163  
  9380.000000   2352255   2354478   2356499   2358087   2359146  
  9370.000000   2359591   2359336   2358176   2355916   2352395  
  9360.000000   2347659   2341967   2335802   2329787   2324564  
  9350.000000   2320716   2318642   2318556   2320406   2323950  
  9340.000000   2328703   2334040   2339217   2343519   2346396  
  9330.000000   2347595   2347256   2345820   2343925   2342166  
  9320.000000   2340935   2340304   2339996   2339563   2338519  
  9310.000000   2336620   2333886   2330628   2327284   2324261  
  9300.000000   2321789   2319791   2317925   2315661   2312533  
  9290.000000   2308311   2303151   2297595   2292455   2288666  
  9280.000000   2287004   2287918   2291320   2296629   2302894  
  9270.000000   2309021   2314074   2317371   2318681   2318084  
  9260.000000   2315966   2312778   2308966   2304861   2300711  
  9250.000000   2296761   2293308   2290764   2289545   2289993  
  9240.000000   2292155   2295759   2300129   2304311   2307238  
  9230.000000   2308031   2306304   2302263   2296727   2290849  
  9220.000000   2285875   2282790   2282074   2283565   2286521  
  9210.000000   2289935   2292847   2294643   2295118   2294485  
  9200.000000   2293208   2291789   2290581   2289669   2288972  
  9190.000000   2288275   2287439   2286397   2285219   2284044  
  9180.000000   2282992   2282164   2281566   2281255   2281291  
  9170.000000   2281816   2282913   2284566   2286609   2288707  
  9160.000000   2290469   2291467   2291424   2290207   2287893  
  9150.000000   2284647   2280664   2276185   2271529   2267169  
  9140.000000   2263680   2261722   2261834   2264265   2268731  
  9130.000000   2274397   2280017   2284275   2286165   2285243  
  9120.000000   2281780   2276655   2271113   2266330   2263077  
  9110.000000   2261615   2261747   2263008   2264797   2266607  
  9100.000000   2268090   2269073   2269421   2269009   2267701  
  9090.000000   2265412   2262189   2258212   2253843   2249537  
  9080.000000   2245790   2243000   2241375   2240957   2241600  
  9070.000000   2243048   2244925   2246844   2248473   2249542  
  9060.000000   2249888   2249416   2248178   2246286   2243935  
  9050.000000   2241322   2238684   2236268   2234336   2233133  
  9040.000000   2232824   2233480   2234989   2237084   2239321  
  9030.000000   2241208   2242318   2242395   2241435   2239657  
  9020.000000   2237467   2235276   2233398   2231954   2230894  
  9010.000000   2230057   2229252   2228383   2227468   2226678  
  9000.000000   2226195   2226190   2226678   2227557   2228602  
  8990.000000   2229532   2230118   2230176   2229651   2228514  
  8980.000000   2226794   2224496   2221646   2218316   2214682  
  8970.000000   2211085   2208002   2205976   2205443   2206617  
  8960.000000   2209354   2213158   2217246   2220757   2222978  
  8950.000000   2223532   2222470   2220201   2217397   2214744  
  8940.000000   2212810   2211856   2211840   2212438   2213198  
  8930.000000   2213671   2213523   2212640   2211115   2209257  
  8920.000000   2207467   2206161   2205643   2206025   2207198  
  8910.000000   2208831   2210491   2211742   2212296   2212074  
  8900.000000   2211209   2209992   2208743   2207734   2207101  
  8890.000000   2206850   2206899   2207138   2207485   2207872  
  8880.000000   2208228   2208439   2208351   2207804   2206699  
  8870.000000   2205056   2203053   2200990   2199214   2198010  
  8860.000000   2197508   2197682   2198370   2199369   2200483  
  8850.000000   2201584   2202590   2203435   2204032   2204261  
  8840.000000   2204025   2203275   2202083   2200603   2199066  
  8830.000000   2197671   2196539   2195683   2195022   2194479  
  8820.000000   2194015   2193700   2193643   2193971   2194714  
  8810.000000   2195785   2196979   2198023   2198686   2198818  
  8800.000000   2198407   2197518   2196269   2194772   2193124  
  8790.000000   2191437   2189855   2188588   2187877   2187934  
  8780.000000   2188840   2190484   2192537   2194528   2195955  
  8770.000000   2196434   2195826   2194263   2192151   2190001  
  8760.000000   2188338   2187501   2187612   2188513   2189859  
  8750.000000   2191216   2192204   2192624   2192505   2192105  
  8740.000000   2191810   2192045   2193116   2195136   2197953  
  8730.000000   2201211   2204437   2207184   2209127   2210135  
  8720.000000   2210262   2209712   2208750   2207622   2206484  
  8710.000000   2205388   2204293   2203105   2201723   2200088  
  8700.000000   2198205   2196170   2194135   2192297   2190830  
  8690.000000   2189851   2189375   2189311   2189522   2189848  
  8680.000000   2190197   2190556   2191007   2191671   2192637  
  8670.000000   2193918   2195431   2197033   2198581   2199977  
  8660.000000   2201217   2202338   2203388   2204327   2205027  
  8650.000000   2205275   2204875   2203718   2201872   2199582  
  8640.000000   2197224   2195196   2193810   2193231   2193454  
  8630.000000   2194352   2195711   2197312   2198957   2200493  
  8620.000000   2201819   2202875   2203685   2204326   2204955  
  8610.000000   2205726   2206757   2208051   2209486   2210858  
  8600.000000   2211953   2212679   2213112   2213509   2214189  
  8590.000000   2215411   2217217   2219374   2221406   2222749  
  8580.000000   2222952   2221842   2219588   2216665   2213704  
  8570.000000   2211313   2209904   2209621   2210336   2211742  
  8560.000000   2213454   2215114   2216454   2217317   2217657  
  8550.000000   2217525   2217061   2216456   2215948   2215728  
  8540.000000   2215934   2216569   2217542   2218676   2219791  
  8530.000000   2220756   2221539   2222217   2222923   2223792  
  8520.000000   2224885   2226174   2227558   2228896   2230082  
  8510.000000   2231055   2231830   2232457   2232976   2233401  
  8500.000000   2233690   2233809   2233731   2233530   2233357  
  8490.000000   2233431   2233956   2235044   2236643   2238504  
  8480.000000   2240208   2241284   2241347   2240231   2238062  
  8470.000000   2235262   2232459   2230309   2229299   2229614  
  8460.000000   2231088   2233259   2235507   2237261   2238162  
  8450.000000   2238151   2237433   2236392   2235450   2234929  
  8440.000000   2234979   2235558   2236521   2237649   2238747  
  8430.000000   2239653   2240270   2240548   2240465   2240055  
  8420.000000   2239398   2238648   2237991   2237630   2237721  
  8410.000000   2238344   2239453   2240901   2242465   2243909  
  8400.000000   2245017   2245631   2245658   2245081   2243950  
  8390.000000   2242380   2240541   2238642   2236910   2235536  
  8380.000000   2234622   2234162   2234030   2234039   2233980  
  8370.000000   2233715   2233203   2232519   2231805   2231209  
  8360.000000   2230823   2230642   2230574   2230478   2230228  
  8350.000000   2229757   2229089   2228317   2227574   2226979  
  8340.000000   2226592   2226394   2226297   2226173   2225896  
  8330.000000   2225374   2224580   2223555   2222404   2221271  
  8320.000000   2220297   2219601   2219248   2219243   2219527  
  8310.000000   2219991   2220493   2220887   2221043   2220870  
  8300.000000   2220327   2219439   2218300   2217046   2215840  
  8290.000000   2214816   2214061   2213579   2213276   2213005  
  8280.000000   2212598   2211972   2211138   2210244   2209503  
  8270.000000   2209135   2209271   2209876   2210726   2211444  
  8260.000000   2211625   2210952   2209315   2206838   2203854  
  8250.000000   2200813   2198148   2196188   2195054   2194701  
  8240.000000   2194929   2195503   2196186   2196808   2197253  
  8230.000000   2197444   2197306   2196750   2195692   2194076  
  8220.000000   2191932   2189373   2186621   2183945   2181613  
  8210.000000   2179825   2178658   2178076   2177915   2177979  
  8200.000000   2178045   2177955   2177603   2176964   2176059  
  8190.000000   2174941   2173676   2172307   2170880   2169409  
  8180.000000   2167904   2166348   2164722   2163002   2161175  
  8170.000000   2159273   2157370   2155603   2154132   2153103  
  8160.000000   2152588   2152551   2152832   2153184   2153332  
  8150.000000   2153050   2152234   2150924   2149301   2147601  
  8140.000000   2146049   2144759   2143728   2142833   2141904  
  8130.000000   2140799   2139456   2137939   2136385   2134982  
  8120.000000   2133870   2133117   2132680   2132434   2132211  
  8110.000000   2131847   2131225   2130275   2128983   2127366  
  8100.000000   2125465   2123334   2121054   2118729   2116492  
  8090.000000   2114480   2112814   2111563   2110724   2110226  
  8080.000000   2109944   2109753   2109545   2109273   2108939  
  8070.000000   2108581   2108242   2107944   2107674   2107377  
  8060.000000   2106988   2106430   2105660   2104648   2103410  
  8050.000000   2101971   2100384   2098703   2096992   2095316  
  8040.000000   2093735   2092310   2091090   2090127   2089458  
  8030.000000   2089120   2089125   2089465   2090080   2090857  
  8020.000000   2091630   2092207   2092414   2092134   2091360  
  8010.000000   2090182   2088784   2087371   2086117   2085103  
  8000.000000   2084307   2083618   2082887   2081992   2080873  
  7990.000000   2079570   2078186   2076875   2075772   2074977  
  7980.000000   2074525   2074384   2074476   2074672   2074833  
  7970.000000   2074806   2074470   2073740   2072612   2071162  
  7960.000000   2069552   2067987   2066681   2065780   2065342  
  7950.000000   2065309   2065538   2065843   2066048   2066038  
  7940.000000   2065769   2065280   2064655   2064007   2063442  
  7930.000000   2063038   2062841   2062835   2062958   2063090  
  7920.000000   2063082   2062789   2062118   2061067   2059737  
  7910.000000   2058324   2057048   2056102   2055576   2055447  
  7900.000000   2055584   2055817   2055996   2056036   2055933  
  7890.000000   2055723   2055443   2055076   2054554   2053773  
  7880.000000   2052667   2051253   2049668   2048147   2046960  
  7870.000000   2046333   2046370   2047032   2048130   2049411  
  7860.000000   2050602   2051498   2051984   2052049   2051757  
  7850.000000   2051216   2050544   2049836   2049157   2048523  
  7840.000000   2047910   2047255   2046482   2045530   2044382  
  7830.000000   2043091   2041769   2040581   2039670   2039138  
  7820.000000   2038982   2039116   2039386   2039638   2039765  
  7810.000000   2039745   2039632   2039520   2039483   2039529  
  7800.000000   2039584   2039512   2039171   2038465   2037392  
  7790.000000   2036042   2034564   2033120   2031823   2030715  
  7780.000000   2029765   2028903   2028055   2027182   2026289  
  7770.000000   2025412   2024595   2023863   2023216   2022633  
  7760.000000   2022100   2021619   2021228   2020982   2020930  
  7750.000000   2021097   2021451   2021920   2022403   2022807  
  7740.000000   2023066   2023154   2023076   2022837   2022426  
  7730.000000   2021800   2020894   2019653   2018071   2016211  
  7720.000000   2014215   2012274   2010576   2009261   2008370  
  7710.000000   2007855   2007580   2007389   2007144   2006769  
  7700.000000   2006262   2005679   2005108   2004621   2004250  
  7690.000000   2003976   2003739   2003459   2003076   2002559  
  7680.000000   2001924   2001219   2000500   1999810   1999162  
  7670.000000   1998535   1997888   1997177   1996381   1995509  
  7660.000000   1994609   1993741   1992966   1992315   1991785  
  7650.000000   1991341   1990935   1990536   1990148   1989818  
  7640.000000   1989619   1989620   1989856   1990296   1990846  
  7630.000000   1991356   1991669   1991657   1991270   1990538  
  7620.000000   1989570   1988521   1987550   1986785   1986295  
  7610.000000   1986080   1986078   1986188   1986298   1986313  
  7600.000000   1986171   1985862   1985419   1984905   1984399  
  7590.000000   1983968   1983661   1983483   1983413   1983397  
  7580.000000   1983383   1983321   1983183   1982961   1982664  
  7570.000000   1982318   1981958   1981628   1981379   1981259  
  7560.000000   1981308   1981538   1981931   1982423   1982925  
  7550.000000   1983322   1983517   1983443   1983096   1982523  
  7540.000000   1981823   1981117   1980530   1980164   1980092  
  7530.000000   1980339   1980887   1981673   1982609   1983589  
  7520.000000   1984512   1985298   1985909   1986346   1986660  
  7510.000000   1986921   1987208   1987583   1988089   1988737  
  7500.000000   1989525   1990429   1991416   1992437   1993427  
  7490.000000   1994309   1995007   1995461   1995660   1995649  
  7480.000000   1995538   1995463   1995562   1995920   1996554  
  7470.000000   1997396   1998326   1999210   1999951   2000521  
  7460.000000   2000975   2001427   2002020   2002871   2004035  
  7450.000000   2005486   2007128   2008816   2010407   2011791  
  7440.000000   2012936   2013884   2014744   2015640   2016685  
  7430.000000   2017920   2019313   2020757   2022115   2023263  
  7420.000000   2024149   2024809   2025367   2025993   2026845  
  7410.000000   2028023   2029533   2031292   2033163   2034996  
  7400.000000   2036678   2038156   2039441   2040588   2041672  
  7390.000000   2042761   2043905   2045126   2046427   2047790  
  7380.000000   2049187   2050580   2051932   2053221   2054447  
  7370.000000   2055646   2056869   2058179   2059617   2061181  
  7360.000000   2062827   2064475   2066037   2067448   2068688  
  7350.000000   2069786   2070797   2071781   2072774   2073781  
  7340.000000   2074783   2075765   2076733   2077723   2078786  
  7330.000000   2079962   2081256   2082623   2083980   2085235  
  7320.000000   2086323   2087231   2088002   2088715   2089461  
  7310.000000   2090311   2091294   2092407   2093618   2094900  
  7300.000000   2096232   2097607   2099016   2100436   2101822  
  7290.000000   2103114   2104249   2105188   2105923   2106482  
  7280.000000   2106916   2107286   2107646   2108035   2108472  
  7270.000000   2108973   2109542   2110188   2110915   2111719  
  7260.000000   2112587   2113482   2114364   2115181   2115895  
  7250.000000   2116482   2116953   2117339   2117709   2118137  
  7240.000000   2118713   2119501   2120548   2121857   2123406  
  7230.000000   2125140   2127006   2128943   2130920   2132909  
  7220.000000   2134909   2136907   2138904   2140879   2142838  
  7210.000000   2144775   2146727   2148731   2150854   2153139  
  7200.000000   2155626   2158309   2161165   2164147   2167216  
  7190.000000   2170340   2173521   2176764   2180095   2183512  
  7180.000000   2187005   2190520   2194002   2197369   2200572  
  7170.000000   2203571   2206393   2209090   2211772   2214545  
  7160.000000   2217522   2220759   2224279   2228042   2231992  
  7150.000000   2236049   2240172   2244334   2248565   2252899  
  7140.000000   2257388   2262038   2266838   2271727   2276659  
  7130.000000   2281583   2286514   2291482   2296574   2301845  
  7120.000000   2307346   2313046   2318885   2324749   2330546  
  7110.000000   2336201   2341717   2347139   2352577   2358139  
  7100.000000   2363933   2370010   2376378   2382975   2389706  
  7090.000000   2396446   2403095   2409575   2415867   2421991  
  7080.000000   2428015   2434008   2440043   2446159   2452380  
  7070.000000   2458702   2465126   2471653   2478297   2485057  
  7060.000000   2491916   2498825   2505707   2512482   2519101  
  7050.000000   2525563   2531929   2538299   2544771   2551402  
  7040.000000   2558179   2565025   2571825   2578471   2584902  
  7030.000000   2591114   2597156   2603097   2608990   2614858  
  7020.000000   2620689   2626467   2632178   2637849   2643519  
  7010.000000   2649243   2655041   2660912   2666800   2672648  
  7000.000000   2678387   2683986   2689424   2694711   2699843  
  6990.000000   2704816   2709597   2714170   2718518   2722668  
  6980.000000   2726659   2730558   2734409   2738255   2742092  
  6970.000000   2745918   2749698   2753420   2757055   2760599  
  6960.000000   2764029   2767347   2770551   2773677   2776769  
  6950.000000   2779899   2783111   2786434   2789829   2793222  
  6940.000000   2796497   2799556   2802322   2804781   2806954  
  6930.000000   2808898   2810659   2812281   2813780   2815175  
  6920.000000   2816486   2817759   2819038   2820369   2821762  
  6910.000000   2823206   2824656   2826075   2827433   2828738  
  6900.000000   2830012   2831295   2832603   2833939   2835275  
  6890.000000   2836589   2837866   2839118   2840367   2841638  
  6880.000000   2842924   2844192   2845381   2846431   2847305  
  6870.000000   2848012   2848601   2849139   2849682   2850250  
  6860.000000   2850822   2851353   2851796   2852139   2852407  
  6850.000000   2852674   2853023   2853534   2854241   2855139  
  6840.000000   2856171   2857258   2858307   2859236   2859991  
  6830.000000   2860547   2860915   2861132   2861255   2861343  
  6820.000000   2861441   2861577   2861743   2861925   2862097  
  6810.000000   2862255   2862409   2862590   2862821   2863114  
  6800.000000   2863436   2863727   2863900   2863884   2863636  
  6790.000000   2863166   2862529   2861810   2861096   2860458  
  6780.000000   2859932   2859527   2859222   2858990   2858797  
  6770.000000   2858613   2858413   2858179   2857899   2857575  
  6760.000000   2857218   2856841   2856461   2856083   2855707  
  6750.000000   2855327   2854940   2854555   2854189   2853865  
  6740.000000   2853594   2853375   2853183   2852988   2852759  
  6730.000000   2852486   2852179   2851861   2851548   2851235  
  6720.000000   2850887   2850450   2849876   2849143   2848274  
  6710.000000   2847335   2846407   2845565   2844850   2844268  
  6700.000000   2843792   2843389   2843028   2842699   2842387  
  6690.000000   2842083   2841751   2841348   2840825   2840153  
  6680.000000   2839332   2838391   2837373   2836311   2835213  
  6670.000000   2834060   2832819   2831473   2830029   2828536  
  6660.000000   2827059   2825659   2824361   2823151   2821972  
  6650.000000   2820762   2819469   2818076   2816595   2815065  
  6640.000000   2813517   2811980   2810460   2808963   2807492  
  6630.000000   2806064   2804692   2803389   2802140   2800914  
  6620.000000   2799661   2798340   2796921   2795410   2793828  
  6610.000000   2792206   2790566   2788909   2787221   2785483  
  6600.000000   2783682   2781825   2779930   2778029   2776149  
  6590.000000   2774312   2772536   2770839   2769236   2767740  
  6580.000000   2766341   2765005   2763667   2762249   2760688  
  6570.000000   2758958   2757091   2755170   2753303   2751584  
  6560.000000   2750060   2748713   2747475   2746250   2744953  
  6550.000000   2743540   2742008   2740388   2738723   2737046  
  6540.000000   2735373   2733706   2732048   2730412   2728824  
  6530.000000   2727314   2725908   2724611   2723411   2722280  
  6520.000000   2721189   2720114   2719043   2717973   2716905  
  6510.000000   2715837   2714767   2713694   2712620   2711550  
  6500.000000   2710488   2709427   2708351   2707232   2706050  
  6490.000000   2704795   2703487   2702163   2700867   2699636  
  6480.000000   2698481   2697386   2696318   2695246   2694155  
  6470.000000   2693056   2691976   2690945   2689977   2689066  
  6460.000000   2688187   2687308   2686410   2685485   2684546  
  6450.000000   2683605   2682675   2681750   2680823   2679881  
  6440.000000   2678932   2677990   2677085   2676241   2675471  
  6430.000000   2674767   2674116   2673499   2672917   2672381  
  6420.000000   2671915   2671531   2671225   2670960   2670690  
  6410.000000   2670363   2669955   2669466   2668931   2668397  
  6400.000000   2667908   2667492   2667154   2666888   2666678  
  6390.000000   2666517   2666399   2666317   2666252   2666172  
  6380.000000   2666037   2665808   2665461   2664998   2664444  
  6370.000000   2663836   2663211   2662593   2661996   2661424  
  6360.000000   2660880   2660374   2659917   2659517   2659165  
  6350.000000   2658842   2658510   2658136   2657693   2657177  
  6340.000000   2656598   2655976   2655327   2654658   2653961  
  6330.000000   2653225   2652434   2651589   2650694   2649766  
  6320.000000   2648818   2647866   2646914   2645978   2645061  
  6310.000000   2644180   2643334   2642521   2641719   2640895  
  6300.000000   2640009   2639035   2637953   2636768   2635489  
  6290.000000   2634130   2632694   2631183   2629591   2627931  
  6280.000000   2626228   2624529   2622877   2621308   2619823  
  6270.000000   2618398   2616978   2615511   2613960   2612321  
  6260.000000   2610617   2608893   2607192   2605539   2603934  
  6250.000000   2602360   2600787   2599192   2597564   2595908  
  6240.000000   2594234   2592563   2590904   2589269   2587658  
  6230.000000   2586067   2584487   2582903   2581297   2579658  
  6220.000000   2577977   2576264   2574538   2572829   2571162  
  6210.000000   2569550   2567984   2566441   2564887   2563296  
  6200.000000   2561655   2559976   2558281   2556601   2554959  
  6190.000000   2553368   2551827   2550331   2548875   2547458  
  6180.000000   2546078   2544733   2543413   2542103   2540792  
  6170.000000   2539471   2538147   2536836   2535559   2534329  
  6160.000000   2533148   2532001   2530862   2529708   2528522  
  6150.000000   2527303   2526060   2524809   2523564   2522335  
  6140.000000   2521125   2519934   2518766   2517621   2516502  
  6130.000000   2515401   2514307   2513203   2512076   2510923  
  6120.000000   2509762   2508619   2507534   2506534   2505640  
  6110.000000   2504847   2504144   2503503   2502906   2502335  
  6100.000000   2501786   2501252   2500740   2500248   2499787  
  6090.000000   2499363   2498999   2498708   2498509   2498397  
  6080.000000   2498368   2498393   2498451   2498517   2498591  
  6070.000000   2498674   2498792   2498961   2499209   2499546  
  6060.000000   2499987   2500527   2501171   2501902   2502714  
  6050.000000   2503579   2504484   2505408   2506359   2507349  
  6040.000000   2508412   2509571   2510846   2512225   2513685  
  6030.000000   2515182   2516688   2518183   2519684   2521213  
  6020.000000   2522806   2524474   2526215   2527993   2529775  
  6010.000000   2531526   2533240   2534925   2536618   2538345  
  6000.000000   2540135   2541988   2543905   2545867   2547876  
  5990.000000   2549927   2552038   2554211   2556460   2558782  
  5980.000000   2561186   2563676   2566273   2568990   2571844  
  5970.000000   2574824   2577904   2581029   2584150   2587217  
  5960.000000   2590218   2593156   2596064   2598973   2601916  
  5950.000000   2604904   2607944   2611033   2614179   2617393  
  5940.000000   2620688   2624073   2627539   2631067   2634627  
  5930.000000   2638193   2641750   2645300   2648845   2652383  
  5920.000000   2655891   2659328   2662640   2665778   2668718  
  5910.000000   2671463   2674043   2676501   2678878   2681206  
  5900.000000   2683498   2685771   2688037   2690329   2692675  
  5890.000000   2695112   2697652   2700292   2702999   2705733  
  5880.000000   2708449   2711114   2713700   2716191   2718572  
  5870.000000   2720828   2722949   2724933   2726797   2728575  
  5860.000000   2730314   2732060   2733849   2735698   2737612  
  5850.000000   2739593   2741646   2743783   2746022   2748370  
  5840.000000   2750818   2753335   2755882   2758418   2760923  
  5830.000000   2763393   2765850   2768316   2770809   2773323  
  5820.000000   2775843   2778340   2780798   2783218   2785613  
  5810.000000   2788008   2790416   2792842   2795262   2797666  
  5800.000000   2800026   2802359   2804662   2806974   2809281  
  5790.000000   2811582   2813805   2815885   2817704   2819173  
  5780.000000   2820175   2820639   2820489   2819707   2818291  
  5770.000000   2816316   2813883   2811161   2808310   2805505  
  5760.000000   2802856   2800447   2798284   2796361   2794631  
  5750.000000   2793068   2791634   2790308   2789059   2787859  
  5740.000000   2786678   2785494   2784306   2783123   2781974  
  5730.000000   2780870   2779821   2778801   2777783   2776732  
  5720.000000   2775641   2774522   2773421   2772382   2771450  
  5710.000000   2770639   2769946   2769346   2768816   2768338  
  5700.000000   2767911   2767533   2767203   2766911   2766637  
  5690.000000   2766363   2766080   2765801   2765540   2765323  
  5680.000000   2765148   2765000   2764830   2764584   2764195  
  5670.000000   2763621   2762821   2761779   2760476   2758908  
  5660.000000   2757072   2754993   2752715   2750319   2747894  
  5650.000000   2745534   2743299   2741219   2739277   2737440  
  5640.000000   2735661   2733913   2732186   2730493   2728853  
  5630.000000   2727287   2725807   2724414   2723110   2721885  
  5620.000000   2720739   2719654   2718618   2717600   2716576  
  5610.000000   2715523   2714443   2713349   2712277   2711259  
  5600.000000   2710322   2709468   2708687   2707949   2707228  
  5590.000000   2706503   2705762   2704997   2704202   2703371  
  5580.000000   2702495   2701575   2700620   2699650   2698687  
  5570.000000   2697747   2696827   2695906   2694951   2693935  
  5560.000000   2692845   2691692   2690502   2689310   2688139  
  5550.000000   2686995   2685869   2684746   2683615   2682482  
  5540.000000   2681362   2680273   2679225   2678212   2677214  
  5530.000000   2676208   2675175   2674115   2673039   2671963  
  5520.000000   2670898   2669840   2668776   2667689   2666567  
  5510.000000   2665414   2664243   2663074   2661916   2660773  
  5500.000000   2659630   2658477   2657302   2656107   2654894  
  5490.000000   2653667   2652412   2651104   2649707   2648197  
  5480.000000   2646563   2644829   2643032   2641223   2639437  
  5470.000000   2637690   2635969   2634251   2632507   2630725  
  5460.000000   2628897   2627029   2625119   2623168   2621167  
  5450.000000   2619118   2617032   2614939   2612872   2610863  
  5440.000000   2608928   2607061   2605249   2603474   2601736  
  5430.000000   2600042   2598413   2596847   2595337   2593844  
  5420.000000   2592338   2590796   2589242   2587724   2586329  
  5410.000000   2585119   2584136   2583357   2582734   2582191  
  5400.000000   2581686   2581190   2580735   2580348   2580085  
  5390.000000   2579958   2579984   2580141   2580432   2580847  
  5380.000000   2581419   2582152   2583075   2584162   2585414  
  5370.000000   2586786   2588287   2589902   2591680   2593623  
  5360.000000   2595781   2598127   2600686   2603417   2606367  
  5350.000000   2609536   2613025   2616864   2621154   2625884  
  5340.000000   2631099   2636734   2642818   2649289   2656197  
  5330.000000   2663491   2671227   2679342   2687889   2696815  
  5320.000000   2706213   2716077   2726550   2737637   2749470  
  5310.000000   2762000   2775301   2789275   2803979   2819340  
  5300.000000   2835459   2852318   2870061   2888689   2908332  
  5290.000000   2928950   2950594   2973137   2996532   3020593  
  5280.000000   3045265   3070424   3096124   3122374   3149315  
  5270.000000   3176979   3205405   3234463   3263976   3293693  
  5260.000000   3323409   3353006   3382472   3411886   3441313  
  5250.000000   3470789   3500195   3529366   3558004   3585926  
  5240.000000   3612931   3639053   3664300   3688870   3712821  
  5230.000000   3736302   3759240   3781633   3803282   3824136  
  5220.000000   3844029   3863016   3881061   3898339   3914882  
  5210.000000   3930861   3946235   3961056   3975159   3988525  
  5200.000000   4000992   4012621   4023370   4033403   4042728  
  5190.000000   4051483   4059602   4067129   4073941   4080074  
  5180.000000   4085454   4090188   4094266   4097810   4100787  
  5170.000000   4103266   4105174   4106563   4107386   4107731  
  5160.000000   4107586   4107037   4106049   4104663   4102814  
  5150.000000   4100536   4097798   4094674   4091171   4087374  
  5140.000000   4083276   4078925   4074288   4069400   4064248  
  5130.000000   4058886   4053323   4047614   4041758   4035783  
  5120.000000   4029673   4023458   4017142   4010777   4004386  
  5110.000000   3998008   3991643   3985293   3978931   3972551  
  5100.000000   3966146   3959737   3953345   3947001   3940716  
  5090.000000   3934496   3928328   3922204   3916112   3910057  
  5080.000000   3904041   3898073   3892144   3886243   3880339  
  5070.000000   3874410   3868427   3862380   3856258   3850066  
  5060.000000   3843802   3837475   3831080   3824628   3818117  
  5050.000000   3811557   3804946   3798290   3791578   3784808  
  5040.000000   3777967   3771059   3764086   3757062   3749998  
  5030.000000   3742908   3735799   3728678   3721555   3714444  
  5020.000000   3707372   3700366   3693461   3686673   3680022  
  5010.000000   3673502   3667119   3660858   3654736   3648752  
  5000.000000   3642939   3637299   3631867   3626630   3621610  
  4990.000000   3616787   3612189   3607806   3603681   3599810  
  4980.000000   3596239   3592953   3589991   3587328   3585006  
  4970.000000   3583000   3581360   3580060   3579138   3578552  
  4960.000000   3578327   3578412   3578844   3579595   3580730  
  4950.000000   3582241   3584197   3586572   3589404   3592629  
  4940.000000   3596259   3600221   3604536   3609154   3614117  
  4930.000000   3619394   3625033   3631002   3637340   3644013  
  4920.000000   3651053   3658425   3666155   3674197   3682560  
  4910.000000   3691190   3700085   3709198   3718531   3728056  
  4900.000000   3737779   3747678   3757748   3767963   3778297  
  4890.000000   3788717   3799178   3809639   3820036   3830322  
  4880.000000   3840419   3850282   3859835   3869052   3877865  
  4870.000000   3886266   3894195   3901655   3908599   3915052  
  4860.000000   3920987   3926456   3931455   3936046   3940225  
  4850.000000   3944047   3947500   3950636   3953452   3956012  
  4840.000000   3958332   3960486   3962501   3964446   3966343  
  4830.000000   3968243   3970158   3972117   3974117   3976160  
  4820.000000   3978221   3980280   3982308   3984288   3986213  
  4810.000000   3988093   3989950   3991811   3993705   3995651  
  4800.000000   3997662   3999741   4001884   4004083   4006331  
  4790.000000   4008613   4010918   4013232   4015545   4017852  
  4780.000000   4020151   4022448   4024745   4027046   4029342  
  4770.000000   4031625   4033880   4036100   4038275   4040409  
  4760.000000   4042498   4044544   4046529   4048440   4050245  
  4750.000000   4051931   4053482   4054909   4056222   4057449  
  4740.000000   4058604   4059701   4060732   4061694   4062567  
  4730.000000   4063349   4064033   4064628   4065142   4065590  
  4720.000000   4065979   4066321   4066625   4066902   4067172  
  4710.000000   4067451   4067764   4068126   4068556   4069064  
  4700.000000   4069663   4070358   4071160   4072075   4073112  
  4690.000000   4074273   4075563   4076976   4078507   4080135  
  4680.000000   4081838   4083573   4085299   4086960   4088518  
  4670.000000   4089932   4091202   4092334   4093376   4094371  
  4660.000000   4095387   4096472   4097679   4099043   4100596  
  4650.000000   4102357   4104339   4106540   4108946   4111526  
  4640.000000   4114235   4117025   4119843   4122653   4125423  
  4630.000000   4128137   4130781   4133343   4135804   4138143  
  4620.000000   4140332   4142350   4144169   4145782   4147168  
  4610.000000   4148331   4149258   4149965   4150455   4150770  
  4600.000000   4150935   4151008   4151019   4151016   4151001  
  4590.000000   4150987   4150940   4150845   4150653   4150345  
  4580.000000   4149876   4149239   4148403   4147375   4146146  
  4570.000000   4144739   4143165   4141460   4139642   4137740  
  4560.000000   4135756   4133701   4131560   4129337   4127019  
  4550.000000   4124621   4122148   4119626   4117065   4114486  
  4540.000000   4111894   4109299   4106707   4104123   4101557  
  4530.000000   4099008   4096486   4093976   4091486   4089001  
  4520.000000   4086550   4084139   4081838   4079677   4077750  
  4510.000000   4076083   4074759   4073775   4073194   4072990  
  4500.000000   4073219   4073853   4074965   4076536   4078663  
  4490.000000   4081342   4084689   4088707   4093510   4099081  
  4480.000000   4105501   4112709   4120739   4129492   4138981  
  4470.000000   4149103   4159875   4171209   4183125   4195540  
  4460.000000   4208462   4221798   4235539   4249592   4263942  
  4450.000000   4278511   4293288   4308221   4323301   4338495  
  4440.000000   4353783   4369134   4384505   4399860   4415132  
  4430.000000   4430288   4445253   4460010   4474483   4488666  
  4420.000000   4502472   4515892   4528818   4541229   4553012  
  4410.000000   4564148   4574533   4584169   4592979   4600995  
  4400.000000   4608179   4614602   4620270   4625299   4629741  
  4390.000000   4633743   4637385   4640819   4644118   4647391  
  4380.000000   4650669   4654001   4657378   4660816   4664310  
  4370.000000   4667893   4671599   4675485   4679605   4684001  
  4360.000000   4688702   4693713   4699011   4704576   4710342  
  4350.000000   4716283   4722307   4728404   4734493   4740614  
  4340.000000   4746729   4752894   4759034   4765059   4770662  
  4330.000000   4775448   4778843   4780301   4779338   4775747  
  4320.000000   4769623   4761442   4751915   4741923   4732261  
  4310.000000   4723586   4716244   4710358   4705797   4702360  
  4300.000000   4699785   4697882   4696511   4695590   4695081  
  4290.000000   4694923   4695096   4695527   4696207   4697092  
  4280.000000   4698194   4699492   4700981   4702637   4704424  
  4270.000000   4706327   4708304   4710335   4712326   4714141  
  4260.000000   4715532   4716204   4715810   4714078   4710838  
  4250.000000   4706126   4700151   4693310   4686057   4678875  
  4240.000000   4672130   4666087   4660819   4656298   4652377  
  4230.000000   4648892   4645666   4642559   4639479   4636367  
  4220.000000   4633232   4630085   4627005   4624044   4621316  
  4210.000000   4618876   4616819   4615160   4613936   4613107  
  4200.000000   4612657   4612511   4612633   4612948   4613438  
  4190.000000   4614049   4614797   4615658   4616676   4617835  
  4180.000000   4619181   4620685   4622375   4624210   4626221  
  4170.000000   4628393   4630796   4633457   4636479   4639900  
  4160.000000   4643805   4648186   4653080   4658432   4664250  
  4150.000000   4670468   4677103   4684097   4691484   4699214  
  4140.000000   4707329   4715790   4724654   4733895   4743582  
  4130.000000   4753690   4764277   4775302   4786801   4798724  
  4120.000000   4811108   4823922   4837220   4850995   4865303  
  4110.000000   4880129   4895492   4911334   4927623   4944261  
  4100.000000   4961186   4978303   4995567   5012926   5030377  
  4090.000000   5047916   5065553   5083293   5101121   5119022  
  4080.000000   5136950   5154889   5172783   5190623   5208341  
  4070.000000   5225917   5243248   5260298   5276957   5293213  
  4060.000000   5308986   5324310   5339125   5353469   5367260  
  4050.000000   5380527   5393181   5405278   5416758   5427707  
  4040.000000   5438063   5447889   5457078   5465660   5473517  
  4030.000000   5480701   5487129   5492880   5497887   5502201  
  4020.000000   5505710   5508455   5510397   5511620   5512093  
  4010.000000   5511974   5511358   5510277   5508524   5506150  
  4000.000000   5503458  
##END= 
