##TITLE= Sample 031 By ssteindl date Montag, November 26 2018
##JCAMP-DX= 4.24
##DATA TYPE= INFRARED SPECTRUM
##ORIGIN= Exported PE Spectrum Data File
##OWNER= Sandra Steindl
##DATE= 18/11/26
##TIME= 11:50:13.00
##SPECTROMETER/DATA SYSTEM= PERKIN-ELMER Frontier FT-IR/NIR IR
##INSTRUMENT PARAMETERS=
  APODIZATION=stark
  DETECTOR=INGAAS
##RESOLUTION= 16.000000
##DELTAX= -2.000000
##XUNITS= 1/CM
##YUNITS= A
##XFACTOR= 1.00
##YFACTOR= 0.00000011920928955078
##FIRSTX= 10000.00
##LASTX= 4000.00
##NPOINTS= 3001
##FIRSTY= 0.311140
##MAXY= 0.664602
##MINY= 0.238353
##XYDATA= (X++(Y..Y))
 10000.000000   2610030   2609066   2609443   2612874   2619224  
  9990.000000   2626858   2634092   2639783   2643125   2643713  
  9980.000000   2641810   2638059   2633144   2627654   2622200  
  9970.000000   2617425   2613828   2611727   2611033   2611327  
  9960.000000   2611941   2612360   2612364   2612222   2612355  
  9950.000000   2613093   2614283   2615239   2615041   2612905  
  9940.000000   2608745   2603169   2597393   2592604   2589488  
  9930.000000   2587879   2586843   2585232   2582237   2577967  
  9920.000000   2573414   2570128   2569511   2572191   2577745  
  9910.000000   2584795   2591538   2596296   2598014   2596400  
  9900.000000   2591875   2585316   2577873   2570797   2565326  
  9890.000000   2562504   2562921   2566438   2572067   2578102  
  9880.000000   2582595   2583972   2581589   2576006   2568747  
  9870.000000   2561774   2556736   2554462   2554816   2556971  
  9860.000000   2559921   2562939   2565733   2568342   2570774  
  9850.000000   2572782   2573808   2573224   2570697   2566445  
  9840.000000   2561261   2556202   2552142   2549441   2547830  
  9830.000000   2546727   2545566   2544225   2542994   2542381  
  9820.000000   2542662   2543541   2544172   2543378   2540285  
  9810.000000   2534635   2527116   2518985   2511739   2506433  
  9800.000000   2503478   2502588   2503155   2504646   2506882  
  9790.000000   2510066   2514504   2520338   2527273   2534684  
  9780.000000   2541799   2548071   2553332   2557779   2561732  
  9770.000000   2565334   2568380   2570356   2570670   2568967  
  9760.000000   2565296   2560127   2554120   2547875   2541702  
  9750.000000   2535627   2529480   2523171   2516802   2510758  
  9740.000000   2505547   2501643   2499285   2498453   2498894  
  9730.000000   2500276   2502289   2504686   2507322   2510035  
  9720.000000   2512704   2515166   2517305   2519047   2520349  
  9710.000000   2521190   2521516   2521295   2520569   2519538  
  9700.000000   2518562   2518046   2518210   2518873   2519360  
  9690.000000   2518648   2515743   2510121   2502053   2492635  
  9680.000000   2483460   2476125   2471678   2470337   2471503  
  9670.000000   2474106   2477040   2479564   2481405   2482671  
  9660.000000   2483583   2484245   2484612   2484535   2484039  
  9650.000000   2483321   2482817   2482851   2483486   2484311  
  9640.000000   2484627   2483771   2481500   2478240   2474944  
  9630.000000   2472757   2472445   2474114   2477112   2480408  
  9620.000000   2482997   2484374   2484623   2484289   2483982  
  9610.000000   2484014   2484230   2484090   2483001   2480631  
  9600.000000   2477103   2472922   2468695   2464877   2461559  
  9590.000000   2458606   2455816   2453216   2451101   2449894  
  9580.000000   2449874   2450865   2452211   2452927   2452108  
  9570.000000   2449315   2444777   2439357   2434224   2430456  
  9560.000000   2428723   2429142   2431377   2434791   2438651  
  9550.000000   2442188   2444678   2445438   2443984   2440156  
  9540.000000   2434324   2427400   2420699   2415607   2413133  
  9530.000000   2413591   2416459   2420620   2424767   2427904  
  9520.000000   2429638   2430151   2429945   2429405   2428609  
  9510.000000   2427253   2424948   2421478   2417103   2412542  
  9500.000000   2408812   2406864   2407265   2409998   2414487  
  9490.000000   2419796   2424924   2429025   2431581   2432390  
  9480.000000   2431557   2429443   2426628   2423895   2422079  
  9470.000000   2421967   2424008   2428227   2434092   2440682  
  9460.000000   2446851   2451560   2454043   2453975   2451413  
  9450.000000   2446724   2440421   2433107   2425415   2418032  
  9440.000000   2411622   2406767   2403776   2402606   2402789  
  9430.000000   2403577   2404113   2403688   2401919   2398795  
  9420.000000   2394650   2389978   2385350   2381252   2378134  
  9410.000000   2376347   2376181   2377760   2380963   2385363  
  9400.000000   2390254   2394790   2398200   2399992   2400096  
  9390.000000   2398812   2396709   2394353   2392179   2390354  
  9380.000000   2388859   2387561   2386375   2385321   2384510  
  9370.000000   2384079   2384031   2384273   2384568   2384713  
  9360.000000   2384583   2384220   2383821   2383651   2383952  
  9350.000000   2384791   2386032   2387334   2388257   2388402  
  9340.000000   2387518   2385608   2382938   2380020   2377462  
  9330.000000   2375816   2375354   2376004   2377319   2378642  
  9320.000000   2379287   2378766   2376964   2374146   2370889  
  9310.000000   2367795   2365310   2363532   2362274   2361145  
  9300.000000   2359767   2357959   2355828   2353810   2352457  
  9290.000000   2352320   2353684   2356554   2360600   2365264  
  9280.000000   2369851   2373594   2375854   2376141   2374323  
  9270.000000   2370547   2365294   2359219   2353059   2347487  
  9260.000000   2342991   2339869   2338203   2338010   2339210  
  9250.000000   2341733   2345334   2349642   2354030   2357790  
  9240.000000   2360252   2360981   2359952   2357525   2354401  
  9230.000000   2351288   2348697   2346718   2345075   2343289  
  9220.000000   2340915   2337781   2334035   2330145   2326661  
  9210.000000   2324051   2322497   2321917   2322031   2322493  
  9200.000000   2323007   2323358   2323448   2323228   2322695  
  9190.000000   2321869   2320840   2319774   2318906   2318461  
  9180.000000   2318572   2319212   2320176   2321156   2321817  
  9170.000000   2321932   2321434   2320408   2319052   2317548  
  9160.000000   2316030   2314501   2312875   2311013   2308806  
  9150.000000   2306221   2303350   2300437   2297856   2296039  
  9140.000000   2295335   2295930   2297739   2300388   2303275  
  9130.000000   2305736   2307284   2307737   2307281   2306370  
  9120.000000   2305541   2305196   2305423   2306003   2306531  
  9110.000000   2306654   2306238   2305424   2304525   2303845  
  9100.000000   2303476   2303213   2302583   2301069   2298356  
  9090.000000   2294505   2290003   2285589   2282048   2279907  
  9080.000000   2279310   2279987   2281394   2282909   2284001  
  9070.000000   2284387   2284047   2283218   2282283   2281714  
  9060.000000   2281959   2283324   2285868   2289313   2293075  
  9050.000000   2296323   2298213   2298108   2295831   2291713  
  9040.000000   2286518   2281210   2276683   2273507   2271816  
  9030.000000   2271365   2271692   2272345   2272981   2273476  
  9020.000000   2273814   2274090   2274364   2274703   2275141  
  9010.000000   2275727   2276513   2277499   2278606   2279582  
  9000.000000   2280091   2279747   2278321   2275765   2272294  
  8990.000000   2268293   2264233   2260520   2257377   2254903  
  8980.000000   2253092   2251978   2251614   2252149   2253699  
  8970.000000   2256266   2259596   2263202   2266456   2268702  
  8960.000000   2269448   2268449   2265864   2262116   2257839  
  8950.000000   2253679   2250204   2247763   2246416   2245985  
  8940.000000   2246127   2246489   2246796   2246941   2246975  
  8930.000000   2247057   2247339   2247869   2248567   2249229  
  8920.000000   2249655   2249733   2249535   2249300   2249340  
  8910.000000   2249914   2251083   2252721   2254528   2256185  
  8900.000000   2257420   2258113   2258246   2257859   2256939  
  8890.000000   2255433   2253286   2250527   2247346   2244070  
  8880.000000   2241088   2238681   2236887   2235471   2234022  
  8870.000000   2232147   2229687   2226826   2224080   2222071  
  8860.000000   2221290   2221868   2223544   2225753   2227877  
  8850.000000   2229473   2230453   2231071   2231775   2232985  
  8840.000000   2234898   2237406   2240161   2242698   2244633  
  8830.000000   2245716   2245908   2245282   2244007   2242255  
  8820.000000   2240199   2238017   2235909   2234097   2232770  
  8810.000000   2232071   2232021   2232595   2233684   2235225  
  8800.000000   2237133   2239367   2241832   2244356   2246688  
  8790.000000   2248499   2249530   2249580   2248630   2246762  
  8780.000000   2244166   2241057   2237659   2234232   2231072  
  8770.000000   2228584   2227167   2227190   2228749   2231654  
  8760.000000   2235331   2238998   2241832   2243218   2242936  
  8750.000000   2241160   2238414   2235291   2232312   2229715  
  8740.000000   2227499   2225484   2223496   2221486   2219580  
  8730.000000   2218038   2217113   2216956   2217512   2218570  
  8720.000000   2219828   2221002   2221924   2222538   2222908  
  8710.000000   2223123   2223268   2223378   2223480   2223606  
  8700.000000   2223843   2224287   2225038   2226094   2227344  
  8690.000000   2228527   2229314   2229396   2228602   2226996  
  8680.000000   2224891   2222805   2221306   2220891   2221800  
  8670.000000   2224004   2227160   2230743   2234165   2236921  
  8660.000000   2238711   2239447   2239248   2238296   2236805  
  8650.000000   2234921   2232781   2230495   2228226   2226203  
  8640.000000   2224708   2224038   2224360   2225733   2227995  
  8630.000000   2230893   2234051   2237132   2239859   2242057  
  8620.000000   2243651   2244596   2244910   2244586   2243675  
  8610.000000   2242216   2240318   2238095   2235696   2233270  
  8600.000000   2230960   2228939   2227389   2226538   2226583  
  8590.000000   2227682   2229850   2232933   2236589   2240353  
  8580.000000   2243760   2246426   2248176   2249029   2249208  
  8570.000000   2249012   2248741   2248600   2248692   2249027  
  8560.000000   2249564   2250264   2251091   2252034   2253033  
  8550.000000   2254021   2254873   2255483   2255768   2255717  
  8540.000000   2255411   2254976   2254563   2254262   2254092  
  8530.000000   2253977   2253791   2253418   2252813   2252053  
  8520.000000   2251313   2250850   2250915   2251674   2253143  
  8510.000000   2255165   2257449   2259624   2261345   2262370  
  8500.000000   2262630   2262233   2261417   2260500   2259790  
  8490.000000   2259522   2259801   2260611   2261834   2263275  
  8480.000000   2264693   2265839   2266507   2266547   2265892  
  8470.000000   2264579   2262775   2260746   2258815   2257306  
  8460.000000   2256485   2256516   2257416   2259078   2261269  
  8450.000000   2263716   2266107   2268175   2269712   2270611  
  8440.000000   2270878   2270621   2270039   2269337   2268706  
  8430.000000   2268229   2267891   2267572   2267109   2266384  
  8420.000000   2265365   2264171   2263001   2262118   2261719  
  8410.000000   2261912   2262650   2263783   2265093   2266369  
  8400.000000   2267452   2268228   2268623   2268580   2268061  
  8390.000000   2267052   2265603   2263844   2262004   2260354  
  8380.000000   2259137   2258495   2258420   2258765   2259284  
  8370.000000   2259728   2259912   2259780   2259391   2258880  
  8360.000000   2258392   2258038   2257872   2257899   2258089  
  8350.000000   2258409   2258824   2259301   2259784   2260190  
  8340.000000   2260416   2260361   2259963   2259204   2258117  
  8330.000000   2256762   2255215   2253552   2251847   2250197  
  8320.000000   2248706   2247515   2246744   2246489   2246744  
  8310.000000   2247425   2248337   2249258   2249963   2250295  
  8300.000000   2250181   2249636   2248744   2247600   2246292  
  8290.000000   2244865   2243340   2241705   2239957   2238086  
  8280.000000   2236113   2234074   2232033   2230078   2228303  
  8270.000000   2226809   2225672   2224945   2224633   2224710  
  8260.000000   2225115   2225768   2226584   2227468   2228314  
  8250.000000   2228990   2229361   2229300   2228744   2227712  
  8240.000000   2226334   2224810   2223365   2222173   2221295  
  8230.000000   2220673   2220141   2219523   2218685   2217617  
  8220.000000   2216401   2215202   2214157   2213348   2212745  
  8210.000000   2212254   2211752   2211158   2210456   2209686  
  8200.000000   2208895   2208094   2207221   2206170   2204835  
  8190.000000   2203177   2201260   2199243   2197314   2195626  
  8180.000000   2194217   2193020   2191876   2190625   2189167  
  8170.000000   2187506   2185742   2184009   2182411   2180969  
  8160.000000   2179619   2178247   2176762   2175134   2173428  
  8150.000000   2171769   2170302   2169137   2168307   2167774  
  8140.000000   2167442   2167209   2166987   2166723   2166393  
  8130.000000   2165992   2165519   2164971   2164344   2163636  
  8120.000000   2162842   2161952   2160949   2159816   2158539  
  8110.000000   2157138   2155657   2154179   2152779   2151518  
  8100.000000   2150394   2149351   2148292   2147116   2145767  
  8090.000000   2144254   2142649   2141049   2139539   2138153  
  8080.000000   2136876   2135665   2134487   2133357   2132336  
  8070.000000   2131522   2130995   2130789   2130858   2131094  
  8060.000000   2131350   2131471   2131345   2130892   2130089  
  8050.000000   2128934   2127467   2125744   2123858   2121925  
  8040.000000   2120073   2118424   2117056   2116014   2115286  
  8030.000000   2114855   2114690   2114784   2115115   2115640  
  8020.000000   2116244   2116755   2116967   2116697   2115871  
  8010.000000   2114540   2112893   2111168   2109585   2108247  
  8000.000000   2107117   2106043   2104848   2103419   2101770  
  7990.000000   2100050   2098479   2097270   2096525   2096221  
  7980.000000   2096210   2096304   2096343   2096257   2096072  
  7970.000000   2095868   2095715   2095623   2095523   2095292  
  7960.000000   2094806   2093985   2092832   2091419   2089871  
  7950.000000   2088316   2086857   2085560   2084448   2083522  
  7940.000000   2082767   2082160   2081679   2081281   2080929  
  7930.000000   2080570   2080167   2079685   2079117   2078469  
  7920.000000   2077781   2077119   2076583   2076292   2076364  
  7910.000000   2076885   2077861   2079207   2080741   2082226  
  7900.000000   2083420   2084142   2084313   2083961   2083203  
  7890.000000   2082186   2081054   2079911   2078820   2077818  
  7880.000000   2076931   2076192   2075623   2075231   2074977  
  7870.000000   2074798   2074605   2074336   2073967   2073533  
  7860.000000   2073102   2072746   2072502   2072354   2072246  
  7850.000000   2072104   2071880   2071563   2071185   2070793  
  7840.000000   2070416   2070057   2069681   2069256   2068763  
  7830.000000   2068232   2067722   2067302   2067014   2066845  
  7820.000000   2066721   2066531   2066159   2065526   2064599  
  7810.000000   2063409   2062018   2060520   2059011   2057599  
  7800.000000   2056387   2055465   2054886   2054638   2054632  
  7790.000000   2054697   2054629   2054231   2053389   2052101  
  7780.000000   2050489   2048756   2047134   2045814   2044902  
  7770.000000   2044415   2044295   2044448   2044774   2045184  
  7760.000000   2045597   2045927   2046081   2045957   2045479  
  7750.000000   2044612   2043399   2041951   2040442   2039061  
  7740.000000   2037978   2037306   2037074   2037242   2037693  
  7730.000000   2038279   2038829   2039191   2039243   2038918  
  7720.000000   2038205   2037146   2035828   2034354   2032835  
  7710.000000   2031359   2029995   2028788   2027761   2026927  
  7700.000000   2026279   2025803   2025460   2025209   2024998  
  7690.000000   2024791   2024572   2024342   2024119   2023905  
  7680.000000   2023681   2023395   2022979   2022368   2021535  
  7670.000000   2020505   2019361   2018222   2017205   2016394  
  7660.000000   2015811   2015416   2015124   2014830   2014454  
  7650.000000   2013946   2013304   2012557   2011750   2010933  
  7640.000000   2010145   2009427   2008819   2008370   2008135  
  7630.000000   2008158   2008455   2008990   2009671   2010350  
  7620.000000   2010860   2011042   2010802   2010126   2009103  
  7610.000000   2007893   2006691   2005670   2004929   2004478  
  7600.000000   2004245   2004115   2003980   2003775   2003494  
  7590.000000   2003179   2002883   2002638   2002433   2002219  
  7580.000000   2001939   2001564   2001126   2000712   2000442  
  7570.000000   2000418   2000677   2001163   2001735   2002215  
  7560.000000   2002445   2002337   2001909   2001262   2000559  
  7550.000000   1999961   1999579   1999447   1999520   1999699  
  7540.000000   1999876   1999969   1999952   1999849   1999731  
  7530.000000   1999668   1999713   1999863   2000069   2000245  
  7520.000000   2000313   2000230   2000029   1999814   1999740  
  7510.000000   1999959   2000572   2001587   2002916   2004391  
  7500.000000   2005818   2007020   2007903   2008447   2008722  
  7490.000000   2008829   2008893   2009010   2009257   2009670  
  7480.000000   2010265   2011033   2011948   2012967   2014035  
  7470.000000   2015095   2016101   2017028   2017883   2018686  
  7460.000000   2019470   2020238   2020990   2021701   2022367  
  7450.000000   2023004   2023675   2024468   2025475   2026759  
  7440.000000   2028318   2030092   2031978   2033865   2035675  
  7430.000000   2037364   2038938   2040408   2041789   2043061  
  7420.000000   2044193   2045149   2045933   2046591   2047223  
  7410.000000   2047952   2048887   2050096   2051578   2053278  
  7400.000000   2055093   2056918   2058659   2060259   2061694  
  7390.000000   2062971   2064121   2065182   2066201   2067211  
  7380.000000   2068243   2069304   2070388   2071475   2072546  
  7370.000000   2073592   2074621   2075661   2076745   2077907  
  7360.000000   2079160   2080513   2081958   2083491   2085113  
  7350.000000   2086821   2088601   2090405   2092152   2093736  
  7340.000000   2095066   2096088   2096820   2097345   2097792  
  7330.000000   2098298   2098963   2099833   2100884   2102060  
  7320.000000   2103290   2104537   2105787   2107064   2108382  
  7310.000000   2109739   2111094   2112377   2113510   2114435  
  7300.000000   2115140   2115654   2116045   2116390   2116756  
  7290.000000   2117183   2117678   2118228   2118808   2119402  
  7280.000000   2120005   2120633   2121309   2122060   2122904  
  7270.000000   2123834   2124827   2125830   2126784   2127627  
  7260.000000   2128325   2128864   2129277   2129616   2129958  
  7250.000000   2130376   2130939   2131696   2132686   2133923  
  7240.000000   2135417   2137150   2139087   2141162   2143300  
  7230.000000   2145417   2147460   2149396   2151247   2153040  
  7220.000000   2154829   2156629   2158450   2160250   2162005  
  7210.000000   2163683   2165307   2166923   2168618   2170475  
  7200.000000   2172568   2174939   2177609   2180577   2183842  
  7190.000000   2187387   2191190   2195183   2199273   2203318  
  7180.000000   2207180   2210732   2213925   2216760   2219329  
  7170.000000   2221740   2224129   2226593   2229210   2231996  
  7160.000000   2234952   2238043   2241241   2244513   2247847  
  7150.000000   2251241   2254730   2258364   2262226   2266385  
  7140.000000   2270899   2275753   2280894   2286195   2291541  
  7130.000000   2296810   2301962   2306983   2311945   2316909  
  7120.000000   2321958   2327120   2332419   2337841   2343397  
  7110.000000   2349095   2354975   2361061   2367374   2373883  
  7100.000000   2380542   2387265   2393986   2400634   2407182  
  7090.000000   2413603   2419897   2426062   2432120   2438106  
  7080.000000   2444093   2450167   2456425   2462928   2469691  
  7070.000000   2476665   2483762   2490871   2497910   2504829  
  7060.000000   2511629   2518326   2524948   2531503   2537999  
  7050.000000   2544440   2550851   2557278   2563784   2570411  
  7040.000000   2577165   2584003   2590839   2597580   2604150  
  7030.000000   2610526   2616730   2622823   2628868   2634918  
  7020.000000   2640995   2647113   2653274   2659495   2665781  
  7010.000000   2672129   2678494   2684803   2690950   2696854  
  7000.000000   2702465   2707815   2712979   2718076   2723191  
  6990.000000   2728377   2733609   2738835   2743973   2748980  
  6980.000000   2753828   2758537   2763116   2767580   2771902  
  6970.000000   2776064   2780030   2783811   2787427   2790935  
  6960.000000   2794366   2797752   2801070   2804305   2807419  
  6950.000000   2810420   2813314   2816141   2818905   2821599  
  6940.000000   2824165   2826541   2828671   2830550   2832216  
  6930.000000   2833761   2835283   2836871   2838566   2840374  
  6920.000000   2842260   2844199   2846161   2848148   2850159  
  6910.000000   2852202   2854254   2856280   2858227   2860048  
  6900.000000   2861712   2863215   2864573   2865817   2866982  
  6890.000000   2868094   2869168   2870211   2871221   2872201  
  6880.000000   2873152   2874091   2875033   2876010   2877040  
  6870.000000   2878141   2879296   2880473   2881615   2882662  
  6860.000000   2883565   2884308   2884909   2885415   2885879  
  6850.000000   2886345   2886832   2887334   2887832   2888315  
  6840.000000   2888783   2889256   2889746   2890259   2890772  
  6830.000000   2891252   2891665   2892013   2892325   2892671  
  6820.000000   2893118   2893707   2894418   2895176   2895867  
  6810.000000   2896385   2896657   2896675   2896479   2896139  
  6800.000000   2895718   2895258   2894774   2894277   2893786  
  6790.000000   2893343   2892997   2892790   2892721   2892746  
  6780.000000   2892778   2892724   2892519   2892153   2891676  
  6770.000000   2891179   2890760   2890487   2890381   2890414  
  6760.000000   2890524   2890638   2890691   2890636   2890452  
  6750.000000   2890138   2889716   2889223   2888702   2888200  
  6740.000000   2887743   2887339   2886965   2886589   2886186  
  6730.000000   2885765   2885367   2885065   2884919   2884950  
  6720.000000   2885106   2885277   2885319   2885111   2884601  
  6710.000000   2883825   2882892   2881942   2881085   2880374  
  6700.000000   2879779   2879231   2878641   2877960   2877175  
  6690.000000   2876326   2875455   2874600   2873758   2872911  
  6680.000000   2872023   2871079   2870082   2869060   2868040  
  6670.000000   2867040   2866050   2865048   2863998   2862888  
  6660.000000   2861717   2860505   2859274   2858037   2856787  
  6650.000000   2855507   2854175   2852784   2851341   2849871  
  6640.000000   2848398   2846946   2845519   2844121   2842743  
  6630.000000   2841394   2840072   2838787   2837529   2836278  
  6620.000000   2834995   2833639   2832172   2830577   2828850  
  6610.000000   2827008   2825067   2823051   2820975   2818868  
  6600.000000   2816759   2814695   2812717   2810859   2809124  
  6590.000000   2807490   2805908   2804324   2802692   2800992  
  6580.000000   2799229   2797423   2795602   2793787   2791993  
  6570.000000   2790231   2788514   2786857   2785275   2783776  
  6560.000000   2782347   2780959   2779570   2778142   2776658  
  6550.000000   2775123   2773568   2772028   2770526   2769064  
  6540.000000   2767624   2766177   2764702   2763196   2761680  
  6530.000000   2760184   2758739   2757354   2756022   2754715  
  6520.000000   2753404   2752067   2750700   2749313   2747928  
  6510.000000   2746566   2745244   2743965   2742726   2741515  
  6500.000000   2740313   2739102   2737867   2736601   2735319  
  6490.000000   2734050   2732843   2731743   2730785   2729968  
  6480.000000   2729255   2728580   2727868   2727060   2726133  
  6470.000000   2725106   2724025   2722942   2721895   2720892  
  6460.000000   2719914   2718925   2717898   2716814   2715681  
  6450.000000   2714517   2713346   2712187   2711057   2709966  
  6440.000000   2708930   2707963   2707081   2706288   2705575  
  6430.000000   2704914   2704275   2703630   2702968   2702293  
  6420.000000   2701624   2700980   2700376   2699808   2699275  
  6410.000000   2698771   2698305   2697894   2697557   2697303  
  6400.000000   2697126   2696994   2696870   2696717   2696516  
  6390.000000   2696268   2695986   2695685   2695371   2695036  
  6380.000000   2694666   2694256   2693817   2693385   2693004  
  6370.000000   2692712   2692520   2692409   2692322   2692197  
  6360.000000   2691972   2691615   2691121   2690513   2689826  
  6350.000000   2689097   2688351   2687613   2686895   2686211  
  6340.000000   2685566   2684959   2684377   2683801   2683204  
  6330.000000   2682570   2681882   2681142   2680349   2679508  
  6320.000000   2678614   2677670   2676678   2675664   2674658  
  6310.000000   2673700   2672811   2671988   2671183   2670333  
  6300.000000   2669359   2668217   2666893   2665427   2663878  
  6290.000000   2662317   2660785   2659302   2657850   2656409  
  6280.000000   2654958   2653496   2652024   2650552   2649065  
  6270.000000   2647543   2645947   2644257   2642469   2640617  
  6260.000000   2638750   2636925   2635175   2633499   2631867  
  6250.000000   2630232   2628548   2626791   2624957   2623061  
  6240.000000   2621121   2619157   2617182   2615215   2613283  
  6230.000000   2611419   2609655   2608007   2606459   2604967  
  6220.000000   2603465   2601890   2600208   2598419   2596561  
  6210.000000   2594690   2592856   2591083   2589366   2587682  
  6200.000000   2586002   2584313   2582624   2580959   2579344  
  6190.000000   2577794   2576306   2574861   2573436   2572016  
  6180.000000   2570595   2569180   2567780   2566397   2565027  
  6170.000000   2563659   2562285   2560904   2559526   2558166  
  6160.000000   2556839   2555549   2554290   2553044   2551791  
  6150.000000   2550517   2549216   2547890   2546545   2545186  
  6140.000000   2543820   2542447   2541076   2539714   2538373  
  6130.000000   2537061   2535787   2534545   2533333   2532142  
  6120.000000   2530975   2529837   2528746   2527715   2526761  
  6110.000000   2525885   2525092   2524372   2523722   2523137  
  6100.000000   2522617   2522155   2521750   2521390   2521072  
  6090.000000   2520786   2520541   2520337   2520184   2520074  
  6080.000000   2520002   2519941   2519877   2519794   2519703  
  6070.000000   2519619   2519578   2519603   2519720   2519927  
  6060.000000   2520220   2520579   2520999   2521471   2522009  
  6050.000000   2522616   2523311   2524092   2524967   2525925  
  6040.000000   2526968   2528087   2529285   2530549   2531878  
  6030.000000   2533253   2534675   2536138   2537659   2539246  
  6020.000000   2540920   2542675   2544502   2546365   2548231  
  6010.000000   2550063   2551849   2553588   2555306   2557027  
  6000.000000   2558785   2560591   2562459   2564385   2566376  
  5990.000000   2568427   2570549   2572741   2575005   2577331  
  5980.000000   2579718   2582153   2584643   2587190   2589810  
  5970.000000   2592504   2595275   2598103   2600978   2603875  
  5960.000000   2606791   2609715   2612656   2615610   2618582  
  5950.000000   2621565   2624567   2627602   2630706   2633923  
  5940.000000   2637302   2640871   2644634   2648562   2652596  
  5930.000000   2656665   2660702   2664657   2668499   2672209  
  5920.000000   2675780   2679199   2682454   2685535   2688442  
  5910.000000   2691186   2693795   2696303   2698743   2701150  
  5900.000000   2703547   2705967   2708432   2710977   2713620  
  5890.000000   2716377   2719231   2722156   2725101   2728020  
  5880.000000   2730872   2733634   2736300   2738868   2741339  
  5870.000000   2743706   2745960   2748095   2750119   2752056  
  5860.000000   2753944   2755826   2757735   2759693   2761705  
  5850.000000   2763770   2765889   2768065   2770307   2772624  
  5840.000000   2775014   2777466   2779963   2782488   2785036  
  5830.000000   2787611   2790224   2792881   2795575   2798276  
  5820.000000   2800947   2803546   2806056   2808479   2810842  
  5810.000000   2813183   2815529   2817901   2820283   2822668  
  5800.000000   2825025   2827369   2829694   2832041   2834401  
  5790.000000   2836785   2839129   2841379   2843416   2845145  
  5780.000000   2846435   2847198   2847334   2846807   2845593  
  5770.000000   2843752   2841371   2838610   2835627   2832604  
  5760.000000   2829665   2826913   2824375   2822067   2819961  
  5750.000000   2818045   2816293   2814698   2813239   2811898  
  5740.000000   2810648   2809458   2808315   2807201   2806121  
  5730.000000   2805068   2804048   2803045   2802055   2801065  
  5720.000000   2800086   2799128   2798224   2797393   2796653  
  5710.000000   2795996   2795411   2794876   2794382   2793923  
  5700.000000   2793508   2793143   2792829   2792558   2792311  
  5690.000000   2792079   2791853   2791645   2791463   2791317  
  5680.000000   2791192   2791059   2790860   2790543   2790046  
  5670.000000   2789333   2788372   2787151   2785653   2783879  
  5660.000000   2781833   2779550   2777081   2774512   2771927  
  5650.000000   2769412   2767017   2764767   2762650   2760649  
  5640.000000   2758739   2756913   2755167   2753506   2751923  
  5630.000000   2750399   2748914   2747441   2745979   2744530  
  5620.000000   2743119   2741759   2740457   2739195   2737951  
  5610.000000   2736694   2735422   2734145   2732902   2731732  
  5600.000000   2730666   2729712   2728855   2728064   2727307  
  5590.000000   2726559   2725811   2725056   2724289   2723500  
  5580.000000   2722673   2721796   2720868   2719904   2718928  
  5570.000000   2717961   2717012   2716071   2715111   2714103  
  5560.000000   2713022   2711868   2710654   2709408   2708152  
  5550.000000   2706904   2705663   2704429   2703200   2701985  
  5540.000000   2700797   2699651   2698549   2697481   2696421  
  5530.000000   2695343   2694229   2693075   2691892   2690697  
  5520.000000   2689504   2688317   2687129   2685934   2684725  
  5510.000000   2683508   2682294   2681096   2679918   2678757  
  5500.000000   2677599   2676431   2675241   2674032   2672799  
  5490.000000   2671540   2670231   2668846   2667352   2665732  
  5480.000000   2663991   2662164   2660297   2658439   2656611  
  5470.000000   2654811   2653001   2651144   2649204   2647176  
  5460.000000   2645074   2642931   2640779   2638640   2636521  
  5450.000000   2634423   2632345   2630289   2628263   2626274  
  5440.000000   2624321   2622394   2620484   2618585   2616708  
  5430.000000   2614868   2613085   2611359   2609677   2608003  
  5420.000000   2606314   2604596   2602887   2601243   2599753  
  5410.000000   2598474   2597439   2596613   2595951   2595377  
  5400.000000   2594861   2594382   2593975   2593661   2593481  
  5390.000000   2593431   2593514   2593701   2594008   2594440  
  5380.000000   2595049   2595853   2596883   2598103   2599487  
  5370.000000   2600964   2602517   2604108   2605777   2607528  
  5360.000000   2609428   2611482   2613756   2616253   2619062  
  5350.000000   2622210   2625799   2629835   2634375   2639351  
  5340.000000   2644764   2650524   2656665   2663150   2670072  
  5330.000000   2677412   2685251   2693524   2702267   2711401  
  5320.000000   2720999   2731046   2741693   2752966   2765024  
  5310.000000   2777836   2791482   2805852   2820976   2836750  
  5300.000000   2853251   2870446   2888486   2907392   2927329  
  5290.000000   2948289   2970351   2993394   3017364   3042048  
  5280.000000   3067358   3093141   3119433   3146242   3173725  
  5270.000000   3201933   3230925   3260575   3290702   3321031  
  5260.000000   3351337   3381482   3411456   3441352   3471260  
  5250.000000   3501243   3531196   3560957   3590212   3618757  
  5240.000000   3646371   3673082   3698902   3724045   3748583  
  5230.000000   3772675   3796245   3819274   3841536   3862955  
  5220.000000   3883346   3902761   3921174   3938782   3955643  
  5210.000000   3971959   3987709   4002959   4017538   4031412  
  5200.000000   4044393   4056518   4067721   4078156   4087834  
  5190.000000   4096908   4105337   4113190   4120360   4126884  
  5180.000000   4132675   4137809   4142242   4146066   4149229  
  5170.000000   4151798   4153714   4155055   4155800   4156064  
  5160.000000   4155847   4155248   4154228   4152831   4150988  
  5150.000000   4148737   4146045   4142991   4139581   4135895  
  5140.000000   4131916   4127685   4123165   4118388   4113340  
  5130.000000   4108084   4102632   4097042   4091306   4085445  
  5120.000000   4079431   4073277   4066977   4060572   4054086  
  5110.000000   4047567   4041029   4034492   4027951   4021417  
  5100.000000   4014891   4008395   4001941   3995546   3989205  
  5090.000000   3982916   3976660   3970434   3964232   3958063  
  5080.000000   3951924   3945813   3939702   3933562   3927356  
  5070.000000   3921071   3914701   3908278   3901831   3895399  
  5060.000000   3888993   3882615   3876233   3869817   3863325  
  5050.000000   3856742   3850048   3843250   3836345   3829341  
  5040.000000   3822237   3815042   3807764   3800424   3793046  
  5030.000000   3785660   3778289   3770951   3763659   3756417  
  5020.000000   3749237   3742122   3735089   3728144   3721305  
  5010.000000   3714572   3707964   3701482   3695160   3689007  
  5000.000000   3683067   3677346   3671872   3666624   3661608  
  4990.000000   3656781   3652155   3647702   3643464   3639437  
  4980.000000   3635681   3632191   3629017   3626137   3623594  
  4970.000000   3621363   3619497   3617982   3616879   3616166  
  4960.000000   3615890   3616009   3616553   3617474   3618806  
  4950.000000   3620511   3622635   3625139   3628064   3631358  
  4940.000000   3635051   3639087   3643501   3648247   3653370  
  4930.000000   3658830   3664665   3670831   3677356   3684197  
  4920.000000   3691384   3698887   3706742   3714926   3723465  
  4910.000000   3732322   3741499   3750943   3760631   3770507  
  4900.000000   3780541   3790688   3800925   3811227   3821579  
  4890.000000   3831970   3842377   3852781   3863128   3873378  
  4880.000000   3883450   3893297   3902836   3912042   3920848  
  4870.000000   3929250   3937193   3944683   3951672   3958182  
  4860.000000   3964183   3969722   3974789   3979445   3983685  
  4850.000000   3987567   3991082   3994285   3997175   3999818  
  4840.000000   4002228   4004475   4006575   4008584   4010507  
  4830.000000   4012379   4014197   4015984   4017734   4019462  
  4820.000000   4021164   4022849   4024518   4026186   4027866  
  4810.000000   4029579   4031346   4033174   4035066   4037006  
  4800.000000   4038979   4040965   4042957   4044960   4046993  
  4790.000000   4049078   4051236   4053477   4055797   4058179  
  4780.000000   4060601   4063041   4065475   4067889   4070265  
  4770.000000   4072591   4074848   4077025   4079110   4081102  
  4760.000000   4083002   4084823   4086566   4088240   4089835  
  4750.000000   4091347   4092760   4094077   4095291   4096422  
  4740.000000   4097476   4098474   4099419   4100324   4101181  
  4730.000000   4101995   4102759   4103475   4104142   4104762  
  4720.000000   4105331   4105849   4106317   4106741   4107134  
  4710.000000   4107517   4107918   4108358   4108863   4109445  
  4700.000000   4110116   4110882   4111752   4112739   4113862  
  4690.000000   4115134   4116569   4118162   4119898   4121738  
  4680.000000   4123635   4125529   4127369   4129100   4130697  
  4670.000000   4132133   4133418   4134560   4135598   4136567  
  4660.000000   4137530   4138540   4139668   4140973   4142514  
  4650.000000   4144327   4146433   4148827   4151483   4154356  
  4640.000000   4157389   4160525   4163705   4166882   4170016  
  4630.000000   4173076   4176037   4178882   4181592   4184157  
  4620.000000   4186556   4188776   4190787   4192571   4194088  
  4610.000000   4195329   4196270   4196936   4197340   4197547  
  4600.000000   4197594   4197555   4197447   4197312   4197126  
  4590.000000   4196891   4196555   4196104   4195488   4194695  
  4580.000000   4193688   4192465   4190999   4189301   4187366  
  4570.000000   4185224   4182892   4180415   4177817   4175139  
  4560.000000   4172391   4169598   4166759   4163890   4160994  
  4550.000000   4158090   4155183   4152286   4149401   4146528  
  4540.000000   4143668   4140821   4138001   4135219   4132496  
  4530.000000   4129836   4127248   4124709   4122217   4119742  
  4520.000000   4117302   4114889   4112562   4110338   4108300  
  4510.000000   4106463   4104906   4103635   4102735   4102212  
  4500.000000   4102171   4102620   4103663   4105287   4107573  
  4490.000000   4110484   4114093   4118367   4123398   4129166  
  4480.000000   4135772   4143177   4151447   4160499   4170350  
  4470.000000   4180884   4192097   4203876   4216223   4229048  
  4460.000000   4242362   4256088   4270235   4284725   4299552  
  4450.000000   4314638   4329963   4345456   4361090   4376813  
  4440.000000   4392597   4408405   4424200   4439954   4455613  
  4430.000000   4471152   4486504   4501655   4516533   4531134  
  4420.000000   4545377   4559260   4572684   4585635   4597996  
  4410.000000   4609738   4620736   4630964   4640314   4648791  
  4400.000000   4656335   4663011   4668833   4673934   4678395  
  4390.000000   4682397   4686052   4689535   4692934   4696363  
  4380.000000   4699844   4703418   4707061   4710781   4714569  
  4370.000000   4718458   4722481   4726691   4731133   4735836  
  4360.000000   4740812   4746058   4751553   4757287   4763216  
  4350.000000   4769340   4775584   4781952   4788361   4794844  
  4340.000000   4801349   4807924   4814481   4820922   4826925  
  4330.000000   4832070   4835749   4837374   4836427   4832681  
  4320.000000   4826242   4817619   4807583   4797081   4786971  
  4310.000000   4777954   4770397   4764424   4759885   4756554  
  4300.000000   4754146   4752452   4751317   4750651   4750411  
  4290.000000   4750528   4750975   4751673   4752610   4753736  
  4280.000000   4755069   4756595   4758317   4760225   4762292  
  4270.000000   4764511   4766838   4769243   4771610   4773779  
  4260.000000   4775473   4776374   4776125   4774455   4771211  
  4250.000000   4766452   4760412   4753502   4746182   4738931  
  4240.000000   4732102   4725948   4720532   4715835   4711721  
  4230.000000   4708052   4704674   4701470   4698355   4695267  
  4220.000000   4692196   4689126   4686109   4683171   4680417  
  4210.000000   4677902   4675740   4673972   4672665   4671803  
  4200.000000   4671382   4671329   4671592   4672078   4672741  
  4190.000000   4673505   4674366   4675283   4676290   4677367  
  4180.000000   4678554   4679826   4681220   4682709   4684346  
  4170.000000   4686137   4688174   4690497   4693214   4696355  
  4160.000000   4699994   4704108   4708721   4713771   4719270  
  4150.000000   4725164   4731491   4738219   4745407   4753026  
  4140.000000   4761132   4769681   4778716   4788180   4798107  
  4130.000000   4808431   4819183   4830301   4841823   4853712  
  4120.000000   4866029   4878766   4891999   4905729   4920015  
  4110.000000   4934836   4950210   4966076   4982411   4999123  
  4100.000000   5016164   5033444   5050923   5068545   5086303  
  4090.000000   5104186   5122203   5140355   5158628   5177005  
  4080.000000   5195437   5213895   5232310   5250662   5268872  
  4070.000000   5286916   5304693   5322171   5339242   5355893  
  4060.000000   5372033   5387676   5402735   5417223   5431038  
  4050.000000   5444201   5456631   5468412   5479522   5490095  
  4040.000000   5500112   5509674   5518690   5527194   5535053  
  4030.000000   5542294   5548806   5554641   5559726   5564108  
  4020.000000   5567690   5570536   5572638   5574089   5574855  
  4010.000000   5575082   5574849   5574144   5572692   5570520  
  4000.000000   5567984  
##END= 
