##TITLE= Sample 048 By ssteindl date Dienstag, November 20 2018
##JCAMP-DX= 4.24
##DATA TYPE= INFRARED SPECTRUM
##ORIGIN= Exported PE Spectrum Data File
##OWNER= Sandra Steindl
##DATE= 18/11/20
##TIME= 15:52:16.00
##SPECTROMETER/DATA SYSTEM= PERKIN-ELMER Frontier FT-IR/NIR IR
##INSTRUMENT PARAMETERS=
  APODIZATION=stark
  DETECTOR=INGAAS
##RESOLUTION= 16.000000
##DELTAX= -2.000000
##XUNITS= 1/CM
##YUNITS= A
##XFACTOR= 1.00
##YFACTOR= 0.00000011920928955078
##FIRSTX= 10000.00
##LASTX= 4000.00
##NPOINTS= 3001
##FIRSTY= 0.189377
##MAXY= 0.570406
##MINY= 0.170330
##XYDATA= (X++(Y..Y))
 10000.000000   1588611   1586388   1584500   1583392   1583136  
  9990.000000   1583443   1584061   1584744   1585244   1585182  
  9980.000000   1584210   1581965   1578206   1572955   1566715  
  9970.000000   1560475   1555522   1553099   1553957   1558077  
  9960.000000   1564582   1571999   1578698   1583376   1585445  
  9950.000000   1585073   1583045   1580335   1577765   1575732  
  9940.000000   1574234   1573033   1571931   1570925   1570244  
  9930.000000   1570222   1571075   1572787   1574963   1577005  
  9920.000000   1578188   1577983   1576197   1573081   1569311  
  9910.000000   1565750   1563275   1562436   1563334   1565508  
  9900.000000   1568045   1569837   1569887   1567717   1563546  
  9890.000000   1558362   1553612   1550792   1550918   1554157  
  9880.000000   1559769   1566278   1571974   1575363   1575618  
  9870.000000   1572734   1567441   1560956   1554593   1549483  
  9860.000000   1546366   1545521   1546817   1549766   1553651  
  9850.000000   1557631   1560840   1562570   1562356   1560161  
  9840.000000   1556395   1551869   1547623   1544614   1543485  
  9830.000000   1544359   1546815   1550048   1553053   1554991  
  9820.000000   1555356   1554173   1551916   1549358   1547269  
  9810.000000   1546119   1545909   1546104   1545912   1544505  
  9800.000000   1541485   1536953   1531591   1526350   1522133  
  9790.000000   1519496   1518455   1518633   1519452   1520528  
  9780.000000   1521848   1523821   1527031   1531882   1538275  
  9770.000000   1545466   1552258   1557323   1559694   1559002  
  9760.000000   1555634   1550522   1544888   1539885   1536327  
  9750.000000   1534607   1534639   1536058   1538260   1540643  
  9740.000000   1542595   1543686   1543639   1542464   1540409  
  9730.000000   1537919   1535490   1533451   1531885   1530548  
  9720.000000   1529065   1527085   1524481   1521439   1518372  
  9710.000000   1515794   1514104   1513460   1513779   1514755  
  9700.000000   1516085   1517442   1518628   1519413   1519585  
  9690.000000   1518921   1517312   1514934   1512282   1510238  
  9680.000000   1509756   1511699   1516397   1523584   1532299  
  9670.000000   1541177   1548738   1553731   1555414   1553553  
  9660.000000   1548472   1540773   1531307   1520944   1510565  
  9650.000000   1500978   1492857   1486732   1482879   1481409  
  9640.000000   1482171   1484932   1489256   1494645   1500429  
  9630.000000   1505848   1510160   1512731   1513351   1512167  
  9620.000000   1509871   1507288   1505305   1504376   1504513  
  9610.000000   1505198   1505698   1505391   1504071   1502123  
  9600.000000   1500344   1499724   1500982   1504389   1509628  
  9590.000000   1515986   1522559   1528542   1533365   1536757  
  9580.000000   1538690   1539302   1538843   1537641   1536066  
  9570.000000   1534481   1533127   1532042   1531017   1529690  
  9560.000000   1527695   1524908   1521502   1517989   1514938  
  9550.000000   1512795   1511613   1511070   1510618   1509762  
  9540.000000   1508337   1506564   1504969   1504066   1504100  
  9530.000000   1504862   1505804   1506275   1505900   1504748  
  9520.000000   1503355   1502434   1502543   1503806   1505864  
  9510.000000   1508071   1509798   1510740   1511009   1511042  
  9500.000000   1511317   1512102   1513285   1514468   1515158  
  9490.000000   1515039   1514116   1512673   1511094   1509620  
  9480.000000   1508232   1506687   1504692   1502119   1499125  
  9470.000000   1496139   1493682   1492168   1491689   1492051  
  9460.000000   1492837   1493685   1494383   1494963   1495578  
  9450.000000   1496351   1497267   1498103   1498548   1498268  
  9440.000000   1497084   1494962   1492048   1488553   1484709  
  9430.000000   1480742   1476890   1473472   1470855   1469435  
  9420.000000   1469458   1470921   1473471   1476479   1479220  
  9410.000000   1481072   1481721   1481168   1479723   1477787  
  9400.000000   1475764   1473892   1472278   1470934   1469874  
  9390.000000   1469195   1469040   1469559   1470788   1472628  
  9380.000000   1474823   1477035   1478910   1480134   1480508  
  9370.000000   1479937   1478481   1476306   1473716   1471086  
  9360.000000   1468833   1467335   1466830   1467370   1468783  
  9350.000000   1470759   1472900   1474880   1476461   1477558  
  9340.000000   1478173   1478383   1478272   1477931   1477435  
  9330.000000   1476863   1476276   1475714   1475156   1474520  
  9320.000000   1473673   1472483   1470875   1468849   1466479  
  9310.000000   1463857   1461048   1458062   1454886   1451546  
  9300.000000   1448202   1445184   1442955   1441957   1442440  
  9290.000000   1444317   1447151   1450250   1452888   1454502  
  9280.000000   1454908   1454307   1453233   1452278   1451908  
  9270.000000   1452291   1453311   1454642   1455904   1456816  
  9260.000000   1457293   1457448   1457501   1457676   1458084  
  9250.000000   1458693   1459317   1459698   1459599   1458902  
  9240.000000   1457668   1456131   1454623   1453518   1453082  
  9230.000000   1453446   1454509   1456014   1457611   1458968  
  9220.000000   1459861   1460181   1459939   1459179   1457956  
  9210.000000   1456286   1454191   1451726   1449061   1446489  
  9200.000000   1444398   1443151   1442956   1443796   1445410  
  9190.000000   1447377   1449224   1450587   1451318   1451485  
  9180.000000   1451329   1451115   1451073   1451292   1451745  
  9170.000000   1452298   1452790   1453094   1453150   1452994  
  9160.000000   1452707   1452415   1452229   1452237   1452468  
  9150.000000   1452883   1453351   1453661   1453568   1452877  
  9140.000000   1451517   1449598   1447383   1445273   1443686  
  9130.000000   1442939   1443124   1444083   1445456   1446767  
  9120.000000   1447575   1447562   1446665   1445029   1442975  
  9110.000000   1440853   1438957   1437479   1436487   1435989  
  9100.000000   1435971   1436487   1437669   1439640   1442404  
  9090.000000   1445748   1449251   1452287   1454188   1454410  
  9080.000000   1452779   1449546   1445373   1441164   1437851  
  9070.000000   1436153   1436388   1438439   1441812   1445831  
  9060.000000   1449785   1453099   1455366   1456424   1456300  
  9050.000000   1455210   1453497   1451602   1450013   1449140  
  9040.000000   1449222   1450218   1451800   1453429   1454462  
  9030.000000   1454396   1452982   1450358   1446959   1443412  
  9020.000000   1440337   1438174   1437087   1436923   1437317  
  9010.000000   1437792   1437935   1437457   1436282   1434528  
  9000.000000   1432513   1430639   1429309   1428828   1429345  
  8990.000000   1430810   1432972   1435487   1438010   1440327  
  8980.000000   1442377   1444261   1446155   1448170   1450258  
  8970.000000   1452133   1453376   1453523   1452272   1449585  
  8960.000000   1445765   1441401   1437203   1433858   1431812  
  8950.000000   1431230   1431941   1433574   1435651   1437717  
  8940.000000   1439414   1440523   1440976   1440807   1440132  
  8930.000000   1439095   1437902   1436753   1435881   1435474  
  8920.000000   1435686   1436567   1438030   1439868   1441780  
  8910.000000   1443466   1444694   1445378   1445606   1445591  
  8900.000000   1445604   1445837   1446348   1447022   1447649  
  8890.000000   1448022   1448048   1447821   1447592   1447694  
  8880.000000   1448373   1449706   1451524   1453484   1455175  
  8870.000000   1456277   1456663   1456410   1455749   1454933  
  8860.000000   1454158   1453480   1452849   1452153   1451325  
  8850.000000   1450376   1449395   1448535   1447920   1447661  
  8840.000000   1447799   1448361   1449363   1450814   1452697  
  8830.000000   1454889   1457166   1459167   1460511   1460863  
  8820.000000   1460092   1458317   1455943   1453552   1451781  
  8810.000000   1451135   1451874   1453953   1457046   1460657  
  8800.000000   1464237   1467319   1469615   1471059   1471807  
  8790.000000   1472164   1472493   1473102   1474171   1475695  
  8780.000000   1477520   1479390   1481060   1482377   1483311  
  8770.000000   1483952   1484428   1484853   1485248   1485563  
  8760.000000   1485694   1485582   1485258   1484873   1484657  
  8750.000000   1484828   1485509   1486667   1488114   1489568  
  8740.000000   1490744   1491434   1491580   1491269   1490713  
  8730.000000   1490181   1489924   1490129   1490874   1492147  
  8720.000000   1493839   1495794   1497824   1499752   1501449  
  8710.000000   1502837   1503917   1504696   1505194   1505368  
  8700.000000   1505154   1504469   1503299   1501754   1500110  
  8690.000000   1498777   1498212   1498796   1500699   1503796  
  8680.000000   1507676   1511724   1515310   1517932   1519369  
  8670.000000   1519690   1519253   1518566   1518183   1518532  
  8660.000000   1519863   1522167   1525246   1528747   1532273  
  8650.000000   1535461   1538042   1539913   1541117   1541865  
  8640.000000   1542449   1543194   1544371   1546131   1548471  
  8630.000000   1551216   1554057   1556620   1558549   1559621  
  8620.000000   1559790   1559222   1558235   1557240   1556620  
  8610.000000   1556642   1557389   1558752   1560485   1562295  
  8600.000000   1563926   1565239   1566214   1566942   1567548  
  8590.000000   1568150   1568835   1569642   1570604   1571724  
  8580.000000   1573018   1574451   1575951   1577380   1578569  
  8570.000000   1579371   1579730   1579737   1579639   1579771  
  8560.000000   1580460   1581907   1584111   1586858   1589774  
  8550.000000   1592454   1594588   1596059   1596957   1597531  
  8540.000000   1598086   1598880   1600037   1601523   1603170  
  8530.000000   1604753   1606075   1607021   1607585   1607853  
  8520.000000   1607959   1608036   1608163   1608372   1608645  
  8510.000000   1608969   1609344   1609827   1610502   1611478  
  8500.000000   1612807   1614479   1616375   1618314   1620066  
  8490.000000   1621433   1622299   1622648   1622576   1622216  
  8480.000000   1621730   1621217   1620739   1620278   1619802  
  8470.000000   1619267   1618674   1618071   1617560   1617297  
  8460.000000   1617462   1618249   1619792   1622143   1625213  
  8450.000000   1628779   1632508   1636015   1638963   1641130  
  8440.000000   1642481   1643127   1643279   1643145   1642872  
  8430.000000   1642510   1642045   1641469   1640841   1640316  
  8420.000000   1640088   1640327   1641066   1642190   1643421  
  8410.000000   1644457   1645064   1645203   1645032   1644857  
  8400.000000   1645000   1645686   1646954   1648650   1650497  
  8390.000000   1652195   1653523   1654362   1654691   1654545  
  8380.000000   1653983   1653085   1651952   1650747   1649689  
  8370.000000   1649024   1648933   1649470   1650511   1651796  
  8360.000000   1652985   1653793   1654050   1653783   1653157  
  8350.000000   1652412   1651757   1651315   1651114   1651107  
  8340.000000   1651222   1651383   1651541   1651641   1651615  
  8330.000000   1651360   1650780   1649816   1648509   1646993  
  8320.000000   1645486   1644219   1643384   1643082   1643308  
  8310.000000   1643986   1644995   1646240   1647630   1649107  
  8300.000000   1650600   1652035   1653325   1654388   1655173  
  8290.000000   1655658   1655859   1655791   1655454   1654814  
  8280.000000   1653830   1652495   1650860   1649069   1647307  
  8270.000000   1645790   1644660   1643988   1643708   1643694  
  8260.000000   1643764   1643782   1643663   1643394   1643006  
  8250.000000   1642535   1641997   1641352   1640533   1639450  
  8240.000000   1638056   1636355   1634432   1632434   1630546  
  8230.000000   1628956   1627795   1627123   1626885   1626954  
  8220.000000   1627139   1627269   1627217   1626949   1626510  
  8210.000000   1625992   1625490   1625043   1624628   1624148  
  8200.000000   1623503   1622599   1621405   1619944   1618277  
  8190.000000   1616488   1614647   1612839   1611151   1609709  
  8180.000000   1608641   1608063   1608010   1608406   1609041  
  8170.000000   1609609   1609777   1609288   1608044   1606126  
  8160.000000   1603781   1601324   1599052   1597156   1595698  
  8150.000000   1594621   1593791   1593067   1592331   1591521  
  8140.000000   1590618   1589634   1588586   1587493   1586369  
  8130.000000   1585228   1584084   1582945   1581818   1580716  
  8120.000000   1579674   1578749   1578018   1577541   1577328  
  8110.000000   1577289   1577248   1576954   1576176   1574763  
  8100.000000   1572731   1570267   1567701   1565420   1563754  
  8090.000000   1562901   1562871   1563517   1564585   1565799  
  8080.000000   1566916   1567764   1568244   1568310   1567960  
  8070.000000   1567212   1566122   1564766   1563261   1561727  
  8060.000000   1560292   1559048   1558041   1557274   1556687  
  8050.000000   1556206   1555727   1555169   1554462   1553588  
  8040.000000   1552574   1551490   1550433   1549487   1548699  
  8030.000000   1548042   1547429   1546726   1545826   1544674  
  8020.000000   1543326   1541915   1540630   1539635   1539022  
  8010.000000   1538780   1538813   1538982   1539172   1539324  
  8000.000000   1539449   1539596   1539816   1540120   1540468  
  7990.000000   1540783   1540987   1541028   1540902   1540642  
  7980.000000   1540299   1539915   1539515   1539110   1538705  
  7970.000000   1538312   1537940   1537590   1537229   1536799  
  7960.000000   1536232   1535488   1534587   1533624   1532746  
  7950.000000   1532107   1531804   1531836   1532102   1532432  
  7940.000000   1532653   1532655   1532429   1532054   1531665  
  7930.000000   1531377   1531254   1531265   1531327   1531317  
  7920.000000   1531140   1530749   1530162   1529454   1528733  
  7910.000000   1528132   1527773   1527766   1528170   1528988  
  7900.000000   1530134   1531445   1532702   1533677   1534192  
  7890.000000   1534161   1533616   1532689   1531567   1530436  
  7880.000000   1529445   1528676   1528161   1527897   1527865  
  7870.000000   1528037   1528363   1528761   1529105   1529262  
  7860.000000   1529124   1528668   1527978   1527238   1526686  
  7850.000000   1526524   1526849   1527608   1528611   1529590  
  7840.000000   1530290   1530550   1530348   1529795   1529078  
  7830.000000   1528401   1527905   1527650   1527609   1527705  
  7820.000000   1527845   1527957   1527998   1527950   1527805  
  7810.000000   1527553   1527175   1526656   1525991   1525198  
  7800.000000   1524323   1523425   1522568   1521811   1521191  
  7790.000000   1520732   1520434   1520296   1520293   1520407  
  7780.000000   1520600   1520832   1521059   1521233   1521314  
  7770.000000   1521262   1521045   1520626   1519974   1519060  
  7760.000000   1517878   1516450   1514845   1513178   1511594  
  7750.000000   1510245   1509251   1508674   1508492   1508618  
  7740.000000   1508907   1509217   1509434   1509505   1509443  
  7730.000000   1509303   1509153   1509031   1508936   1508818  
  7720.000000   1508611   1508259   1507755   1507142   1506509  
  7710.000000   1505953   1505541   1505288   1505146   1505024  
  7700.000000   1504825   1504479   1503971   1503343   1502673  
  7690.000000   1502049   1501532   1501149   1500885   1500706  
  7680.000000   1500577   1500482   1500430   1500436   1500519  
  7670.000000   1500665   1500841   1500982   1501026   1500918  
  7660.000000   1500648   1500239   1499763   1499311   1498979  
  7650.000000   1498845   1498947   1499275   1499771   1500343  
  7640.000000   1500881   1501286   1501495   1501499   1501345  
  7630.000000   1501124   1500942   1500878   1500965   1501163  
  7620.000000   1501389   1501536   1501525   1501335   1501019  
  7610.000000   1500692   1500495   1500549   1500907   1501545  
  7600.000000   1502368   1503245   1504056   1504723   1505227  
  7590.000000   1505599   1505897   1506177   1506467   1506758  
  7580.000000   1507020   1507208   1507291   1507252   1507093  
  7570.000000   1506828   1506477   1506068   1505640   1505245  
  7560.000000   1504953   1504835   1504951   1505323   1505925  
  7550.000000   1506681   1507490   1508247   1508887   1509395  
  7540.000000   1509814   1510220   1510704   1511329   1512133  
  7530.000000   1513099   1514190   1515339   1516493   1517594  
  7520.000000   1518607   1519496   1520247   1520862   1521381  
  7510.000000   1521877   1522457   1523240   1524330   1525781  
  7500.000000   1527580   1529632   1531786   1533865   1535716  
  7490.000000   1537236   1538399   1539242   1539866   1540396  
  7480.000000   1540962   1541667   1542586   1543750   1545161  
  7470.000000   1546781   1548547   1550377   1552188   1553906  
  7460.000000   1555483   1556907   1558209   1559447   1560701  
  7450.000000   1562044   1563536   1565201   1567042   1569028  
  7440.000000   1571107   1573214   1575280   1577235   1579022  
  7430.000000   1580602   1581971   1583162   1584249   1585330  
  7420.000000   1586507   1587861   1589432   1591213   1593149  
  7410.000000   1595164   1597188   1599173   1601106   1602993  
  7400.000000   1604854   1606687   1608470   1610152   1611683  
  7390.000000   1613036   1614234   1615357   1616527   1617884  
  7380.000000   1619534   1621527   1623822   1626309   1628838  
  7370.000000   1631256   1633450   1635359   1636987   1638384  
  7360.000000   1639623   1640786   1641946   1643166   1644499  
  7350.000000   1645995   1647686   1649582   1651649   1653815  
  7340.000000   1655965   1657980   1659755   1661239   1662444  
  7330.000000   1663453   1664385   1665368   1666504   1667842  
  7320.000000   1669368   1671023   1672720   1674376   1675928  
  7310.000000   1677336   1678586   1679680   1680631   1681463  
  7300.000000   1682216   1682949   1683741   1684673   1685805  
  7290.000000   1687158   1688693   1690329   1691954   1693474  
  7280.000000   1694828   1696015   1697079   1698081   1699073  
  7270.000000   1700064   1701025   1701893   1702615   1703170  
  7260.000000   1703593   1703967   1704400   1704985   1705777  
  7250.000000   1706779   1707956   1709254   1710639   1712094  
  7240.000000   1713640   1715288   1717047   1718873   1720712  
  7230.000000   1722477   1724131   1725654   1727104   1728550  
  7220.000000   1730097   1731807   1733730   1735861   1738186  
  7210.000000   1740676   1743330   1746151   1749164   1752377  
  7200.000000   1755793   1759372   1763068   1766806   1770531  
  7190.000000   1774178   1777723   1781137   1784436   1787634  
  7180.000000   1790783   1793929   1797133   1800430   1803845  
  7170.000000   1807356   1810932   1814514   1818070   1821579  
  7160.000000   1825071   1828590   1832204   1835953   1839870  
  7150.000000   1843952   1848197   1852589   1857144   1861863  
  7140.000000   1866769   1871846   1877071   1882376   1887706  
  7130.000000   1892999   1898245   1903450   1908670   1913950  
  7120.000000   1919345   1924861   1930505   1936247   1942076  
  7110.000000   1947977   1953957   1960012   1966139   1972311  
  7100.000000   1978505   1984691   1990873   1997068   2003323  
  7090.000000   2009668   2016121   2022647   2029190   2035673  
  7080.000000   2042041   2048279   2054425   2060555   2066760  
  7070.000000   2073104   2079611   2086244   2092929   2099573  
  7060.000000   2106100   2112471   2118688   2124791   2130840  
  7050.000000   2136896   2142999   2149166   2155380   2161604  
  7040.000000   2167789   2173899   2179916   2185854   2191745  
  7030.000000   2197638   2203562   2209535   2215528   2221497  
  7020.000000   2227377   2233121   2238698   2244112   2249381  
  7010.000000   2254537   2259592   2264555   2269410   2274155  
  7000.000000   2278785   2283328   2287805   2292258   2296698  
  6990.000000   2301138   2305558   2309953   2314304   2318621  
  6980.000000   2322899   2327142   2331315   2335378   2339262  
  6970.000000   2342919   2346307   2349446   2352376   2355184  
  6960.000000   2357944   2360732   2363580   2366501   2369458  
  6950.000000   2372411   2375293   2378051   2380626   2382989  
  6940.000000   2385127   2387070   2388865   2390590   2392312  
  6930.000000   2394092   2395950   2397886   2399861   2401840  
  6920.000000   2403777   2405655   2407453   2409170   2410793  
  6910.000000   2412313   2413712   2414982   2416119   2417135  
  6900.000000   2418041   2418856   2419591   2420264   2420893  
  6890.000000   2421514   2422163   2422884   2423698   2424606  
  6880.000000   2425575   2426557   2427499   2428378   2429197  
  6870.000000   2429991   2430799   2431649   2432536   2433422  
  6860.000000   2434253   2434984   2435597   2436110   2436565  
  6850.000000   2437010   2437473   2437960   2438452   2438925  
  6840.000000   2439366   2439784   2440197   2440629   2441083  
  6830.000000   2441549   2441996   2442405   2442766   2443101  
  6820.000000   2443443   2443824   2444249   2444691   2445090  
  6810.000000   2445381   2445506   2445450   2445230   2444903  
  6800.000000   2444537   2444207   2443964   2443849   2443872  
  6790.000000   2444025   2444266   2444532   2444732   2444779  
  6780.000000   2444595   2444149   2443460   2442599   2441670  
  6770.000000   2440774   2439984   2439329   2438793   2438337  
  6760.000000   2437915   2437496   2437061   2436606   2436126  
  6750.000000   2435614   2435065   2434486   2433902   2433359  
  6740.000000   2432906   2432578   2432373   2432250   2432130  
  6730.000000   2431932   2431588   2431072   2430401   2429622  
  6720.000000   2428789   2427942   2427098   2426250   2425379  
  6710.000000   2424471   2423520   2422537   2421534   2420533  
  6700.000000   2419546   2418587   2417666   2416793   2415965  
  6690.000000   2415176   2414398   2413599   2412745   2411823  
  6680.000000   2410837   2409817   2408799   2407812   2406855  
  6670.000000   2405903   2404906   2403818   2402610   2401290  
  6660.000000   2399890   2398460   2397039   2395650   2394285  
  6650.000000   2392928   2391556   2390165   2388766   2387386  
  6640.000000   2386046   2384760   2383519   2382296   2381057  
  6630.000000   2379766   2378395   2376929   2375365   2373716  
  6620.000000   2372007   2370282   2368595   2367004   2365550  
  6610.000000   2364254   2363094   2362014   2360935   2359774  
  6600.000000   2358467   2356981   2355317   2353507   2351597  
  6590.000000   2349644   2347703   2345825   2344056   2342428  
  6580.000000   2340954   2339621   2338390   2337203   2336001  
  6570.000000   2334739   2333403   2332004   2330580   2329165  
  6560.000000   2327790   2326459   2325165   2323890   2322623  
  6550.000000   2321363   2320122   2318913   2317746   2316623  
  6540.000000   2315535   2314474   2313433   2312406   2311385  
  6530.000000   2310352   2309280   2308135   2306899   2305572  
  6520.000000   2304189   2302808   2301494   2300297   2299233  
  6510.000000   2298279   2297382   2296485   2295543   2294546  
  6500.000000   2293511   2292473   2291466   2290505   2289583  
  6490.000000   2288677   2287756   2286796   2285790   2284743  
  6480.000000   2283673   2282607   2281568   2280580   2279658  
  6470.000000   2278806   2278009   2277236   2276441   2275580  
  6460.000000   2274622   2273564   2272440   2271300   2270204  
  6450.000000   2269190   2268266   2267407   2266571   2265719  
  6440.000000   2264833   2263922   2263021   2262162   2261373  
  6430.000000   2260653   2259989   2259357   2258744   2258145  
  6420.000000   2257575   2257043   2256552   2256084   2255617  
  6410.000000   2255122   2254588   2254021   2253446   2252892  
  6400.000000   2252385   2251938   2251557   2251237   2250975  
  6390.000000   2250767   2250606   2250469   2250321   2250120  
  6380.000000   2249826   2249424   2248931   2248395   2247878  
  6370.000000   2247429   2247064   2246763   2246467   2246117  
  6360.000000   2245662   2245093   2244427   2243707   2242973  
  6350.000000   2242251   2241546   2240856   2240173   2239502  
  6340.000000   2238852   2238235   2237644   2237064   2236460  
  6330.000000   2235802   2235071   2234278   2233448   2232620  
  6320.000000   2231819   2231050   2230291   2229512   2228680  
  6310.000000   2227783   2226823   2225821   2224793   2223751  
  6300.000000   2222685   2221586   2220444   2219268   2218073  
  6290.000000   2216888   2215726   2214590   2213455   2212288  
  6280.000000   2211052   2209730   2208318   2206838   2205316  
  6270.000000   2203779   2202239   2200703   2199161   2197608  
  6260.000000   2196033   2194431   2192797   2191126   2189413  
  6250.000000   2187660   2185875   2184074   2182274   2180494  
  6240.000000   2178739   2177009   2175292   2173583   2171883  
  6230.000000   2170204   2168560   2166961   2165401   2163858  
  6220.000000   2162296   2160681   2158990   2157225   2155408  
  6210.000000   2153575   2151764   2150002   2148300   2146657  
  6200.000000   2145061   2143503   2141970   2140453   2138939  
  6190.000000   2137409   2135846   2134235   2132577   2130886  
  6180.000000   2129193   2127535   2125945   2124444   2123036  
  6170.000000   2121710   2120447   2119223   2118017   2116808  
  6160.000000   2115579   2114319   2113019   2111681   2110314  
  6150.000000   2108933   2107556   2106192   2104849   2103521  
  6140.000000   2102204   2100894   2099594   2098314   2097065  
  6130.000000   2095849   2094662   2093490   2092317   2091135  
  6120.000000   2089952   2088782   2087649   2086565   2085531  
  6110.000000   2084523   2083516   2082480   2081407   2080304  
  6100.000000   2079204   2078140   2077146   2076237   2075415  
  6090.000000   2074665   2073975   2073331   2072736   2072187  
  6080.000000   2071693   2071247   2070849   2070486   2070160  
  6070.000000   2069868   2069620   2069419   2069274   2069178  
  6060.000000   2069136   2069140   2069203   2069332   2069545  
  6050.000000   2069846   2070240   2070705   2071232   2071799  
  6040.000000   2072414   2073084   2073843   2074712   2075710  
  6030.000000   2076826   2078040   2079310   2080610   2081918  
  6020.000000   2083240   2084588   2085989   2087451   2088981  
  6010.000000   2090557   2092163   2093765   2095354   2096918  
  6000.000000   2098472   2100027   2101614   2103253   2104968  
  5990.000000   2106768   2108660   2110630   2112669   2114750  
  5980.000000   2116868   2119012   2121198   2123443   2125777  
  5970.000000   2128215   2130771   2133427   2136170   2138966  
  5960.000000   2141795   2144635   2147479   2150317   2153148  
  5950.000000   2155964   2158768   2161563   2164372   2167220  
  5940.000000   2170146   2173173   2176316   2179569   2182908  
  5930.000000   2186301   2189719   2193139   2196547   2199933  
  5920.000000   2203285   2206584   2209805   2212922   2215921  
  5910.000000   2218798   2221565   2224242   2226851   2229412  
  5900.000000   2231940   2234452   2236967   2239515   2242120  
  5890.000000   2244811   2247586   2250433   2253306   2256158  
  5880.000000   2258931   2261588   2264103   2266473   2268705  
  5870.000000   2270812   2272811   2274723   2276571   2278386  
  5860.000000   2280199   2282040   2283924   2285857   2287827  
  5850.000000   2289823   2291833   2293860   2295914   2298013  
  5840.000000   2300166   2302373   2304620   2306885   2309145  
  5830.000000   2311386   2313604   2315800   2317978   2320135  
  5820.000000   2322262   2324350   2326391   2328390   2330362  
  5810.000000   2332330   2334308   2336311   2338319   2340325  
  5800.000000   2342289   2344202   2346035   2347797   2349470  
  5790.000000   2351062   2352541   2353890   2355052   2355984  
  5780.000000   2356608   2356871   2356706   2356084   2354993  
  5770.000000   2353478   2351609   2349508   2347293   2345089  
  5760.000000   2342979   2341021   2339229   2337605   2336137  
  5750.000000   2334826   2333670   2332673   2331825   2331099  
  5740.000000   2330461   2329868   2329299   2328741   2328214  
  5730.000000   2327734   2327330   2327002   2326746   2326533  
  5720.000000   2326340   2326146   2325949   2325754   2325581  
  5710.000000   2325442   2325351   2325310   2325322   2325386  
  5700.000000   2325498   2325650   2325828   2326012   2326176  
  5690.000000   2326309   2326405   2326483   2326561   2326667  
  5680.000000   2326800   2326950   2327068   2327103   2326990  
  5670.000000   2326687   2326161   2325405   2324421   2323226  
  5660.000000   2321834   2320278   2318592   2316830   2315047  
  5650.000000   2313301   2311632   2310067   2308604   2307236  
  5640.000000   2305943   2304715   2303544   2302430   2301372  
  5630.000000   2300365   2299401   2298462   2297539   2296621  
  5620.000000   2295705   2294789   2293873   2292950   2292016  
  5610.000000   2291069   2290116   2289168   2288243   2287355  
  5600.000000   2286505   2285685   2284877   2284065   2283236  
  5590.000000   2282394   2281549   2280714   2279895   2279087  
  5580.000000   2278271   2277429   2276543   2275614   2274652  
  5570.000000   2273676   2272705   2271750   2270811   2269877  
  5560.000000   2268933   2267966   2266962   2265912   2264811  
  5550.000000   2263659   2262461   2261236   2260009   2258816  
  5540.000000   2257686   2256638   2255668   2254754   2253857  
  5530.000000   2252942   2251982   2250972   2249921   2248848  
  5520.000000   2247770   2246696   2245624   2244548   2243458  
  5510.000000   2242348   2241213   2240050   2238853   2237618  
  5500.000000   2236347   2235056   2233772   2232535   2231377  
  5490.000000   2230315   2229329   2228377   2227398   2226340  
  5480.000000   2225166   2223877   2222495   2221062   2219608  
  5470.000000   2218153   2216692   2215211   2213695   2212137  
  5460.000000   2210538   2208906   2207243   2205545   2203801  
  5450.000000   2202005   2200162   2198293   2196429   2194608  
  5440.000000   2192856   2191183   2189590   2188065   2186605  
  5430.000000   2185205   2183863   2182563   2181287   2179997  
  5420.000000   2178674   2177304   2175925   2174587   2173375  
  5410.000000   2172348   2171543   2170936   2170489   2170132  
  5400.000000   2169833   2169567   2169363   2169240   2169241  
  5390.000000   2169367   2169622   2169978   2170440   2171003  
  5380.000000   2171715   2172602   2173712   2175040   2176587  
  5370.000000   2178296   2180147   2182088   2184130   2186251  
  5360.000000   2188495   2190852   2193378   2196072   2199008  
  5350.000000   2202202   2205745   2209648   2213983   2218716  
  5340.000000   2223881   2229416   2235358   2241661   2248390  
  5330.000000   2255511   2263089   2271074   2279518   2288362  
  5320.000000   2297681   2307451   2317787   2328684   2340265  
  5310.000000   2352497   2365469   2379108   2393478   2408505  
  5300.000000   2424267   2440719   2457970   2476003   2494934  
  5290.000000   2514731   2535452   2556993   2579315   2602244  
  5280.000000   2625719   2649615   2673965   2698771   2724155  
  5270.000000   2750150   2776793   2803976   2831544   2859281  
  5260.000000   2887004   2914607   2942070   2969456   2996810  
  5250.000000   3024161   3051398   3078381   3104854   3130666  
  5240.000000   3155641   3179813   3203182   3225920   3248068  
  5230.000000   3269756   3290916   3311554   3331494   3350702  
  5220.000000   3369030   3386533   3403172   3419101   3434337  
  5210.000000   3449030   3463127   3476674   3489515   3501635  
  5200.000000   3512890   3523345   3532961   3541897   3550160  
  5190.000000   3557883   3565008   3571582   3577491   3582766  
  5180.000000   3587326   3591255   3594519   3597216   3599303  
  5170.000000   3600847   3601790   3602197   3602039   3601409  
  5160.000000   3600292   3598769   3596799   3594428   3591608  
  5150.000000   3588398   3584795   3580894   3576710   3572312  
  5140.000000   3567671   3562799   3557642   3552218   3546518  
  5130.000000   3540618   3534556   3528413   3522206   3515963  
  5120.000000   3509653   3503273   3496797   3490243   3483616  
  5110.000000   3476949   3470249   3463532   3456789   3450029  
  5100.000000   3443249   3436473   3429714   3422995   3416316  
  5090.000000   3409676   3403050   3396424   3389778   3383113  
  5080.000000   3376427   3369733   3363033   3356333   3349624  
  5070.000000   3342910   3336184   3329456   3322727   3316007  
  5060.000000   3309292   3302581   3295859   3289123   3282364  
  5050.000000   3275583   3268780   3261957   3255107   3248227  
  5040.000000   3241309   3234352   3227362   3220353   3213342  
  5030.000000   3206347   3199379   3192441   3185540   3178679  
  5020.000000   3171875   3165145   3158521   3152022   3145673  
  5010.000000   3139469   3133412   3127474   3121652   3115922  
  5000.000000   3110300   3104783   3099405   3094172   3089124  
  4990.000000   3084258   3079606   3075156   3070936   3066926  
  4980.000000   3063152   3059591   3056272   3053175   3050337  
  4970.000000   3047746   3045449   3043431   3041736   3040336  
  4960.000000   3039262   3038477   3038012   3037835   3037990  
  4950.000000   3038455   3039274   3040419   3041921   3043734  
  4940.000000   3045878   3048307   3051047   3054064   3057397  
  4930.000000   3061017   3064964   3069206   3073778   3078651  
  4920.000000   3083856   3089367   3095213   3101365   3107838  
  4910.000000   3114593   3121634   3128913   3136427   3144131  
  4900.000000   3152014   3160039   3168194   3176453   3184810  
  4890.000000   3193248   3201756   3210312   3218881   3227423  
  4880.000000   3235877   3244197   3252318   3260214   3267835  
  4870.000000   3275175   3282192   3288887   3295217   3301186  
  4860.000000   3306763   3311972   3316803   3321304   3325480  
  4850.000000   3329388   3333034   3336468   3339688   3342737  
  4840.000000   3345604   3348322   3350880   3353307   3355597  
  4830.000000   3357785   3359880   3361917   3363908   3365874  
  4820.000000   3367811   3369723   3371595   3373430   3375228  
  4810.000000   3377008   3378781   3380566   3382363   3384170  
  4800.000000   3385967   3387739   3389470   3391163   3392820  
  4790.000000   3394461   3396094   3397730   3399363   3400986  
  4780.000000   3402585   3404151   3405672   3407146   3408556  
  4770.000000   3409895   3411138   3412274   3413279   3414156  
  4760.000000   3414903   3415541   3416075   3416527   3416886  
  4750.000000   3417158   3417318   3417366   3417286   3417089  
  4740.000000   3416774   3416363   3415858   3415274   3414604  
  4730.000000   3413852   3413010   3412081   3411062   3409964  
  4720.000000   3408793   3407567   3406299   3405009   3403717  
  4710.000000   3402441   3401203   3400016   3398895   3397842  
  4700.000000   3396863   3395957   3395126   3394373   3393708  
  4690.000000   3393139   3392682   3392340   3392121   3392014  
  4680.000000   3392008   3392069   3392168   3392259   3392315  
  4670.000000   3392299   3392212   3392049   3391846   3391632  
  4660.000000   3391461   3391369   3391404   3391588   3391948  
  4650.000000   3392490   3393224   3394143   3395250   3396528  
  4640.000000   3397968   3399545   3401244   3403038   3404911  
  4630.000000   3406839   3408804   3410783   3412753   3414685  
  4620.000000   3416553   3418328   3419985   3421507   3422875  
  4610.000000   3424086   3425132   3426021   3426759   3427367  
  4600.000000   3427858   3428262   3428590   3428868   3429093  
  4590.000000   3429276   3429404   3429478   3429479   3429408  
  4580.000000   3429249   3429003   3428658   3428220   3427684  
  4570.000000   3427064   3426363   3425602   3424788   3423936  
  4560.000000   3423047   3422128   3421174   3420189   3419166  
  4550.000000   3418111   3417018   3415888   3414714   3413489  
  4540.000000   3412212   3410887   3409531   3408165   3406821  
  4530.000000   3405513   3404268   3403078   3401955   3400881  
  4520.000000   3399878   3398943   3398132   3397460   3396999  
  4510.000000   3396765   3396824   3397174   3397881   3398936  
  4500.000000   3400414   3402310   3404708   3407596   3411052  
  4490.000000   3415051   3419658   3424837   3430649   3437049  
  4480.000000   3444087   3451709   3459951   3468748   3478125  
  4470.000000   3488013   3498426   3509293   3520616   3532317  
  4460.000000   3544384   3556737   3569358   3582171   3595152  
  4450.000000   3608231   3621379   3634536   3647679   3660778  
  4440.000000   3673829   3686837   3699810   3712773   3725721  
  4430.000000   3738667   3751571   3764427   3777161   3789756  
  4420.000000   3802118   3814224   3825967   3837319   3848163  
  4410.000000   3858465   3868107   3877066   3885248   3892664  
  4400.000000   3899271   3905132   3910260   3914762   3918689  
  4390.000000   3922169   3925264   3928095   3930719   3933230  
  4380.000000   3935665   3938092   3940531   3943034   3945624  
  4370.000000   3948354   3951261   3954394   3957788   3961474  
  4360.000000   3965463   3969757   3974333   3979168   3984199  
  4350.000000   3989384   3994630   3999895   4005093   4010227  
  4340.000000   4015263   4020239   4025118   4029854   4034254  
  4330.000000   4038058   4040879   4042340   4042107   4040041  
  4320.000000   4036208   4030950   4024767   4018286   4012064  
  4310.000000   4006570   4002036   3998543   3995980   3994187  
  4300.000000   3992953   3992118   3991553   3991174   3990929  
  4290.000000   3990767   3990671   3990609   3990604   3990670  
  4280.000000   3990859   3991209   3991751   3992500   3993443  
  4270.000000   3994569   3995836   3997208   3998592   3999864  
  4260.000000   4000826   4001248   4000881   3999532   3997099  
  4250.000000   3993628   3989297   3984411   3979308   3974334  
  4240.000000   3969737   3965678   3962181   3959201   3956617  
  4230.000000   3954313   3952169   3950103   3948053   3945977  
  4220.000000   3943860   3941685   3939482   3937269   3935128  
  4210.000000   3933112   3931313   3929771   3928533   3927584  
  4200.000000   3926915   3926469   3926222   3926120   3926154  
  4190.000000   3926287   3926525   3926835   3927235   3927694  
  4180.000000   3928250   3928895   3929695   3930666   3931892  
  4170.000000   3933398   3935268   3937517   3940217   3943367  
  4160.000000   3947022   3951157   3955808   3960929   3966543  
  4150.000000   3972592   3979096   3985995   3993313   4000991  
  4140.000000   4009064   4017481   4026289   4035452   4045025  
  4130.000000   4054979   4065365   4076148   4087365   4098972  
  4120.000000   4110995   4123393   4136190   4149360   4162935  
  4110.000000   4176895   4191266   4206012   4221124   4236532  
  4100.000000   4252191   4268014   4283957   4299965   4316035  
  4090.000000   4332165   4348382   4364709   4381160   4397744  
  4080.000000   4414441   4431245   4448112   4465028   4481930  
  4070.000000   4498787   4515506   4532047   4548304   4564254  
  4060.000000   4579807   4594968   4609656   4623886   4637573  
  4050.000000   4650747   4663345   4675445   4687013   4698142  
  4040.000000   4708768   4718933   4728505   4737481   4745717  
  4030.000000   4753241   4759957   4765930   4771090   4775481  
  4020.000000   4778996   4781683   4783517   4784597   4784909  
  4010.000000   4784626   4783846   4782612   4780714   4778206  
  4000.000000   4775383  
##END= 
