##TITLE= Sample 042 By ssteindl date Dienstag, November 20 2018
##JCAMP-DX= 4.24
##DATA TYPE= INFRARED SPECTRUM
##ORIGIN= Exported PE Spectrum Data File
##OWNER= Sandra Steindl
##DATE= 18/11/20
##TIME= 15:34:45.00
##SPECTROMETER/DATA SYSTEM= PERKIN-ELMER Frontier FT-IR/NIR IR
##INSTRUMENT PARAMETERS=
  APODIZATION=stark
  DETECTOR=INGAAS
##RESOLUTION= 16.000000
##DELTAX= -2.000000
##XUNITS= 1/CM
##YUNITS= A
##XFACTOR= 1.00
##YFACTOR= 0.00000011920928955078
##FIRSTX= 10000.00
##LASTX= 4000.00
##NPOINTS= 3001
##FIRSTY= 0.194984
##MAXY= 0.618057
##MINY= 0.172723
##XYDATA= (X++(Y..Y))
 10000.000000   1635646   1636916   1637110   1635055   1631132  
  9990.000000   1626630   1622343   1618416   1614926   1612058  
  9980.000000   1609789   1608041   1606940   1606787   1607790  
  9970.000000   1609899   1612728   1615550   1617467   1617707  
  9960.000000   1615957   1612464   1608081   1603922   1601082  
  9950.000000   1600202   1601322   1603874   1606943   1609637  
  9940.000000   1611351   1611986   1611824   1611434   1611351  
  9930.000000   1611950   1613333   1615359   1617771   1620189  
  9920.000000   1622235   1623431   1623321   1621494   1617776  
  9910.000000   1612381   1605948   1599510   1594208   1591049  
  9900.000000   1590594   1592852   1597282   1603007   1608993  
  9890.000000   1614333   1618280   1620385   1620431   1618497  
  9880.000000   1615020   1610752   1606764   1604081   1603415  
  9870.000000   1604725   1607148   1609171   1609172   1606075  
  9860.000000   1599825   1591563   1583231   1576996   1574376  
  9850.000000   1575812   1580468   1586698   1592688   1597136  
  9840.000000   1599629   1600525   1600572   1600321   1599855  
  9830.000000   1598691   1596222   1592009   1586279   1579814  
  9820.000000   1573797   1569303   1566915   1566630   1567911  
  9810.000000   1570132   1572812   1575859   1579451   1583799  
  9800.000000   1588868   1594201   1599029   1602494   1604046  
  9790.000000   1603601   1601668   1599048   1596632   1595032  
  9780.000000   1594471   1594818   1595658   1596600   1597256  
  9770.000000   1597509   1597324   1596904   1596499   1596470  
  9760.000000   1597125   1598623   1600825   1603165   1604735  
  9750.000000   1604403   1601233   1594774   1585410   1574329  
  9740.000000   1563325   1554271   1548593   1546863   1548666  
  9730.000000   1552845   1557885   1562467   1565762   1567648  
  9720.000000   1568532   1569133   1570133   1571924   1574551  
  9710.000000   1577671   1580787   1583275   1584636   1584443  
  9700.000000   1582515   1578866   1573813   1567928   1561971  
  9690.000000   1556761   1552926   1550811   1550303   1551026  
  9680.000000   1552442   1554193   1556209   1558742   1562167  
  9670.000000   1566655   1571941   1577176   1581175   1582703  
  9660.000000   1581069   1576358   1569626   1562558   1556990  
  9650.000000   1554330   1555040   1558628   1563759   1568919  
  9640.000000   1572859   1575089   1575825   1575802   1575737  
  9630.000000   1576004   1576416   1576369   1575165   1572335  
  9620.000000   1567921   1562420   1556622   1551275   1546813  
  9610.000000   1543272   1540336   1537586   1534699   1531599  
  9600.000000   1528447   1525528   1523107   1521328   1520213  
  9590.000000   1519703   1519783   1520444   1521736   1523572  
  9580.000000   1525770   1527940   1529672   1530617   1530680  
  9570.000000   1530061   1529206   1528693   1529013   1530487  
  9560.000000   1533125   1536733   1540895   1545150   1548970  
  9550.000000   1551875   1553415   1553264   1551267   1547493  
  9540.000000   1542261   1536049   1529446   1522974   1517046  
  9530.000000   1511876   1507507   1503877   1500872   1498444  
  9520.000000   1496617   1495503   1495255   1495993   1497772  
  9510.000000   1500507   1503974   1507790   1511494   1514629  
  9500.000000   1516911   1518297   1519072   1519734   1520869  
  9490.000000   1522856   1525712   1528959   1531781   1533270  
  9480.000000   1532759   1530105   1525703   1520445   1515373  
  9470.000000   1511462   1509335   1509204   1510892   1513924  
  9460.000000   1517644   1521282   1524038   1525196   1524281  
  9450.000000   1521249   1516599   1511364   1506902   1504530  
  9440.000000   1505085   1508610   1514276   1520674   1526250  
  9430.000000   1529868   1531047   1530060   1527632   1524637  
  9420.000000   1521743   1519244   1517112   1515126   1513105  
  9410.000000   1510955   1508664   1506186   1503360   1499980  
  9400.000000   1495909   1491297   1486636   1482683   1480179  
  9390.000000   1479521   1480561   1482605   1484722   1486093  
  9380.000000   1486376   1485774   1484918   1484497   1484928  
  9370.000000   1486131   1487619   1488752   1489126   1488742  
  9360.000000   1488022   1487549   1487754   1488676   1489896  
  9350.000000   1490763   1490708   1489527   1487490   1485169  
  9340.000000   1483202   1481990   1481571   1481646   1481745  
  9330.000000   1481507   1480825   1479922   1479169   1478940  
  9320.000000   1479426   1480632   1482408   1484524   1486733  
  9310.000000   1488743   1490245   1490886   1490360   1488489  
  9300.000000   1485359   1481395   1477317   1473962   1472017  
  9290.000000   1471801   1473153   1475511   1478100   1480172  
  9280.000000   1481221   1481086   1479958   1478237   1476390  
  9270.000000   1474805   1473728   1473269   1473410   1474082  
  9260.000000   1475179   1476603   1478257   1480065   1481938  
  9250.000000   1483750   1485275   1486182   1486083   1484642  
  9240.000000   1481752   1477608   1472775   1468074   1464384  
  9230.000000   1462366   1462203   1463579   1465763   1467917  
  9220.000000   1469342   1469729   1469211   1468244   1467389  
  9210.000000   1467034   1467269   1467854   1468396   1468503  
  9200.000000   1467995   1466920   1465577   1464354   1463613  
  9190.000000   1463568   1464218   1465368   1466672   1467761  
  9180.000000   1468345   1468302   1467710   1466870   1466212  
  9170.000000   1466182   1467042   1468782   1471095   1473449  
  9160.000000   1475264   1476083   1475739   1474376   1472359  
  9150.000000   1470121   1468000   1466184   1464709   1463561  
  9140.000000   1462721   1462251   1462215   1462654   1463465  
  9130.000000   1464427   1465245   1465679   1465638   1465188  
  9120.000000   1464505   1463732   1462903   1461899   1460545  
  9110.000000   1458740   1456593   1454448   1452776   1451999  
  9100.000000   1452272   1453417   1454956   1456309   1457002  
  9090.000000   1456846   1455983   1454762   1453586   1452710  
  9080.000000   1452211   1451974   1451839   1451663   1451408  
  9070.000000   1451093   1450751   1450375   1449934   1449442  
  9060.000000   1449018   1448908   1449416   1450756   1452927  
  9050.000000   1455620   1458329   1460484   1461723   1461993  
  9040.000000   1461599   1461031   1460772   1461095   1461991  
  9030.000000   1463240   1464559   1465804   1467020   1468425  
  9020.000000   1470209   1472428   1474894   1477224   1478977  
  9010.000000   1479831   1479728   1478847   1477494   1475972  
  9000.000000   1474472   1473070   1471745   1470540   1469582  
  8990.000000   1469110   1469319   1470280   1471831   1473599  
  8980.000000   1475085   1475839   1475608   1474388   1472394  
  8970.000000   1469965   1467485   1465273   1463562   1462495  
  8960.000000   1462136   1462469   1463353   1464541   1465712  
  8950.000000   1466556   1466865   1466611   1465962   1465192  
  8940.000000   1464572   1464219   1464077   1463925   1463537  
  8930.000000   1462780   1461738   1460656   1459869   1459619  
  8920.000000   1459972   1460762   1461683   1462401   1462720  
  8910.000000   1462640   1462372   1462233   1462535   1463492  
  8900.000000   1465171   1467521   1470376   1473525   1476705  
  8890.000000   1479652   1482099   1483842   1484788   1484988  
  8880.000000   1484636   1483989   1483279   1482603   1481896  
  8870.000000   1480961   1479582   1477662   1475302   1472813  
  8860.000000   1470606   1469064   1468389   1468550   1469305  
  8850.000000   1470308   1471264   1472013   1472576   1473088  
  8840.000000   1473723   1474600   1475744   1477106   1478614  
  8830.000000   1480216   1481918   1483737   1485678   1487653  
  8820.000000   1489482   1490902   1491660   1491575   1490625  
  8810.000000   1488955   1486879   1484801   1483127   1482174  
  8800.000000   1482087   1482838   1484223   1485949   1487710  
  8790.000000   1489279   1490574   1491646   1492651   1493739  
  8780.000000   1495000   1496389   1497778   1498987   1499921  
  8770.000000   1500602   1501208   1501999   1503216   1504986  
  8760.000000   1507249   1509795   1512321   1514556   1516341  
  8750.000000   1517657   1518609   1519339   1519963   1520514  
  8740.000000   1520971   1521284   1521445   1521501   1521557  
  8730.000000   1521735   1522120   1522752   1523607   1524655  
  8720.000000   1525881   1527316   1529015   1531014   1533282  
  8710.000000   1535688   1538018   1540018   1541490   1542340  
  8700.000000   1542639   1542586   1542468   1542565   1543061  
  8690.000000   1544010   1545316   1546788   1548220   1549449  
  8680.000000   1550426   1551195   1551883   1552615   1553445  
  8670.000000   1554339   1555174   1555828   1556255   1556574  
  8660.000000   1557065   1558103   1560010   1562911   1566625  
  8650.000000   1570666   1574370   1577065   1578341   1578128  
  8640.000000   1576763   1574817   1572928   1571596   1571065  
  8630.000000   1571335   1572236   1573600   1575363   1577591  
  8620.000000   1580392   1583792   1587627   1591519   1594971  
  8610.000000   1597501   1598857   1599084   1598574   1597912  
  8600.000000   1597740   1598542   1600534   1603624   1607465  
  8590.000000   1611589   1615531   1618947   1621648   1623624  
  8580.000000   1625000   1625994   1626840   1627746   1628852  
  8570.000000   1630219   1631829   1633611   1635459   1637279  
  8560.000000   1638992   1640568   1641977   1643212   1644238  
  8550.000000   1645022   1645533   1645772   1645793   1645692  
  8540.000000   1645585   1645580   1645744   1646105   1646646  
  8530.000000   1647346   1648194   1649207   1650404   1651790  
  8520.000000   1653326   1654911   1656408   1657668   1658588  
  8510.000000   1659135   1659384   1659477   1659613   1659970  
  8500.000000   1660675   1661762   1663161   1664716   1666227  
  8490.000000   1667505   1668438   1669018   1669362   1669673  
  8480.000000   1670187   1671079   1672414   1674097   1675930  
  8470.000000   1677655   1679075   1680107   1680831   1681442  
  8460.000000   1682170   1683202   1684596   1686295   1688143  
  8450.000000   1689984   1691712   1693319   1694855   1696395  
  8440.000000   1697959   1699495   1700870   1701924   1702529  
  8430.000000   1702648   1702336   1701736   1701011   1700330  
  8420.000000   1699803   1699506   1699452   1699653   1700093  
  8410.000000   1700747   1701545   1702371   1703076   1703494  
  8400.000000   1703478   1702931   1701847   1700321   1698545  
  8390.000000   1696776   1695301   1694389   1694238   1694917  
  8380.000000   1696331   1698231   1700260   1702035   1703244  
  8370.000000   1703736   1703577   1703005   1702359   1701949  
  8360.000000   1701983   1702486   1703343   1704334   1705251  
  8350.000000   1705963   1706440   1706749   1706962   1707172  
  8340.000000   1707417   1707739   1708159   1708732   1709526  
  8330.000000   1710579   1711842   1713111   1714068   1714334  
  8320.000000   1713607   1711753   1708889   1705389   1701805  
  8310.000000   1698734   1696631   1695736   1695997   1697162  
  8300.000000   1698826   1700591   1702127   1703243   1703877  
  8290.000000   1704050   1703825   1703245   1702344   1701123  
  8280.000000   1699613   1697866   1696003   1694188   1692596  
  8270.000000   1691396   1690673   1690456   1690667   1691187  
  8260.000000   1691854   1692514   1693039   1693335   1693344  
  8250.000000   1693020   1692347   1691327   1690017   1688531  
  8240.000000   1687052   1685796   1684961   1684681   1684956  
  8230.000000   1685656   1686520   1687245   1687556   1687298  
  8220.000000   1686468   1685211   1683758   1682366   1681217  
  8210.000000   1680404   1679887   1679568   1679306   1679001  
  8200.000000   1678592   1678065   1677416   1676625   1675625  
  8190.000000   1674308   1672562   1670304   1667556   1664443  
  8180.000000   1661202   1658123   1655479   1653476   1652185  
  8170.000000   1651574   1651494   1651772   1652230   1652738  
  8160.000000   1653205   1653567   1653752   1653664   1653199  
  8150.000000   1652256   1650803   1648880   1646639   1644281  
  8140.000000   1642021   1640014   1638322   1636905   1635654  
  8130.000000   1634446   1633191   1631864   1630501   1629178  
  8120.000000   1627972   1626942   1626119   1625512   1625123  
  8110.000000   1624946   1624960   1625112   1625310   1625428  
  8100.000000   1625340   1624946   1624221   1623206   1622007  
  8090.000000   1620733   1619462   1618203   1616912   1615526  
  8080.000000   1614010   1612400   1610799   1609347   1608169  
  8070.000000   1607326   1606791   1606458   1606185   1605840  
  8060.000000   1605345   1604687   1603908   1603080   1602280  
  8050.000000   1601571   1601005   1600621   1600449   1600493  
  8040.000000   1600724   1601059   1601372   1601515   1601354  
  8030.000000   1600819   1599923   1598774   1597536   1596395  
  8020.000000   1595499   1594927   1594665   1594624   1594649  
  8010.000000   1594572   1594239   1593556   1592503   1591150  
  8000.000000   1589633   1588122   1586776   1585690   1584880  
  7990.000000   1584269   1583736   1583153   1582449   1581627  
  7980.000000   1580769   1579992   1579401   1579051   1578925  
  7970.000000   1578961   1579090   1579275   1579526   1579879  
  7960.000000   1580363   1580950   1581548   1582007   1582172  
  7950.000000   1581928   1581253   1580216   1578966   1577679  
  7940.000000   1576520   1575604   1574987   1574674   1574626  
  7930.000000   1574778   1575038   1575305   1575474   1575477  
  7920.000000   1575302   1575006   1574708   1574539   1574591  
  7910.000000   1574862   1575254   1575596   1575725   1575541  
  7900.000000   1575069   1574434   1573822   1573385   1573187  
  7890.000000   1573173   1573208   1573138   1572873   1572429  
  7880.000000   1571928   1571547   1571446   1571712   1572328  
  7870.000000   1573189   1574142   1575038   1575764   1576263  
  7860.000000   1576525   1576575   1576468   1576274   1576076  
  7850.000000   1575940   1575902   1575932   1575940   1575787  
  7840.000000   1575344   1574552   1573458   1572231   1571104  
  7830.000000   1570321   1570033   1570274   1570935   1571836  
  7820.000000   1572774   1573601   1574239   1574670   1574904  
  7810.000000   1574928   1574701   1574162   1573279   1572077  
  7800.000000   1570663   1569202   1567874   1566830   1566139  
  7790.000000   1565800   1565739   1565858   1566048   1566215  
  7780.000000   1566274   1566152   1565789   1565157   1564277  
  7770.000000   1563232   1562157   1561204   1560499   1560095  
  7760.000000   1559959   1559983   1560020   1559941   1559665  
  7750.000000   1559178   1558522   1557763   1556974   1556200  
  7740.000000   1555474   1554804   1554191   1553617   1553056  
  7730.000000   1552469   1551820   1551103   1550355   1549674  
  7720.000000   1549190   1549023   1549236   1549783   1550518  
  7710.000000   1551216   1551659   1551695   1551302   1550585  
  7700.000000   1549745   1549013   1548575   1548527   1548858  
  7690.000000   1549471   1550222   1550963   1551574   1551976  
  7680.000000   1552131   1552041   1551730   1551250   1550665  
  7670.000000   1550049   1549471   1548990   1548643   1548451  
  7660.000000   1548420   1548546   1548813   1549191   1549616  
  7650.000000   1549994   1550211   1550157   1549766   1549041  
  7640.000000   1548071   1547012   1546060   1545390   1545115  
  7630.000000   1545254   1545729   1546397   1547080   1547619  
  7620.000000   1547899   1547872   1547559   1547033   1546415  
  7610.000000   1545830   1545397   1545184   1545208   1545419  
  7600.000000   1545727   1546029   1546242   1546334   1546329  
  7590.000000   1546300   1546344   1546546   1546953   1547556  
  7580.000000   1548306   1549115   1549905   1550598   1551152  
  7570.000000   1551545   1551792   1551919   1551983   1552044  
  7560.000000   1552172   1552418   1552824   1553401   1554143  
  7550.000000   1555035   1556059   1557209   1558481   1559870  
  7540.000000   1561355   1562890   1564419   1565869   1567191  
  7530.000000   1568347   1569341   1570183   1570906   1571525  
  7520.000000   1572066   1572547   1573011   1573518   1574150  
  7510.000000   1574992   1576104   1577512   1579195   1581098  
  7500.000000   1583149   1585271   1587400   1589476   1591453  
  7490.000000   1593281   1594931   1596388   1597689   1598901  
  7480.000000   1600125   1601449   1602930   1604560   1606277  
  7470.000000   1607989   1609617   1611129   1612560   1613993  
  7460.000000   1615530   1617241   1619147   1621201   1623324  
  7450.000000   1625421   1627431   1629326   1631121   1632848  
  7440.000000   1634550   1636266   1638033   1639888   1641872  
  7430.000000   1644020   1646347   1648833   1651418   1654013  
  7420.000000   1656526   1658886   1661062   1663068   1664952  
  7410.000000   1666772   1668584   1670421   1672305   1674234  
  7400.000000   1676197   1678167   1680100   1681938   1683625  
  7390.000000   1685127   1686463   1687708   1688985   1690435  
  7380.000000   1692170   1694234   1696587   1699118   1701693  
  7370.000000   1704203   1706593   1708873   1711091   1713310  
  7360.000000   1715568   1717870   1720194   1722509   1724796  
  7350.000000   1727045   1729247   1731382   1733405   1735264  
  7340.000000   1736916   1738364   1739661   1740910   1742218  
  7330.000000   1743668   1745279   1747008   1748762   1750454  
  7320.000000   1752026   1753494   1754919   1756393   1757989  
  7310.000000   1759736   1761604   1763510   1765348   1767021  
  7300.000000   1768463   1769656   1770624   1771441   1772209  
  7290.000000   1773055   1774094   1775406   1777003   1778821  
  7280.000000   1780724   1782537   1784092   1785285   1786104  
  7270.000000   1786636   1787032   1787449   1788018   1788794  
  7260.000000   1789771   1790889   1792090   1793323   1794576  
  7250.000000   1795854   1797177   1798548   1799975   1801452  
  7240.000000   1803001   1804643   1806427   1808377   1810515  
  7230.000000   1812818   1815259   1817793   1820404   1823083  
  7220.000000   1825850   1828699   1831626   1834576   1837501  
  7210.000000   1840340   1843085   1845756   1848431   1851194  
  7200.000000   1854133   1857298   1860718   1864387   1868303  
  7190.000000   1872442   1876784   1881262   1885794   1890242  
  7180.000000   1894487   1898425   1902055   1905448   1908778  
  7170.000000   1912232   1915993   1920149   1924703   1929552  
  7160.000000   1934560   1939582   1944538   1949401   1954216  
  7150.000000   1959045   1963964   1969009   1974206   1979523  
  7140.000000   1984938   1990396   1995881   2001373   2006904  
  7130.000000   2012508   2018258   2024209   2030413   2036869  
  7120.000000   2043547   2050365   2057249   2064127   2070992  
  7110.000000   2077867   2084821   2091896   2099117   2106431  
  7100.000000   2113758   2120983   2128037   2134888   2141587  
  7090.000000   2148213   2154868   2161626   2168524   2175561  
  7080.000000   2182717   2189969   2197312   2204742   2212254  
  7070.000000   2219822   2227395   2234912   2242318   2249582  
  7060.000000   2256715   2263750   2270741   2277724   2284721  
  7050.000000   2291724   2298713   2305663   2312552   2319370  
  7040.000000   2326108   2332764   2339334   2345833   2352283  
  7030.000000   2358736   2365240   2371847   2378566   2385381  
  7020.000000   2392219   2399001   2405632   2412055   2418233  
  7010.000000   2424176   2429898   2435431   2440793   2446007  
  7000.000000   2451083   2456049   2460917   2465713   2470429  
  6990.000000   2475064   2479584   2483982   2488246   2492412  
  6980.000000   2496517   2500626   2504773   2508988   2513252  
  6970.000000   2517539   2521794   2525974   2530019   2533887  
  6960.000000   2537522   2540890   2543968   2546785   2549405  
  6950.000000   2551945   2554517   2557223   2560086   2563066  
  6940.000000   2566040   2568869   2571420   2573632   2575511  
  6930.000000   2577145   2578647   2580145   2581723   2583436  
  6920.000000   2585287   2587273   2589369   2591560   2593809  
  6910.000000   2596081   2598306   2600417   2602335   2604011  
  6900.000000   2605423   2606589   2607558   2608391   2609148  
  6890.000000   2609877   2610605   2611349   2612111   2612897  
  6880.000000   2613710   2614557   2615442   2616368   2617330  
  6870.000000   2618321   2619328   2620341   2621352   2622361  
  6860.000000   2623378   2624424   2625519   2626681   2627908  
  6850.000000   2629186   2630477   2631738   2632929   2634025  
  6840.000000   2635018   2635920   2636745   2637510   2638214  
  6830.000000   2638854   2639418   2639900   2640297   2640616  
  6820.000000   2640862   2641049   2641185   2641293   2641397  
  6810.000000   2641536   2641741   2642035   2642401   2642800  
  6800.000000   2643162   2643430   2643566   2643587   2643543  
  6790.000000   2643503   2643515   2643586   2643666   2643677  
  6780.000000   2643536   2643207   2642704   2642098   2641475  
  6770.000000   2640909   2640422   2639995   2639575   2639122  
  6760.000000   2638619   2638092   2637579   2637114   2636691  
  6750.000000   2636270   2635788   2635198   2634493   2633718  
  6740.000000   2632953   2632279   2631743   2631339   2631015  
  6730.000000   2630697   2630321   2629860   2629323   2628750  
  6720.000000   2628178   2627629   2627098   2626570   2626023  
  6710.000000   2625451   2624855   2624241   2623603   2622927  
  6700.000000   2622184   2621357   2620442   2619462   2618453  
  6690.000000   2617457   2616493   2615563   2614648   2613728  
  6680.000000   2612789   2611840   2610888   2609945   2608991  
  6670.000000   2607998   2606918   2605727   2604428   2603067  
  6660.000000   2601707   2600413   2599212   2598086   2596976  
  6650.000000   2595809   2594525   2593107   2591573   2589974  
  6640.000000   2588355   2586751   2585165   2583590   2582015  
  6630.000000   2580450   2578914   2577440   2576040   2574711  
  6620.000000   2573409   2572084   2570681   2569166   2567530  
  6610.000000   2565787   2563953   2562045   2560064   2558013  
  6600.000000   2555900   2553754   2551620   2549555   2547605  
  6590.000000   2545790   2544102   2542502   2540941   2539368  
  6580.000000   2537751   2536070   2534328   2532538   2530728  
  6570.000000   2528933   2527197   2525567   2524081   2522760  
  6560.000000   2521596   2520551   2519567   2518579   2517536  
  6550.000000   2516411   2515203   2513931   2512622   2511296  
  6540.000000   2509967   2508641   2507324   2506023   2504749  
  6530.000000   2503506   2502287   2501074   2499841   2498566  
  6520.000000   2497242   2495883   2494523   2493203   2491957  
  6510.000000   2490800   2489723   2488699   2487689   2486660  
  6500.000000   2485590   2484472   2483313   2482126   2480931  
  6490.000000   2479748   2478592   2477477   2476411   2475393  
  6480.000000   2474418   2473476   2472561   2471668   2470795  
  6470.000000   2469934   2469065   2468155   2467162   2466048  
  6460.000000   2464798   2463435   2462017   2460633   2459372  
  6450.000000   2458296   2457421   2456707   2456075   2455428  
  6440.000000   2454686   2453805   2452786   2451669   2450521  
  6430.000000   2449408   2448388   2447490   2446719   2446047  
  6420.000000   2445433   2444820   2444155   2443400   2442549  
  6410.000000   2441629   2440696   2439825   2439083   2438510  
  6400.000000   2438112   2437853   2437674   2437512   2437318  
  6390.000000   2437062   2436741   2436363   2435945   2435501  
  6380.000000   2435048   2434603   2434187   2433824   2433529  
  6370.000000   2433306   2433135   2432984   2432810   2432582  
  6360.000000   2432280   2431909   2431482   2431017   2430519  
  6350.000000   2429983   2429395   2428739   2428008   2427208  
  6340.000000   2426350   2425458   2424547   2423635   2422734  
  6330.000000   2421863   2421037   2420277   2419584   2418952  
  6320.000000   2418348   2417730   2417052   2416282   2415406  
  6310.000000   2414436   2413396   2412317   2411219   2410118  
  6300.000000   2409017   2407924   2406836   2405755   2404665  
  6290.000000   2403544   2402355   2401068   2399659   2398136  
  6280.000000   2396523   2394868   2393207   2391564   2389930  
  6270.000000   2388280   2386582   2384822   2383005   2381165  
  6260.000000   2379337   2377551   2375805   2374080   2372337  
  6250.000000   2370550   2368704   2366811   2364890   2362957  
  6240.000000   2361014   2359048   2357040   2354983   2352887  
  6230.000000   2350783   2348705   2346678   2344701   2342753  
  6220.000000   2340797   2338808   2336780   2334730   2332692  
  6210.000000   2330694   2328749   2326845   2324962   2323078  
  6200.000000   2321194   2319329   2317515   2315782   2314136  
  6190.000000   2312559   2311018   2309473   2307907   2306320  
  6180.000000   2304731   2303159   2301611   2300071   2298513  
  6170.000000   2296909   2295251   2293555   2291858   2290200  
  6160.000000   2288609   2287084   2285603   2284134   2282650  
  6150.000000   2281146   2279638   2278156   2276726   2275359  
  6140.000000   2274045   2272762   2271483   2270189   2268874  
  6130.000000   2267541   2266198   2264846   2263486   2262114  
  6120.000000   2260736   2259361   2258012   2256707   2255465  
  6110.000000   2254290   2253181   2252126   2251124   2250168  
  6100.000000   2249263   2248408   2247602   2246832   2246089  
  6090.000000   2245359   2244645   2243952   2243297   2242686  
  6080.000000   2242129   2241615   2241142   2240699   2240296  
  6070.000000   2239940   2239653   2239436   2239290   2239190  
  6060.000000   2239121   2239060   2239020   2239019   2239107  
  6050.000000   2239317   2239684   2240204   2240866   2241632  
  6040.000000   2242481   2243388   2244361   2245402   2246537  
  6030.000000   2247768   2249106   2250542   2252077   2253698  
  6020.000000   2255409   2257191   2259034   2260908   2262788  
  6010.000000   2264643   2266465   2268246   2270005   2271753  
  6000.000000   2273511   2275282   2277078   2278897   2280760  
  5990.000000   2282678   2284684   2286792   2289019   2291356  
  5980.000000   2293794   2296313   2298910   2301585   2304361  
  5970.000000   2307247   2310260   2313383   2316599   2319864  
  5960.000000   2323147   2326416   2329662   2332879   2336082  
  5950.000000   2339276   2342478   2345701   2348969   2352304  
  5940.000000   2355735   2359278   2362939   2366702   2370534  
  5930.000000   2374396   2378247   2382058   2385810   2389496  
  5920.000000   2393108   2396632   2400051   2403343   2406493  
  5910.000000   2409497   2412366   2415126   2417805   2420440  
  5900.000000   2423056   2425682   2428335   2431036   2433792  
  5890.000000   2436609   2439471   2442363   2445254   2448122  
  5880.000000   2450948   2453728   2456463   2459158   2461814  
  5870.000000   2464418   2466957   2469411   2471775   2474052  
  5860.000000   2476263   2478434   2480594   2482766   2484970  
  5850.000000   2487218   2489521   2491889   2494329   2496841  
  5840.000000   2499419   2502045   2504703   2507376   2510059  
  5830.000000   2512752   2515460   2518180   2520897   2523585  
  5820.000000   2526210   2528748   2531185   2533531   2535797  
  5810.000000   2538008   2540164   2542265   2544279   2546199  
  5800.000000   2548000   2549710   2551336   2552926   2554481  
  5790.000000   2556016   2557484   2558848   2560029   2560968  
  5780.000000   2561582   2561818   2561608   2560927   2559754  
  5770.000000   2558133   2556133   2553879   2551500   2549135  
  5760.000000   2546880   2544802   2542913   2541215   2539682  
  5750.000000   2538306   2537074   2535980   2535007   2534124  
  5740.000000   2533297   2532490   2531692   2530905   2530163  
  5730.000000   2529495   2528930   2528463   2528075   2527718  
  5720.000000   2527353   2526944   2526486   2525983   2525462  
  5710.000000   2524944   2524456   2524014   2523640   2523347  
  5700.000000   2523148   2523045   2523024   2523059   2523111  
  5690.000000   2523147   2523142   2523093   2523007   2522905  
  5680.000000   2522790   2522662   2522496   2522263   2521926  
  5670.000000   2521460   2520835   2520039   2519050   2517859  
  5660.000000   2516458   2514870   2513130   2511308   2509474  
  5650.000000   2507699   2506021   2504455   2502979   2501569  
  5640.000000   2500195   2498851   2497543   2496284   2495084  
  5630.000000   2493933   2492812   2491691   2490555   2489400  
  5620.000000   2488249   2487126   2486056   2485045   2484083  
  5610.000000   2483142   2482200   2481243   2480274   2479308  
  5600.000000   2478365   2477455   2476577   2475721   2474870  
  5590.000000   2474014   2473146   2472268   2471377   2470471  
  5580.000000   2469540   2468577   2467576   2466542   2465486  
  5570.000000   2464420   2463347   2462266   2461163   2460032  
  5560.000000   2458869   2457690   2456513   2455364   2454252  
  5550.000000   2453175   2452111   2451032   2449913   2448747  
  5540.000000   2447537   2446302   2445058   2443820   2442586  
  5530.000000   2441352   2440112   2438864   2437617   2436381  
  5520.000000   2435168   2433986   2432832   2431703   2430592  
  5510.000000   2429495   2428404   2427314   2426210   2425080  
  5500.000000   2423911   2422700   2421455   2420195   2418939  
  5490.000000   2417703   2416477   2415239   2413956   2412599  
  5480.000000   2411151   2409624   2408039   2406430   2404819  
  5470.000000   2403221   2401628   2400035   2398430   2396812  
  5460.000000   2395178   2393524   2391833   2390081   2388239  
  5450.000000   2386292   2384249   2382144   2380031   2377963  
  5440.000000   2375979   2374088   2372279   2370525   2368809  
  5430.000000   2367120   2365470   2363868   2362329   2360848  
  5420.000000   2359427   2358059   2356761   2355551   2354468  
  5410.000000   2353526   2352739   2352079   2351528   2351047  
  5400.000000   2350642   2350310   2350095   2350010   2350088  
  5390.000000   2350311   2350682   2351171   2351798   2352570  
  5380.000000   2353540   2354721   2356143   2357767   2359573  
  5370.000000   2361490   2363508   2365593   2367791   2370109  
  5360.000000   2372621   2375332   2378308   2381543   2385109  
  5350.000000   2389008   2393322   2398039   2403219   2408806  
  5340.000000   2414831   2421229   2428059   2435291   2443023  
  5330.000000   2451234   2460004   2469275   2479093   2489383  
  5320.000000   2500214   2511548   2523506   2536070   2549366  
  5310.000000   2563346   2578093   2593525   2609715   2626600  
  5300.000000   2644285   2662751   2682136   2702438   2723777  
  5290.000000   2746108   2769471   2793723   2818799   2844498  
  5280.000000   2870750   2897433   2924602   2952283   2980628  
  5270.000000   3009682   3039479   3069889   3100716   3131700  
  5260.000000   3162623   3193363   3223899   3254315   3284671  
  5250.000000   3315008   3345205   3375111   3404435   3433012  
  5240.000000   3460649   3487397   3513264   3538457   3563030  
  5230.000000   3587136   3610697   3633717   3655991   3677468  
  5220.000000   3697968   3717540   3736130   3753904   3770882  
  5210.000000   3787236   3802925   3818017   3832356   3845937  
  5200.000000   3858601   3870410   3881310   3891458   3900851  
  5190.000000   3909629   3917732   3925220   3931984   3938075  
  5180.000000   3943422   3948129   3952166   3955639   3958495  
  5170.000000   3960792   3962455   3963542   3964017   3963984  
  5160.000000   3963440   3962487   3961091   3959309   3957077  
  5150.000000   3954441   3951368   3947931   3944124   3940015  
  5140.000000   3935575   3930835   3925756   3920374   3914687  
  5130.000000   3908769   3902649   3896400   3890028   3883566  
  5120.000000   3876994   3870337   3863593   3856806   3849994  
  5110.000000   3843196   3836406   3829625   3822820   3815982  
  5100.000000   3809098   3802184   3795256   3788344   3781462  
  5090.000000   3774624   3767826   3761067   3754339   3747640  
  5080.000000   3740954   3734272   3727566   3720818   3714009  
  5070.000000   3707146   3700238   3693321   3686414   3679539  
  5060.000000   3672682   3665823   3658919   3651943   3644869  
  5050.000000   3637698   3630433   3623096   3615691   3608229  
  5040.000000   3600706   3593126   3585492   3577820   3570124  
  5030.000000   3562420   3554712   3547003   3539288   3531568  
  5020.000000   3523860   3516186   3508585   3501089   3493733  
  5010.000000   3486522   3479466   3472543   3465755   3459082  
  5000.000000   3452543   3446139   3439906   3433848   3428001  
  4990.000000   3422357   3416941   3411731   3406749   3401970  
  4980.000000   3397420   3393075   3388973   3385101   3381511  
  4970.000000   3378202   3375232   3372592   3370329   3368412  
  4960.000000   3366867   3365650   3364787   3364240   3364051  
  4950.000000   3364191   3364706   3365561   3366791   3368346  
  4940.000000   3370255   3372472   3375033   3377904   3381128  
  4930.000000   3384672   3388578   3392811   3397411   3402347  
  4920.000000   3407663   3413335   3419401   3425825   3432628  
  4910.000000   3439760   3447224   3454970   3462992   3471248  
  4900.000000   3479728   3488390   3497217   3506169   3515224  
  4890.000000   3524352   3533525   3542716   3551885   3560997  
  4880.000000   3569993   3578834   3587456   3595829   3603891  
  4870.000000   3611628   3618982   3625948   3632481   3638593  
  4860.000000   3644258   3649512   3654343   3658795   3662856  
  4850.000000   3666568   3669920   3672964   3675713   3678242  
  4840.000000   3680586   3682828   3684997   3687152   3689298  
  4830.000000   3691460   3693621   3695786   3697926   3700030  
  4820.000000   3702065   3704015   3705857   3707595   3709238  
  4810.000000   3710820   3712377   3713950   3715565   3717237  
  4800.000000   3718959   3720720   3722500   3724283   3726054  
  4790.000000   3727806   3729526   3731209   3732845   3734440  
  4780.000000   3736003   3737558   3739128   3740740   3742397  
  4770.000000   3744091   3745786   3747444   3749015   3750475  
  4760.000000   3751800   3752997   3754066   3755025   3755864  
  4750.000000   3756585   3757162   3757591   3757853   3757960  
  4740.000000   3757912   3757738   3757449   3757072   3756612  
  4730.000000   3756085   3755485   3754821   3754083   3753276  
  4720.000000   3752396   3751448   3750439   3749387   3748317  
  4710.000000   3747257   3746243   3745305   3744472   3743758  
  4700.000000   3743174   3742717   3742384   3742166   3742058  
  4690.000000   3742055   3742162   3742375   3742703   3743136  
  4680.000000   3743669   3744270   3744913   3745544   3746129  
  4670.000000   3746616   3746990   3747234   3747377   3747449  
  4660.000000   3747515   3747634   3747884   3748321   3749000  
  4650.000000   3749945   3751170   3752655   3754370   3756260  
  4640.000000   3758276   3760364   3762489   3764627   3766772  
  4630.000000   3768927   3771095   3773273   3775443   3777577  
  4620.000000   3779633   3781567   3783331   3784896   3786232  
  4610.000000   3787342   3788227   3788924   3789460   3789890  
  4600.000000   3790246   3790577   3790894   3791218   3791533  
  4590.000000   3791837   3792095   3792296   3792402   3792402  
  4580.000000   3792260   3791966   3791494   3790845   3790012  
  4570.000000   3789022   3787893   3786666   3785362   3784012  
  4560.000000   3782618   3781189   3779714   3778193   3776625  
  4550.000000   3775019   3773386   3771742   3770097   3768456  
  4540.000000   3766824   3765200   3763597   3762023   3760509  
  4530.000000   3759071   3757745   3756540   3755485   3754569  
  4520.000000   3753813   3753192   3752732   3752408   3752262  
  4510.000000   3752286   3752549   3753063   3753924   3755151  
  4500.000000   3756845   3759009   3761728   3764980   3768835  
  4490.000000   3773260   3778329   3784015   3790395   3797437  
  4480.000000   3805200   3813626   3822745   3832479   3842839  
  4470.000000   3853742   3865193   3877106   3889475   3902210  
  4460.000000   3915289   3928619   3942173   3955868   3969677  
  4450.000000   3983536   3997426   4011306   4025172   4039014  
  4440.000000   4052837   4066654   4080462   4094270   4108047  
  4430.000000   4121790   4135437   4148975   4162324   4175468  
  4420.000000   4188313   4200841   4212949   4224619   4235749  
  4410.000000   4246325   4256252   4265519   4274038   4281809  
  4400.000000   4288763   4294934   4300305   4304966   4308966  
  4390.000000   4312450   4315510   4318308   4320938   4323531  
  4380.000000   4326147   4328868   4331713   4334724   4337904  
  4370.000000   4341279   4344859   4348669   4352728   4357054  
  4360.000000   4361657   4366535   4371665   4377024   4382544  
  4350.000000   4388181   4393837   4399474   4405010   4410452  
  4340.000000   4415766   4420991   4426078   4430977   4435484  
  4330.000000   4439338   4442151   4443560   4443237   4441057  
  4320.000000   4437094   4431694   4425359   4418713   4412311  
  4310.000000   4406614   4401848   4398091   4395225   4393092  
  4300.000000   4391488   4390271   4389335   4388626   4388122  
  4290.000000   4387792   4387633   4387612   4387745   4388030  
  4280.000000   4388504   4389184   4390083   4391194   4392477  
  4270.000000   4393892   4395369   4396845   4398214   4399354  
  4260.000000   4400086   4400217   4399537   4397896   4395221  
  4250.000000   4391572   4387120   4382148   4376966   4371895  
  4240.000000   4367164   4362938   4359247   4356066   4353291  
  4230.000000   4350815   4348515   4346293   4344071   4341788  
  4220.000000   4339421   4336952   4334424   4331873   4329396  
  4210.000000   4327063   4324979   4323188   4321742   4320622  
  4200.000000   4319811   4319241   4318866   4318613   4318457  
  4190.000000   4318353   4318318   4318342   4318474   4318717  
  4180.000000   4319130   4319709   4320508   4321515   4322786  
  4170.000000   4324317   4326182   4328391   4331030   4334107  
  4160.000000   4337695   4341775   4346390   4351493   4357106  
  4150.000000   4363165   4369689   4376609   4383954   4391669  
  4140.000000   4399805   4408336   4417332   4426777   4436732  
  4130.000000   4447149   4458048   4469345   4481035   4493046  
  4120.000000   4505400   4518077   4531145   4544621   4558575  
  4110.000000   4573007   4587941   4603324   4619122   4635235  
  4100.000000   4651594   4668088   4684652   4701210   4717743  
  4090.000000   4734241   4750732   4767255   4783848   4800555  
  4080.000000   4817383   4834349   4851412   4868558   4885703  
  4070.000000   4902806   4919754   4936502   4952938   4969044  
  4060.000000   4984734   5000014   5014798   5029093   5042796  
  4050.000000   5055923   5068395   5080283   5091558   5102329  
  4040.000000   5112555   5122304   5131463   5140043   5147898  
  4030.000000   5155051   5161397   5167002   5171803   5175868  
  4020.000000   5179111   5181600   5183316   5184345   5184638  
  4010.000000   5184333   5183498   5182144   5180030   5177218  
  4000.000000   5174050  
##END= 
