##TITLE= Sample 001 By ssteindl date Dienstag, November 20 2018
##JCAMP-DX= 4.24
##DATA TYPE= INFRARED SPECTRUM
##ORIGIN= Exported PE Spectrum Data File
##OWNER= Sandra Steindl
##DATE= 18/11/20
##TIME= 13:54:18.00
##SPECTROMETER/DATA SYSTEM= PERKIN-ELMER Frontier FT-IR/NIR IR
##INSTRUMENT PARAMETERS=
  APODIZATION=stark
  DETECTOR=INGAAS
##RESOLUTION= 16.000000
##DELTAX= -2.000000
##XUNITS= 1/CM
##YUNITS= A
##XFACTOR= 1.00
##YFACTOR= 0.00000011920928955078
##FIRSTX= 10000.00
##LASTX= 4000.00
##NPOINTS= 3001
##FIRSTY= 0.221759
##MAXY= 0.599457
##MINY= 0.194596
##XYDATA= (X++(Y..Y))
 10000.000000   1860252   1855304   1850125   1844722   1839763  
  9990.000000   1836046   1833915   1833352   1834385   1837073  
  9980.000000   1841230   1846281   1851496   1856041   1859249  
  9970.000000   1860682   1860331   1858427   1855376   1851538  
  9960.000000   1847319   1843135   1839565   1837292   1836886  
  9950.000000   1838629   1842159   1846606   1850684   1853301  
  9940.000000   1853904   1852824   1851078   1849927   1850233  
  9930.000000   1851947   1854106   1855133   1853668   1849092  
  9920.000000   1841949   1833629   1825800   1819718   1815761  
  9910.000000   1813533   1812209   1811204   1810482   1810662  
  9900.000000   1812578   1816794   1823100   1830460   1837307  
  9890.000000   1842123   1844044   1843064   1839990   1835875  
  9880.000000   1831628   1827620   1823813   1819970   1816034  
  9870.000000   1812259   1809113   1807026   1806030   1805741  
  9860.000000   1805422   1804454   1802646   1800464   1798869  
  9850.000000   1798859   1800997   1805021   1809924   1814262  
  9840.000000   1816770   1816789   1814539   1810927   1807186  
  9830.000000   1804378   1803059   1803202   1804332   1805819  
  9820.000000   1807153   1808064   1808534   1808657   1808518  
  9810.000000   1808146   1807501   1806586   1805463   1804302  
  9800.000000   1803328   1802775   1802827   1803602   1805082  
  9790.000000   1807134   1809439   1811552   1812964   1813222  
  9780.000000   1812093   1809622   1806168   1802283   1798541  
  9770.000000   1795375   1792947   1791178   1789867   1788878  
  9760.000000   1788262   1788252   1789094   1790846   1793186  
  9750.000000   1795474   1796924   1796932   1795387   1792729  
  9740.000000   1789914   1787980   1787720   1789279   1792113  
  9730.000000   1795171   1797282   1797640   1796056   1793090  
  9720.000000   1789775   1787331   1786705   1788348   1792068  
  9710.000000   1797116   1802384   1806656   1808903   1808479  
  9700.000000   1805282   1799762   1792824   1785637   1779360  
  9690.000000   1774900   1772684   1772600   1774045   1776154  
  9680.000000   1778062   1779183   1779332   1778702   1777706  
  9670.000000   1776745   1776060   1775611   1775193   1774514  
  9660.000000   1773445   1772096   1770838   1770206   1770631  
  9650.000000   1772334   1775108   1778459   1781696   1784185  
  9640.000000   1785550   1785704   1784847   1783234   1781058  
  9630.000000   1778298   1774791   1770373   1765077   1759292  
  9620.000000   1753704   1749199   1746510   1746059   1747727  
  9610.000000   1750953   1754876   1758590   1761385   1762808  
  9600.000000   1762722   1761139   1758215   1754156   1749343  
  9590.000000   1744338   1739926   1736954   1736082   1737541  
  9580.000000   1740938   1745385   1749711   1752895   1754365  
  9570.000000   1754153   1752813   1751100   1749665   1748731  
  9560.000000   1748100   1747276   1745813   1743587   1740902  
  9550.000000   1738416   1736799   1736527   1737601   1739663  
  9540.000000   1742081   1744233   1745676   1746195   1745806  
  9530.000000   1744579   1742604   1739890   1736474   1732476  
  9520.000000   1728193   1724082   1720641   1718300   1717258  
  9510.000000   1717515   1718840   1720932   1723431   1725995  
  9500.000000   1728322   1730094   1731106   1731141   1730174  
  9490.000000   1728221   1725497   1722244   1718800   1715486  
  9480.000000   1712658   1710704   1710046   1711146   1714329  
  9470.000000   1719721   1727011   1735509   1744168   1751897  
  9460.000000   1757820   1761522   1763141   1763209   1762457  
  9450.000000   1761457   1760504   1759513   1758189   1756221  
  9440.000000   1753448   1750016   1746223   1742545   1739310  
  9430.000000   1736822   1735164   1734410   1734536   1735495  
  9420.000000   1737135   1739107   1740864   1741657   1740772  
  9410.000000   1737704   1732434   1725454   1717741   1710474  
  9400.000000   1704777   1701436   1700705   1702311   1705482  
  9390.000000   1709249   1712625   1714908   1715774   1715301  
  9380.000000   1713913   1712174   1710637   1709573   1708918  
  9370.000000   1708222   1706932   1704566   1701045   1696706  
  9360.000000   1692304   1688749   1686793   1686736   1688228  
  9350.000000   1690427   1692293   1693075   1692607   1691409  
  9340.000000   1690479   1690926   1693496   1698236   1704382  
  9330.000000   1710568   1715320   1717512   1716782   1713509  
  9320.000000   1708683   1703495   1698971   1695683   1693627  
  9310.000000   1692410   1691489   1690487   1689310   1688186  
  9300.000000   1687504   1687651   1688778   1690724   1693035  
  9290.000000   1695099   1696379   1696530   1695536   1693682  
  9280.000000   1691495   1689626   1688637   1688914   1690498  
  9270.000000   1693154   1696369   1699501   1701901   1703043  
  9260.000000   1702669   1700789   1697676   1693725   1689349  
  9250.000000   1684871   1680480   1676332   1672584   1669523  
  9240.000000   1667497   1666896   1667953   1670634   1674507  
  9230.000000   1678757   1682357   1684341   1684116   1681572  
  9220.000000   1677150   1671670   1666201   1661711   1658901  
  9210.000000   1658013   1658914   1661143   1664067   1666961  
  9200.000000   1669133   1670100   1669671   1668033   1665687  
  9190.000000   1663402   1662061   1662396   1664753   1668914  
  9180.000000   1674152   1679428   1683671   1686085   1686338  
  9170.000000   1684655   1681703   1678331   1675301   1673068  
  9160.000000   1671742   1671104   1670743   1670239   1669299  
  9150.000000   1667875   1666101   1664326   1662966   1662429  
  9140.000000   1662949   1664512   1666840   1669391   1671531  
  9130.000000   1672677   1672530   1671134   1668881   1666384  
  9120.000000   1664294   1663101   1662998   1663867   1665364  
  9110.000000   1667079   1668639   1669808   1670448   1670534  
  9100.000000   1670091   1669201   1668004   1666689   1665476  
  9090.000000   1664522   1663850   1663295   1662539   1661249  
  9080.000000   1659234   1656595   1653760   1651364   1650030  
  9070.000000   1650073   1651352   1653275   1655030   1655855  
  9060.000000   1655341   1653592   1651209   1649042   1647860  
  9050.000000   1648113   1649807   1652546   1655700   1658626  
  9040.000000   1660874   1662220   1662628   1662183   1661037  
  9030.000000   1659370   1657376   1655279   1653345   1651810  
  9020.000000   1650825   1650398   1650397   1650606   1650783  
  9010.000000   1650783   1650573   1650248   1649934   1649729  
  9000.000000   1649651   1649641   1649629   1649568   1649492  
  8990.000000   1649476   1649610   1649923   1650353   1650757  
  8980.000000   1650965   1650867   1650470   1649911   1649415  
  8970.000000   1649202   1649415   1650053   1650958   1651877  
  8960.000000   1652520   1652690   1652323   1651542   1650604  
  8950.000000   1649843   1649561   1649925   1650905   1652245  
  8940.000000   1653541   1654336   1654276   1653202   1651217  
  8930.000000   1648665   1646039   1643841   1642451   1642042  
  8920.000000   1642573   1643823   1645472   1647179   1648665  
  8910.000000   1649743   1650336   1650455   1650196   1649716  
  8900.000000   1649211   1648875   1648860   1649251   1650051  
  8890.000000   1651195   1652570   1654063   1655569   1657002  
  8880.000000   1658263   1659231   1659772   1659755   1659109  
  8870.000000   1657855   1656143   1654227   1652411   1650971  
  8860.000000   1650083   1649795   1650029   1650623   1651379  
  8850.000000   1652093   1652596   1652751   1652494   1651829  
  8840.000000   1650873   1649831   1648986   1648613   1648918  
  8830.000000   1649958   1651650   1653766   1656042   1658224  
  8820.000000   1660163   1661788   1663091   1664072   1664716  
  8810.000000   1665029   1665076   1665041   1665215   1665937  
  8800.000000   1667462   1669850   1672892   1676133   1678977  
  8790.000000   1680869   1681451   1680666   1678744   1676125  
  8780.000000   1673331   1670863   1669115   1668342   1668632  
  8770.000000   1669922   1671962   1674367   1676621   1678234  
  8760.000000   1678849   1678393   1677114   1675504   1674157  
  8750.000000   1673513   1673733   1674593   1675627   1676287  
  8740.000000   1676223   1675402   1674137   1672940   1672310  
  8730.000000   1672555   1673684   1675457   1677509   1679519  
  8720.000000   1681337   1682986   1684611   1686342   1688224  
  8710.000000   1690172   1692028   1693618   1694843   1695672  
  8700.000000   1696154   1696340   1696283   1696021   1695618  
  8690.000000   1695192   1694911   1694976   1695528   1696608  
  8680.000000   1698106   1699822   1701520   1703046   1704351  
  8670.000000   1705510   1706650   1707876   1709211   1710569  
  8660.000000   1711812   1712791   1713440   1713754   1713799  
  8650.000000   1713635   1713303   1712808   1712164   1711443  
  8640.000000   1710815   1710520   1710795   1711786   1713475  
  8630.000000   1715668   1718039   1720254   1722089   1723501  
  8620.000000   1724647   1725775   1727143   1728869   1730907  
  8610.000000   1733038   1734960   1736404   1737222   1737465  
  8600.000000   1737345   1737211   1737411   1738226   1739760  
  8590.000000   1741924   1744445   1746924   1748935   1750116  
  8580.000000   1750285   1749468   1747904   1745996   1744211  
  8570.000000   1742992   1742645   1743304   1744906   1747246  
  8560.000000   1750018   1752896   1755578   1757822   1759468  
  8550.000000   1760439   1760757   1760527   1759950   1759257  
  8540.000000   1758698   1758465   1758682   1759363   1760420  
  8530.000000   1761698   1763009   1764208   1765198   1765974  
  8520.000000   1766583   1767125   1767707   1768408   1769269  
  8510.000000   1770269   1771359   1772444   1773434   1774233  
  8500.000000   1774787   1775067   1775086   1774897   1774591  
  8490.000000   1774297   1774160   1774346   1775008   1776262  
  8480.000000   1778142   1780571   1783359   1786219   1788822  
  8470.000000   1790864   1792155   1792654   1792497   1791944  
  8460.000000   1791319   1790927   1790985   1791583   1792670  
  8450.000000   1794116   1795741   1797383   1798897   1800198  
  8440.000000   1801237   1801997   1802483   1802700   1802681  
  8430.000000   1802463   1802102   1801649   1801156   1800680  
  8420.000000   1800287   1800070   1800128   1800577   1801489  
  8410.000000   1802882   1804651   1806609   1808481   1810012  
  8400.000000   1811014   1811444   1811412   1811138   1810863  
  8390.000000   1810752   1810830   1810961   1810906   1810407  
  8380.000000   1809319   1807652   1805597   1803452   1801520  
  8370.000000   1800029   1799052   1798550   1798401   1798507  
  8360.000000   1798832   1799430   1800389   1801759   1803484  
  8350.000000   1805376   1807162   1808539   1809295   1809334  
  8340.000000   1808744   1807706   1806472   1805259   1804227  
  8330.000000   1803463   1803002   1802865   1803057   1803592  
  8320.000000   1804431   1805501   1806655   1807738   1808611  
  8310.000000   1809205   1809544   1809703   1809783   1809830  
  8300.000000   1809817   1809636   1809149   1808276   1807044  
  8290.000000   1805621   1804265   1803271   1802852   1803091  
  8280.000000   1803867   1804920   1805901   1806497   1806504  
  8270.000000   1805885   1804772   1803406   1802068   1800973  
  8260.000000   1800212   1799735   1799384   1798968   1798332  
  8250.000000   1797434   1796354   1795284   1794421   1793917  
  8240.000000   1793765   1793828   1793856   1793595   1792875  
  8230.000000   1791677   1790143   1788513   1787014   1785777  
  8220.000000   1784768   1783828   1782734   1781316   1779540  
  8210.000000   1777543   1775580   1773927   1772754   1772063  
  8200.000000   1771667   1771274   1770587   1769421   1767775  
  8190.000000   1765828   1763882   1762233   1761071   1760410  
  8180.000000   1760091   1759849   1759411   1758594   1757362  
  8170.000000   1755845   1754285   1752964   1752101   1751777  
  8160.000000   1751909   1752268   1752552   1752476   1751844  
  8150.000000   1750618   1748910   1746965   1745079   1743519  
  8140.000000   1742445   1741863   1741639   1741520   1741226  
  8130.000000   1740506   1739222   1737383   1735140   1732765  
  8120.000000   1730568   1728840   1727761   1727378   1727583  
  8110.000000   1728159   1728841   1729371   1729565   1729319  
  8100.000000   1728617   1727491   1726010   1724245   1722292  
  8090.000000   1720264   1718317   1716619   1715319   1714498  
  8080.000000   1714124   1714065   1714111   1714061   1713778  
  8070.000000   1713241   1712530   1711776   1711094   1710520  
  8060.000000   1709999   1709416   1708666   1707715   1706630  
  8050.000000   1705558   1704652   1704001   1703575   1703229  
  8040.000000   1702767   1702014   1700902   1699481   1697908  
  8030.000000   1696372   1695030   1693955   1693133   1692510  
  8020.000000   1692035   1691702   1691550   1691631   1691965  
  8010.000000   1692505   1693137   1693697   1694034   1694036  
  8000.000000   1693673   1692975   1692032   1690956   1689872  
  7990.000000   1688910   1688194   1687838   1687903   1688389  
  7980.000000   1689189   1690119   1690935   1691414   1691412  
  7970.000000   1690908   1690001   1688863   1687680   1686574  
  7960.000000   1685596   1684720   1683893   1683081   1682289  
  7950.000000   1681573   1680993   1680591   1680354   1680225  
  7940.000000   1680124   1679975   1679747   1679436   1679070  
  7930.000000   1678663   1678221   1677726   1677178   1676604  
  7920.000000   1676079   1675708   1675586   1675762   1676201  
  7910.000000   1676801   1677418   1677929   1678275   1678468  
  7900.000000   1678582   1678680   1678784   1678831   1678702  
  7890.000000   1678259   1677428   1676241   1674856   1673519  
  7880.000000   1672494   1671983   1672054   1672634   1673520  
  7870.000000   1674465   1675232   1675682   1675792   1675651  
  7860.000000   1675418   1675256   1675283   1675517   1675886  
  7850.000000   1676234   1676391   1676215   1675654   1674769  
  7840.000000   1673712   1672698   1671921   1671516   1671500  
  7830.000000   1671784   1672197   1672549   1672685   1672539  
  7820.000000   1672133   1671564   1670960   1670429   1670029  
  7810.000000   1669753   1669547   1669330   1669034   1668620  
  7800.000000   1668090   1667482   1666853   1666271   1665794  
  7790.000000   1665472   1665327   1665360   1665532   1665771  
  7780.000000   1665973   1666030   1665843   1665363   1664596  
  7770.000000   1663612   1662523   1661446   1660473   1659637  
  7760.000000   1658910   1658215   1657461   1656570   1655513  
  7750.000000   1654309   1653029   1651758   1650582   1649561  
  7740.000000   1648721   1648055   1647544   1647156   1646873  
  7730.000000   1646686   1646597   1646621   1646765   1647033  
  7720.000000   1647409   1647853   1648307   1648689   1648918  
  7710.000000   1648922   1648659   1648123   1647356   1646430  
  7700.000000   1645435   1644455   1643554   1642764   1642089  
  7690.000000   1641513   1641012   1640568   1640168   1639810  
  7680.000000   1639491   1639208   1638956   1638730   1638538  
  7670.000000   1638388   1638301   1638288   1638352   1638475  
  7660.000000   1638625   1638762   1638850   1638870   1638827  
  7650.000000   1638732   1638609   1638457   1638263   1637984  
  7640.000000   1637576   1636998   1636241   1635342   1634382  
  7630.000000   1633483   1632777   1632388   1632390   1632797  
  7620.000000   1633546   1634511   1635520   1636387   1636955  
  7610.000000   1637116   1636856   1636231   1635380   1634461  
  7600.000000   1633640   1633032   1632700   1632644   1632819  
  7590.000000   1633163   1633617   1634144   1634724   1635351  
  7580.000000   1636016   1636684   1637308   1637822   1638172  
  7570.000000   1638324   1638294   1638130   1637923   1637769  
  7560.000000   1637754   1637932   1638317   1638889   1639599  
  7550.000000   1640386   1641191   1641960   1642652   1643229  
  7540.000000   1643665   1643934   1644031   1643963   1643780  
  7530.000000   1643553   1643384   1643369   1643592   1644086  
  7520.000000   1644837   1645776   1646805   1647816   1648733  
  7510.000000   1649520   1650205   1650849   1651547   1652384  
  7500.000000   1653430   1654714   1656228   1657928   1659751  
  7490.000000   1661621   1663463   1665208   1666803   1668218  
  7480.000000   1669458   1670555   1671572   1672578   1673644  
  7470.000000   1674806   1676066   1677383   1678695   1679931  
  7460.000000   1681051   1682050   1682974   1683900   1684917  
  7450.000000   1686088   1687445   1688966   1690602   1692277  
  7440.000000   1693935   1695539   1697095   1698632   1700198  
  7430.000000   1701834   1703570   1705406   1707325   1709293  
  7420.000000   1711275   1713241   1715171   1717050   1718876  
  7410.000000   1720646   1722364   1724032   1725656   1727239  
  7400.000000   1728790   1730316   1731827   1733335   1734858  
  7390.000000   1736417   1738037   1739739   1741533   1743420  
  7380.000000   1745375   1747363   1749334   1751243   1753058  
  7370.000000   1754763   1756366   1757883   1759341   1760752  
  7360.000000   1762123   1763440   1764691   1765875   1767014  
  7350.000000   1768171   1769435   1770914   1772689   1774796  
  7340.000000   1777191   1779766   1782355   1784792   1786947  
  7330.000000   1788760   1790257   1791531   1792710   1793914  
  7320.000000   1795208   1796599   1798037   1799457   1800801  
  7310.000000   1802060   1803260   1804462   1805715   1807039  
  7300.000000   1808397   1809718   1810916   1811931   1812748  
  7290.000000   1813412   1814005   1814629   1815360   1816245  
  7280.000000   1817279   1818428   1819635   1820839   1821988  
  7270.000000   1823040   1823971   1824768   1825442   1826019  
  7260.000000   1826543   1827063   1827635   1828297   1829081  
  7250.000000   1829994   1831046   1832237   1833574   1835052  
  7240.000000   1836663   1838363   1840097   1841786   1843376  
  7230.000000   1844835   1846202   1847545   1848981   1850600  
  7220.000000   1852477   1854616   1856990   1859518   1862127  
  7210.000000   1864742   1867332   1869880   1872405   1874925  
  7200.000000   1877479   1880098   1882829   1885709   1888778  
  7190.000000   1892036   1895463   1898986   1902519   1905966  
  7180.000000   1909269   1912408   1915431   1918402   1921407  
  7170.000000   1924488   1927668   1930905   1934163   1937390  
  7160.000000   1940584   1943766   1947004   1950366   1953932  
  7150.000000   1957756   1961883   1966323   1971076   1976098  
  7140.000000   1981332   1986677   1992032   1997279   2002349  
  7130.000000   2007191   2011836   2016336   2020808   2025347  
  7120.000000   2030059   2034986   2040150   2045517   2051046  
  7110.000000   2056679   2062386   2068151   2073994   2079943  
  7100.000000   2086050   2092339   2098830   2105486   2112254  
  7090.000000   2119036   2125750   2132323   2138739   2145019  
  7080.000000   2151240   2157482   2163821   2170287   2176873  
  7070.000000   2183530   2190199   2196828   2203394   2209897  
  7060.000000   2216351   2222773   2229170   2235547   2241909  
  7050.000000   2248268   2254646   2261060   2267510   2273960  
  7040.000000   2280351   2286612   2292688   2298570   2304296  
  7030.000000   2309952   2315628   2321402   2327300   2333310  
  7020.000000   2339377   2345444   2351456   2357388   2363211  
  7010.000000   2368910   2374447   2379788   2384897   2389775  
  7000.000000   2394448   2398987   2403456   2407921   2412395  
  6990.000000   2416870   2421301   2425662   2429926   2434117  
  6980.000000   2438244   2442331   2446355   2450288   2454071  
  6970.000000   2457674   2461080   2464322   2467432   2470458  
  6960.000000   2473403   2476263   2479004   2481622   2484126  
  6950.000000   2486577   2489033   2491554   2494140   2496755  
  6940.000000   2499311   2501730   2503947   2505959   2507794  
  6930.000000   2509521   2511189   2512837   2514462   2516055  
  6920.000000   2517600   2519107   2520593   2522091   2523610  
  6910.000000   2525141   2526644   2528077   2529396   2530592  
  6900.000000   2531676   2532685   2533661   2534642   2535649  
  6890.000000   2536697   2537790   2538930   2540111   2541319  
  6880.000000   2542520   2543675   2544739   2545689   2546525  
  6870.000000   2547280   2548007   2548760   2549577   2550470  
  6860.000000   2551425   2552420   2553426   2554429   2555420  
  6850.000000   2556396   2557347   2558257   2559103   2559869  
  6840.000000   2560545   2561135   2561648   2562097   2562486  
  6830.000000   2562828   2563136   2563445   2563791   2564220  
  6820.000000   2564749   2565365   2566011   2566609   2567081  
  6810.000000   2567382   2567515   2567529   2567496   2567478  
  6800.000000   2567502   2567555   2567590   2567566   2567455  
  6790.000000   2567275   2567063   2566871   2566729   2566652  
  6780.000000   2566620   2566610   2566597   2566571   2566520  
  6770.000000   2566435   2566291   2566054   2565696   2565211  
  6760.000000   2564625   2563992   2563376   2562822   2562339  
  6750.000000   2561901   2561462   2560987   2560474   2559962  
  6740.000000   2559503   2559151   2558915   2558765   2558635  
  6730.000000   2558456   2558185   2557826   2557416   2557003  
  6720.000000   2556613   2556234   2555818   2555305   2554654  
  6710.000000   2553869   2552991   2552090   2551223   2550420  
  6700.000000   2549668   2548930   2548165   2547352   2546496  
  6690.000000   2545626   2544766   2543933   2543115   2542295  
  6680.000000   2541451   2540583   2539704   2538842   2538016  
  6670.000000   2537225   2536443   2535631   2534747   2533772  
  6660.000000   2532704   2531565   2530377   2529155   2527899  
  6650.000000   2526604   2525261   2523875   2522458   2521037  
  6640.000000   2519627   2518242   2516876   2515530   2514200  
  6630.000000   2512908   2511672   2510518   2509448   2508440  
  6620.000000   2507442   2506385   2505194   2503815   2502220  
  6610.000000   2500409   2498411   2496276   2494063   2491846  
  6600.000000   2489696   2487683   2485856   2484245   2482839  
  6590.000000   2481600   2480468   2479379   2478279   2477127  
  6580.000000   2475903   2474591   2473185   2471678   2470082  
  6570.000000   2468419   2466746   2465126   2463631   2462306  
  6560.000000   2461159   2460155   2459224   2458290   2457285  
  6550.000000   2456175   2454959   2453660   2452311   2450943  
  6540.000000   2449584   2448251   2446965   2445738   2444580  
  6530.000000   2443482   2442416   2441339   2440209   2439002  
  6520.000000   2437724   2436411   2435117   2433885   2432737  
  6510.000000   2431659   2430618   2429573   2428508   2427437  
  6500.000000   2426400   2425441   2424588   2423831   2423127  
  6490.000000   2422415   2421641   2420780   2419847   2418885  
  6480.000000   2417945   2417066   2416260   2415511   2414785  
  6470.000000   2414047   2413269   2412436   2411545   2410600  
  6460.000000   2409608   2408586   2407552   2406537   2405571  
  6450.000000   2404679   2403869   2403134   2402450   2401792  
  6440.000000   2401139   2400485   2399832   2399182   2398530  
  6430.000000   2397849   2397107   2396270   2395327   2394293  
  6420.000000   2393218   2392169   2391217   2390412   2389780  
  6410.000000   2389315   2388989   2388761   2388588   2388425  
  6400.000000   2388236   2387993   2387688   2387326   2386939  
  6390.000000   2386563   2386241   2385992   2385814   2385674  
  6380.000000   2385526   2385326   2385056   2384725   2384369  
  6370.000000   2384033   2383747   2383515   2383310   2383095  
  6360.000000   2382831   2382501   2382112   2381689   2381256  
  6350.000000   2380829   2380403   2379962   2379487   2378973  
  6340.000000   2378424   2377859   2377293   2376736   2376180  
  6330.000000   2375612   2375017   2374396   2373754   2373111  
  6320.000000   2372477   2371852   2371214   2370533   2369772  
  6310.000000   2368913   2367953   2366915   2365824   2364713  
  6300.000000   2363598   2362489   2361380   2360269   2359148  
  6290.000000   2358016   2356866   2355696   2354489   2353238  
  6280.000000   2351929   2350560   2349129   2347644   2346107  
  6270.000000   2344524   2342894   2341227   2339531   2337826  
  6260.000000   2336126   2334441   2332761   2331063   2329312  
  6250.000000   2327482   2325564   2323588   2321602   2319675  
  6240.000000   2317862   2316193   2314656   2313210   2311793  
  6230.000000   2310350   2308841   2307256   2305607   2303916  
  6220.000000   2302207   2300490   2298764   2297017   2295236  
  6210.000000   2293409   2291534   2289614   2287661   2285693  
  6200.000000   2283731   2281801   2279931   2278146   2276466  
  6190.000000   2274899   2273436   2272056   2270728   2269421  
  6180.000000   2268108   2266776   2265424   2264061   2262700  
  6170.000000   2261350   2260014   2258679   2257325   2255927  
  6160.000000   2254462   2252921   2251310   2249651   2247982  
  6150.000000   2246343   2244768   2243280   2241880   2240555  
  6140.000000   2239281   2238030   2236782   2235523   2234254  
  6130.000000   2232980   2231716   2230470   2229253   2228063  
  6120.000000   2226899   2225746   2224599   2223446   2222290  
  6110.000000   2221139   2220018   2218951   2217968   2217085  
  6100.000000   2216309   2215625   2215015   2214444   2213895  
  6090.000000   2213346   2212800   2212256   2211727   2211215  
  6080.000000   2210735   2210292   2209908   2209598   2209389  
  6070.000000   2209290   2209308   2209421   2209608   2209829  
  6060.000000   2210066   2210304   2210561   2210851   2211213  
  6050.000000   2211660   2212213   2212864   2213616   2214455  
  6040.000000   2215382   2216390   2217482   2218647   2219885  
  6030.000000   2221180   2222539   2223962   2225468   2227067  
  6020.000000   2228773   2230574   2232457   2234386   2236335  
  6010.000000   2238274   2240198   2242103   2243998   2245882  
  6000.000000   2247761   2249623   2251477   2253323   2255190  
  5990.000000   2257100   2259087   2261163   2263340   2265607  
  5980.000000   2267958   2270386   2272902   2275520   2278264  
  5970.000000   2281138   2284139   2287236   2290397   2293575  
  5960.000000   2296745   2299879   2302976   2306024   2309028  
  5950.000000   2311983   2314896   2317780   2320665   2323589  
  5940.000000   2326595   2329710   2332945   2336285   2339695  
  5930.000000   2343131   2346552   2349929   2353247   2356502  
  5920.000000   2359693   2362821   2365886   2368888   2371829  
  5910.000000   2374713   2377546   2380327   2383050   2385711  
  5900.000000   2388303   2390838   2393335   2395830   2398354  
  5890.000000   2400936   2403574   2406252   2408934   2411582  
  5880.000000   2414164   2416667   2419088   2421429   2423691  
  5870.000000   2425870   2427960   2429960   2431888   2433778  
  5860.000000   2435677   2437633   2439677   2441820   2444052  
  5850.000000   2446349   2448690   2451064   2453472   2455925  
  5840.000000   2458430   2460983   2463569   2466164   2468746  
  5830.000000   2471299   2473821   2476317   2478796   2481260  
  5820.000000   2483704   2486115   2488475   2490771   2492984  
  5810.000000   2495106   2497116   2499010   2500768   2502405  
  5800.000000   2503923   2505372   2506778   2508197   2509632  
  5790.000000   2511096   2512532   2513892   2515077   2516010  
  5780.000000   2516584   2516734   2516386   2515519   2514134  
  5770.000000   2512293   2510089   2507662   2505147   2502683  
  5760.000000   2500352   2498212   2496261   2494487   2492859  
  5750.000000   2491367   2490000   2488766   2487663   2486682  
  5740.000000   2485802   2484990   2484227   2483488   2482777  
  5730.000000   2482087   2481432   2480806   2480217   2479659  
  5720.000000   2479141   2478670   2478266   2477936   2477686  
  5710.000000   2477501   2477362   2477245   2477136   2477026  
  5700.000000   2476922   2476831   2476757   2476698   2476642  
  5690.000000   2476582   2476513   2476452   2476410   2476409  
  5680.000000   2476444   2476499   2476528   2476482   2476302  
  5670.000000   2475950   2475394   2474628   2473649   2472471  
  5660.000000   2471107   2469587   2467946   2466237   2464509  
  5650.000000   2462813   2461180   2459626   2458143   2456719  
  5640.000000   2455333   2453977   2452645   2451341   2450069  
  5630.000000   2448828   2447619   2446439   2445295   2444192  
  5620.000000   2443141   2442140   2441185   2440255   2439328  
  5610.000000   2438386   2437427   2436463   2435520   2434625  
  5600.000000   2433797   2433038   2432337   2431669   2431014  
  5590.000000   2430355   2429684   2428995   2428280   2427527  
  5580.000000   2426715   2425828   2424856   2423805   2422693  
  5570.000000   2421550   2420401   2419272   2418172   2417109  
  5560.000000   2416075   2415064   2414062   2413053   2412016  
  5550.000000   2410937   2409807   2408630   2407426   2406224  
  5540.000000   2405055   2403934   2402863   2401823   2400790  
  5530.000000   2399744   2398677   2397602   2396538   2395503  
  5520.000000   2394505   2393534   2392566   2391574   2390541  
  5510.000000   2389461   2388342   2387199   2386043   2384882  
  5500.000000   2383712   2382537   2381356   2380182   2379021  
  5490.000000   2377877   2376735   2375572   2374356   2373062  
  5480.000000   2371678   2370213   2368684   2367116   2365521  
  5470.000000   2363903   2362251   2360561   2358832   2357074  
  5460.000000   2355302   2353527   2351743   2349937   2348085  
  5450.000000   2346173   2344202   2342197   2340196   2338240  
  5440.000000   2336354   2334545   2332808   2331129   2329507  
  5430.000000   2327941   2326445   2325017   2323648   2322308  
  5420.000000   2320975   2319629   2318290   2316993   2315804  
  5410.000000   2314764   2313907   2313208   2312637   2312136  
  5400.000000   2311684   2311268   2310919   2310664   2310546  
  5390.000000   2310570   2310743   2311038   2311457   2311984  
  5380.000000   2312647   2313446   2314405   2315502   2316735  
  5370.000000   2318064   2319495   2321006   2322640   2324395  
  5360.000000   2326325   2328422   2330730   2333238   2336007  
  5350.000000   2339040   2342421   2346153   2350304   2354843  
  5340.000000   2359808   2365149   2370916   2377071   2383680  
  5330.000000   2390697   2398172   2406032   2414313   2422954  
  5320.000000   2432041   2441564   2451662   2462342   2473730  
  5310.000000   2485783   2498570   2512002   2526132   2540893  
  5300.000000   2556381   2572575   2589608   2607477   2626300  
  5290.000000   2646031   2666711   2688207   2710464   2733294  
  5280.000000   2756635   2780369   2804547   2829187   2854432  
  5270.000000   2880325   2906912   2934080   2961666   2989435  
  5260.000000   3017191   3044816   3072291   3099683   3127047  
  5250.000000   3154419   3181689   3208717   3235235   3261082  
  5240.000000   3286078   3310253   3333613   3356333   3378457  
  5230.000000   3400115   3421234   3441814   3461677   3480790  
  5220.000000   3499010   3516398   3532923   3548745   3563880  
  5210.000000   3578479   3592490   3605960   3618737   3630810  
  5200.000000   3642033   3652464   3662057   3670954   3679149  
  5190.000000   3686765   3693744   3700138   3705853   3710946  
  5180.000000   3715369   3719233   3722531   3725370   3727705  
  5170.000000   3729587   3730931   3731775   3732065   3731881  
  5160.000000   3731209   3730137   3728635   3726750   3724431  
  5150.000000   3721722   3718604   3715160   3711412   3707446  
  5140.000000   3703261   3698898   3694318   3689535   3684517  
  5130.000000   3679300   3673881   3668308   3662582   3656735  
  5120.000000   3650758   3644679   3638503   3632272   3626005  
  5110.000000   3619738   3613476   3607227   3600976   3594727  
  5100.000000   3588477   3582250   3576062   3569938   3563880  
  5090.000000   3557889   3551949   3546049   3540181   3534351  
  5080.000000   3528565   3522832   3517144   3511490   3505839  
  5070.000000   3500170   3494454   3488684   3482849   3476950  
  5060.000000   3470979   3464931   3458793   3452564   3446243  
  5050.000000   3439849   3433395   3426907   3420392   3413856  
  5040.000000   3407288   3400683   3394033   3387347   3380635  
  5030.000000   3373922   3367225   3360563   3353943   3347371  
  5020.000000   3340854   3334396   3328010   3321701   3315482  
  5010.000000   3309346   3303301   3297332   3291450   3285651  
  5000.000000   3279964   3274396   3268988   3263744   3258703  
  4990.000000   3253862   3249255   3244876   3240756   3236880  
  4980.000000   3233271   3229897   3226775   3223873   3221222  
  4970.000000   3218810   3216694   3214873   3213405   3212269  
  4960.000000   3211498   3211045   3210935   3211124   3211652  
  4950.000000   3212497   3213708   3215258   3217183   3219436  
  4940.000000   3222042   3224958   3228226   3231824   3235806  
  4930.000000   3240147   3244878   3249945   3255351   3261029  
  4920.000000   3266988   3273187   3279664   3286407   3293467  
  4910.000000   3300835   3308540   3316550   3324862   3333421  
  4900.000000   3342200   3351137   3360200   3369345   3378554  
  4890.000000   3387810   3397108   3406440   3415782   3425104  
  4880.000000   3434346   3443457   3452360   3461011   3469350  
  4870.000000   3477360   3484999   3492267   3499128   3505597  
  4860.000000   3511652   3517332   3522645   3527658   3532389  
  4850.000000   3536904   3541206   3545335   3549273   3553043  
  4840.000000   3556627   3560055   3563327   3566482   3569528  
  4830.000000   3572501   3575404   3578261   3581067   3583836  
  4820.000000   3586563   3589255   3591908   3594530   3597116  
  4810.000000   3599675   3602203   3604704   3607174   3609614  
  4800.000000   3612020   3614393   3616734   3619051   3621347  
  4790.000000   3623632   3625907   3628179   3630444   3632710  
  4780.000000   3634974   3637247   3639521   3641799   3644056  
  4770.000000   3646275   3648415   3650450   3652343   3654083  
  4760.000000   3655655   3657071   3658332   3659458   3660452  
  4750.000000   3661334   3662100   3662769   3663334   3663807  
  4740.000000   3664177   3664449   3664607   3664656   3664587  
  4730.000000   3664415   3664141   3663784   3663340   3662816  
  4720.000000   3662196   3661477   3660650   3659728   3658733  
  4710.000000   3657707   3656696   3655744   3654886   3654141  
  4700.000000   3653513   3652995   3652580   3652260   3652038  
  4690.000000   3651914   3651899   3651989   3652181   3652457  
  4680.000000   3652798   3653172   3653561   3653936   3654287  
  4670.000000   3654594   3654861   3655076   3655256   3655405  
  4660.000000   3655558   3655741   3656006   3656396   3656963  
  4650.000000   3657736   3658741   3659972   3661414   3663029  
  4640.000000   3664780   3666622   3668526   3670466   3672429  
  4630.000000   3674403   3676378   3678339   3680266   3682138  
  4620.000000   3683929   3685619   3687185   3688610   3689872  
  4610.000000   3690961   3691862   3692585   3693146   3693593  
  4600.000000   3693971   3694347   3694762   3695254   3695814  
  4590.000000   3696429   3697041   3697610   3698074   3698405  
  4580.000000   3698569   3698565   3698384   3698040   3697536  
  4570.000000   3696893   3696121   3695247   3694285   3693262  
  4560.000000   3692186   3691075   3689925   3688744   3687525  
  4550.000000   3686273   3684983   3683660   3682302   3680912  
  4540.000000   3679496   3678064   3676637   3675235   3673896  
  4530.000000   3672638   3671495   3670470   3669585   3668826  
  4520.000000   3668217   3667741   3667430   3667271   3667308  
  4510.000000   3667528   3667991   3668691   3669711   3671060  
  4500.000000   3672838   3675053   3677797   3681056   3684903  
  4490.000000   3689304   3694329   3699950   3706243   3713182  
  4480.000000   3720835   3729157   3738181   3747835   3758123  
  4470.000000   3768959   3780337   3792168   3804439   3817060  
  4460.000000   3830006   3843186   3856570   3870077   3883680  
  4450.000000   3897317   3910968   3924593   3938181   3951718  
  4440.000000   3965206   3978658   3992077   4005487   4018872  
  4430.000000   4032240   4045536   4058744   4071773   4084597  
  4420.000000   4097110   4109290   4121035   4132329   4143071  
  4410.000000   4153244   4162746   4171560   4179595   4186860  
  4400.000000   4193304   4198986   4203914   4208198   4211889  
  4390.000000   4215124   4217974   4220572   4222989   4225334  
  4380.000000   4227655   4230028   4232477   4235049   4237760  
  4370.000000   4240649   4243743   4247083   4250697   4254606  
  4360.000000   4258815   4263312   4268060   4273022   4278127  
  4350.000000   4283332   4288556   4293774   4298923   4304022  
  4340.000000   4309043   4314020   4318894   4323601   4327925  
  4330.000000   4331601   4334242   4335496   4335051   4332797  
  4320.000000   4328818   4323460   4317212   4310675   4304378  
  4310.000000   4298758   4294030   4290270   4287375   4285207  
  4300.000000   4283583   4282367   4281449   4280751   4280218  
  4290.000000   4279785   4279421   4279082   4278785   4278550  
  4280.000000   4278441   4278513   4278812   4279365   4280154  
  4270.000000   4281160   4282320   4283574   4284802   4285867  
  4260.000000   4286562   4286666   4285946   4284233   4281446  
  4250.000000   4277645   4273007   4267825   4262418   4257110  
  4240.000000   4252133   4247645   4243676   4240197   4237107  
  4230.000000   4234304   4231675   4229136   4226618   4224069  
  4220.000000   4221470   4218804   4216105   4213400   4210771  
  4210.000000   4208272   4205988   4203951   4202198   4200711  
  4200.000000   4199476   4198442   4197585   4196854   4196244  
  4190.000000   4195721   4195300   4194955   4194717   4194568  
  4180.000000   4194551   4194659   4194950   4195427   4196162  
  4170.000000   4197170   4198531   4200264   4202447   4205084  
  4160.000000   4208235   4211872   4216028   4220647   4225751  
  4150.000000   4231280   4237258   4243632   4250440   4257637  
  4140.000000   4265274   4273319   4281832   4290783   4300228  
  4130.000000   4310119   4320481   4331238   4342389   4353860  
  4120.000000   4365660   4377752   4390188   4402972   4416174  
  4110.000000   4429803   4443901   4458435   4473392   4488690  
  4100.000000   4504275   4520053   4535975   4551982   4568059  
  4090.000000   4584196   4600404   4616697   4633082   4649573  
  4080.000000   4666163   4682862   4699645   4716512   4733399  
  4070.000000   4750266   4766995   4783514   4799685   4815458  
  4060.000000   4830731   4845509   4859730   4873431   4886559  
  4050.000000   4899168   4911213   4922782   4933845   4944498  
  4040.000000   4954681   4964444   4973661   4982335   4990320  
  4030.000000   4997640   5004188   5010020   5015059   5019352  
  4020.000000   5022795   5025437   5027252   5028321   5028605  
  4010.000000   5028250   5027334   5025884   5023680   5020795  
  4000.000000   5017565  
##END= 
