##TITLE= Sample 003 By ssteindl date Dienstag, November 20 2018
##JCAMP-DX= 4.24
##DATA TYPE= INFRARED SPECTRUM
##ORIGIN= Exported PE Spectrum Data File
##OWNER= Sandra Steindl
##DATE= 18/11/20
##TIME= 13:56:58.00
##SPECTROMETER/DATA SYSTEM= PERKIN-ELMER Frontier FT-IR/NIR IR
##INSTRUMENT PARAMETERS=
  APODIZATION=stark
  DETECTOR=INGAAS
##RESOLUTION= 16.000000
##DELTAX= -2.000000
##XUNITS= 1/CM
##YUNITS= A
##XFACTOR= 1.00
##YFACTOR= 0.00000011920928955078
##FIRSTX= 10000.00
##LASTX= 4000.00
##NPOINTS= 3001
##FIRSTY= 0.217715
##MAXY= 0.608843
##MINY= 0.192938
##XYDATA= (X++(Y..Y))
 10000.000000   1826325   1824539   1823712   1824817   1827367  
  9990.000000   1829667   1830089   1827701   1822210   1814221  
  9980.000000   1805256   1797450   1792765   1792504   1796985  
  9970.000000   1805397   1815938   1826169   1833638   1836395  
  9960.000000   1833544   1825434   1813618   1800448   1788531  
  9950.000000   1780021   1776221   1777233   1782188   1789475  
  9940.000000   1797255   1803876   1808104   1809411   1807858  
  9930.000000   1804227   1799759   1796051   1794685   1796810  
  9920.000000   1802807   1811946   1822584   1832406   1839167  
  9910.000000   1841219   1837997   1830094   1818987   1806615  
  9900.000000   1794833   1785133   1778476   1775410   1776101  
  9890.000000   1780431   1787805   1797150   1806812   1814938  
  9880.000000   1819823   1820521   1817113   1810719   1803149  
  9870.000000   1796246   1791383   1789018   1788811   1789836  
  9860.000000   1791081   1791730   1791310   1789621   1786570  
  9850.000000   1782132   1776347   1769550   1762446   1756142  
  9840.000000   1751885   1750678   1752908   1758137   1765230  
  9830.000000   1772698   1779148   1783622   1785706   1785428  
  9820.000000   1783109   1779160   1774146   1768724   1763779  
  9810.000000   1760220   1758783   1759669   1762347   1765657  
  9800.000000   1768159   1768744   1767051   1763688   1759936  
  9790.000000   1757244   1756596   1758136   1761184   1764575  
  9780.000000   1767249   1768657   1768963   1768796   1768867  
  9770.000000   1769540   1770680   1771783   1772293   1771916  
  9760.000000   1770765   1769281   1768003   1767323   1767346  
  9750.000000   1767964   1768958   1770221   1771709   1773428  
  9740.000000   1775218   1776730   1777470   1777037   1775367  
  9730.000000   1772818   1770104   1767915   1766627   1766009  
  9720.000000   1765357   1763783   1760684   1756103   1750756  
  9710.000000   1745849   1742553   1741643   1743210   1746762  
  9700.000000   1751466   1756485   1761191   1765163   1768109  
  9690.000000   1769702   1769634   1767723   1764164   1759617  
  9680.000000   1755114   1751750   1750243   1750683   1752447  
  9670.000000   1754530   1755932   1756109   1755108   1753436  
  9660.000000   1751698   1750192   1748732   1746732   1743562  
  9650.000000   1738957   1733296   1727569   1723063   1720881  
  9640.000000   1721523   1724707   1729495   1734617   1738902  
  9630.000000   1741523   1742168   1740914   1738160   1734463  
  9620.000000   1730502   1727025   1724773   1724356   1726062  
  9610.000000   1729739   1734745   1740119   1744804   1747979  
  9600.000000   1749229   1748626   1746593   1743694   1740432  
  9590.000000   1737123   1733932   1730953   1728315   1726216  
  9580.000000   1724840   1724280   1724406   1724916   1725361  
  9570.000000   1725342   1724607   1723131   1721125   1718900  
  9560.000000   1716828   1715171   1714085   1713563   1713478  
  9550.000000   1713629   1713801   1713844   1713738   1713606  
  9540.000000   1713715   1714334   1715652   1717595   1719814  
  9530.000000   1721704   1722610   1722065   1720026   1716982  
  9520.000000   1713828   1711632   1711238   1713012   1716685  
  9510.000000   1721471   1726289   1730102   1732155   1732136  
  9500.000000   1730165   1726690   1722352   1717837   1713784  
  9490.000000   1710688   1708832   1708224   1708565   1709360  
  9480.000000   1709993   1710012   1709186   1707674   1705895  
  9470.000000   1704405   1703679   1703882   1704856   1706058  
  9460.000000   1706841   1706543   1704784   1701495   1696988  
  9450.000000   1691870   1686924   1682995   1680782   1680765  
  9440.000000   1683004   1687162   1692501   1698088   1703012  
  9430.000000   1706604   1708581   1709018   1708242   1706618  
  9420.000000   1704430   1701782   1698711   1695292   1691787  
  9410.000000   1688644   1686354   1685278   1685411   1686393  
  9400.000000   1687562   1688241   1687969   1686668   1684660  
  9390.000000   1682457   1680577   1679293   1678629   1678406  
  9380.000000   1678425   1678582   1678917   1679574   1680667  
  9370.000000   1682215   1684054   1685957   1687667   1689045  
  9360.000000   1690038   1690661   1690917   1690727   1689971  
  9350.000000   1688523   1686352   1683549   1680311   1676854  
  9340.000000   1673330   1669798   1666285   1662876   1659805  
  9330.000000   1657414   1656036   1655815   1656588   1657901  
  9320.000000   1659166   1659904   1659967   1659630   1659500  
  9310.000000   1660220   1662179   1665307   1669106   1672820  
  9300.000000   1675731   1677389   1677758   1677125   1675930  
  9290.000000   1674522   1673069   1671541   1669859   1667974  
  9280.000000   1665953   1663928   1662056   1660438   1659107  
  9270.000000   1658096   1657462   1657391   1658095   1659779  
  9260.000000   1662456   1665919   1669762   1673517   1676813  
  9250.000000   1679456   1681419   1682725   1683337   1683110  
  9240.000000   1681846   1679449   1676069   1672190   1668508  
  9230.000000   1665722   1664210   1663888   1664217   1664441  
  9220.000000   1663883   1662202   1659499   1656229   1652987  
  9210.000000   1650250   1648239   1646920   1646179   1645975  
  9200.000000   1646413   1647682   1649879   1652895   1656338  
  9190.000000   1659660   1662319   1664002   1664713   1664711  
  9180.000000   1664334   1663784   1663032   1661826   1659884  
  9170.000000   1657077   1653591   1649881   1646506   1643887  
  9160.000000   1642115   1640944   1639892   1638533   1636662  
  9150.000000   1634434   1632262   1630690   1630173   1630900  
  9140.000000   1632738   1635295   1638076   1640568   1642346  
  9130.000000   1643089   1642665   1641099   1638618   1635610  
  9120.000000   1632625   1630206   1628783   1628487   1629145  
  9110.000000   1630289   1631326   1631730   1631219   1629858  
  9100.000000   1628008   1626208   1624992   1624764   1625697  
  9090.000000   1627730   1630586   1633871   1637162   1640067  
  9080.000000   1642304   1643714   1644328   1644277   1643751  
  9070.000000   1642894   1641774   1640368   1638616   1636539  
  9060.000000   1634312   1632324   1631052   1630940   1632181  
  9050.000000   1634629   1637758   1640801   1642971   1643701  
  9040.000000   1642839   1640647   1637705   1634729   1632373  
  9030.000000   1631089   1631030   1632104   1634014   1636364  
  9020.000000   1638698   1640601   1641763   1642020   1641379  
  9010.000000   1639993   1638126   1636025   1633843   1631604  
  9000.000000   1629273   1626843   1624430   1622338   1620986  
  8990.000000   1620779   1621875   1624111   1626971   1629735  
  8980.000000   1631688   1632362   1631707   1630034   1627899  
  8970.000000   1625847   1624281   1623332   1622909   1622796  
  8960.000000   1622780   1622746   1622655   1622538   1622431  
  8950.000000   1622367   1622377   1622510   1622834   1623379  
  8940.000000   1624094   1624780   1625149   1624898   1623884  
  8930.000000   1622232   1620374   1618929   1618481   1619355  
  8920.000000   1621452   1624271   1627067   1629122   1630008  
  8910.000000   1629716   1628635   1627345   1626379   1626015  
  8900.000000   1626227   1626749   1627256   1627513   1627476  
  8890.000000   1627277   1627125   1627198   1627547   1628110  
  8880.000000   1628755   1629366   1629900   1630373   1630831  
  8870.000000   1631284   1631690   1631974   1632080   1632031  
  8860.000000   1631943   1631997   1632367   1633129   1634210  
  8850.000000   1635400   1636421   1637024   1637086   1636636  
  8840.000000   1635851   1634974   1634243   1633805   1633700  
  8830.000000   1633871   1634206   1634599   1634978   1635343  
  8820.000000   1635750   1636296   1637072   1638124   1639435  
  8810.000000   1640893   1642326   1643509   1644250   1644431  
  8800.000000   1644070   1643319   1642440   1641739   1641486  
  8790.000000   1641848   1642842   1644344   1646130   1647947  
  8780.000000   1649575   1650871   1651781   1652325   1652579  
  8770.000000   1652639   1652608   1652584   1652670   1652955  
  8760.000000   1653519   1654395   1655565   1656947   1658412  
  8750.000000   1659812   1661025   1661969   1662642   1663089  
  8740.000000   1663410   1663699   1664047   1664502   1665095  
  8730.000000   1665853   1666812   1668038   1669578   1671482  
  8720.000000   1673732   1676277   1678990   1681731   1684346  
  8710.000000   1686712   1688729   1690309   1691373   1691827  
  8700.000000   1691600   1690642   1688996   1686796   1684302  
  8690.000000   1681829   1679700   1678171   1677371   1677296  
  8680.000000   1677800   1678698   1679796   1680998   1682296  
  8670.000000   1683778   1685576   1687790   1690444   1693409  
  8660.000000   1696457   1699245   1701450   1702788   1703154  
  8650.000000   1702622   1701480   1700145   1699071   1698650  
  8640.000000   1699111   1700488   1702604   1705162   1707814  
  8630.000000   1710281   1712382   1714068   1715372   1716379  
  8620.000000   1717181   1717852   1718457   1719043   1719668  
  8610.000000   1720380   1721209   1722150   1723151   1724151  
  8600.000000   1725088   1725955   1726792   1727674   1728665  
  8590.000000   1729767   1730908   1731946   1732742   1733210  
  8580.000000   1733385   1733414   1733523   1733930   1734769  
  8570.000000   1736044   1737636   1739359   1741033   1742544  
  8560.000000   1743876   1745084   1746250   1747427   1748616  
  8550.000000   1749761   1750788   1751640   1752321   1752888  
  8540.000000   1753435   1754063   1754844   1755813   1756951  
  8530.000000   1758213   1759537   1760858   1762116   1763255  
  8520.000000   1764240   1765034   1765617   1765976   1766125  
  8510.000000   1766102   1765971   1765836   1765827   1766098  
  8500.000000   1766775   1767946   1769602   1771639   1773849  
  8490.000000   1775972   1777762   1779036   1779730   1779886  
  8480.000000   1779655   1779218   1778766   1778439   1778352  
  8470.000000   1778574   1779151   1780093   1781369   1782906  
  8460.000000   1784579   1786253   1787811   1789211   1790496  
  8450.000000   1791793   1793245   1794958   1796930   1799051  
  8440.000000   1801122   1802938   1804346   1805301   1805846  
  8430.000000   1806076   1806075   1805864   1805402   1804618  
  8420.000000   1803483   1802059   1800497   1799030   1797873  
  8410.000000   1797206   1797094   1797523   1798399   1799618  
  8400.000000   1801086   1802703   1804355   1805866   1807045  
  8390.000000   1807681   1807634   1806884   1805587   1804051  
  8380.000000   1802674   1801830   1801782   1802610   1804196  
  8370.000000   1806259   1808411   1810280   1811568   1812130  
  8360.000000   1811963   1811237   1810239   1809322   1808804  
  8350.000000   1808889   1809619   1810849   1812274   1813506  
  8340.000000   1814173   1814048   1813092   1811478   1809516  
  8330.000000   1807573   1805961   1804857   1804272   1804068  
  8320.000000   1804039   1803985   1803769   1803365   1802828  
  8310.000000   1802288   1801870   1801670   1801716   1801972  
  8300.000000   1802358   1802772   1803124   1803342   1803391  
  8290.000000   1803266   1802974   1802535   1801961   1801276  
  8280.000000   1800509   1799702   1798901   1798150   1797471  
  8270.000000   1796860   1796275   1795653   1794926   1794051  
  8260.000000   1793027   1791891   1790712   1789561   1788496  
  8250.000000   1787541   1786695   1785944   1785282   1784728  
  8240.000000   1784320   1784106   1784116   1784348   1784758  
  8230.000000   1785267   1785773   1786172   1786368   1786297  
  8220.000000   1785913   1785216   1784225   1783013   1781674  
  8210.000000   1780340   1779133   1778146   1777397   1776820  
  8200.000000   1776264   1775541   1774453   1772875   1770770  
  8190.000000   1768235   1765470   1762755   1760378   1758563  
  8180.000000   1757419   1756901   1756814   1756860   1756701  
  8170.000000   1756056   1754783   1752929   1750734   1748556  
  8160.000000   1746766   1745627   1745202   1745339   1745715  
  8150.000000   1745945   1745714   1744875   1743494   1741793  
  8140.000000   1740054   1738495   1737193   1736073   1734964  
  8130.000000   1733692   1732176   1730469   1728743   1727229  
  8120.000000   1726112   1725478   1725262   1725298   1725366  
  8110.000000   1725281   1724942   1724336   1723533   1722616  
  8100.000000   1721668   1720719   1719775   1718805   1717789  
  8090.000000   1716708   1715562   1714365   1713136   1711922  
  8080.000000   1710789   1709847   1709213   1708999   1709250  
  8070.000000   1709916   1710836   1711765   1712427   1712589  
  8060.000000   1712125   1711046   1709491   1707676   1705822  
  8050.000000   1704103   1702604   1701339   1700264   1699335  
  8040.000000   1698512   1697781   1697125   1696512   1695877  
  8030.000000   1695130   1694184   1692982   1691531   1689893  
  8020.000000   1688191   1686554   1685114   1683957   1683137  
  8010.000000   1682660   1682500   1682605   1682887   1683246  
  8000.000000   1683562   1683740   1683724   1683518   1683201  
  7990.000000   1682876   1682654   1682569   1682579   1682530  
  7980.000000   1682238   1681523   1680310   1678660   1676772  
  7970.000000   1674935   1673437   1672500   1672207   1672516  
  7960.000000   1673271   1674275   1675330   1676288   1677051  
  7950.000000   1677570   1677827   1677824   1677583   1677138  
  7940.000000   1676552   1675883   1675197   1674528   1673885  
  7930.000000   1673253   1672607   1671947   1671300   1670730  
  7920.000000   1670307   1670085   1670070   1670212   1670418  
  7910.000000   1670574   1670579   1670376   1669961   1669384  
  7900.000000   1668737   1668132   1667687   1667500   1667625  
  7890.000000   1668058   1668717   1669459   1670099   1670459  
  7880.000000   1670427   1669982   1669222   1668315   1667456  
  7870.000000   1666781   1666329   1666035   1665767   1665406  
  7860.000000   1664908   1664351   1663902   1663768   1664084  
  7850.000000   1664857   1665932   1667033   1667864   1668191  
  7840.000000   1667939   1667187   1666144   1665049   1664097  
  7830.000000   1663380   1662885   1662537   1662254   1662002  
  7820.000000   1661804   1661720   1661797   1662033   1662345  
  7810.000000   1662602   1662658   1662421   1661883   1661138  
  7800.000000   1660351   1659704   1659339   1659310   1659567  
  7790.000000   1659979   1660363   1660546   1660402   1659879  
  7780.000000   1659007   1657881   1656631   1655399   1654297  
  7770.000000   1653401   1652733   1652271   1651962   1651742  
  7760.000000   1651547   1651336   1651081   1650774   1650408  
  7750.000000   1649982   1649495   1648946   1648346   1647719  
  7740.000000   1647098   1646514   1645989   1645518   1645072  
  7730.000000   1644605   1644074   1643449   1642734   1641962  
  7720.000000   1641185   1640461   1639833   1639328   1638953  
  7710.000000   1638705   1638576   1638556   1638632   1638773  
  7700.000000   1638930   1639039   1639030   1638852   1638484  
  7690.000000   1637946   1637295   1636599   1635923   1635305  
  7680.000000   1634749   1634235   1633734   1633225   1632706  
  7670.000000   1632191   1631700   1631245   1630825   1630423  
  7660.000000   1630017   1629593   1629159   1628741   1628382  
  7650.000000   1628125   1628004   1628020   1628155   1628357  
  7640.000000   1628565   1628700   1628698   1628506   1628110  
  7630.000000   1627536   1626866   1626219   1625736   1625541  
  7620.000000   1625711   1626253   1627092   1628093   1629089  
  7610.000000   1629930   1630513   1630804   1630843   1630710  
  7600.000000   1630507   1630317   1630200   1630173   1630227  
  7590.000000   1630332   1630451   1630548   1630600   1630599  
  7580.000000   1630554   1630489   1630440   1630441   1630518  
  7570.000000   1630677   1630907   1631175   1631450   1631708  
  7560.000000   1631950   1632195   1632475   1632820   1633247  
  7550.000000   1633754   1634329   1634952   1635618   1636324  
  7540.000000   1637080   1637882   1638710   1639514   1640233  
  7530.000000   1640799   1641180   1641377   1641446   1641468  
  7520.000000   1641541   1641736   1642103   1642645   1643346  
  7510.000000   1644174   1645113   1646152   1647293   1648530  
  7500.000000   1649846   1651203   1652566   1653903   1655221  
  7490.000000   1656551   1657960   1659510   1661247   1663160  
  7480.000000   1665188   1667223   1669149   1670872   1672355  
  7470.000000   1673619   1674745   1675830   1676964   1678191  
  7460.000000   1679509   1680875   1682237   1683555   1684829  
  7450.000000   1686095   1687412   1688835   1690399   1692097  
  7440.000000   1693896   1695745   1697607   1699470   1701353  
  7430.000000   1703293   1705331   1707482   1709730   1712024  
  7420.000000   1714298   1716482   1718530   1720423   1722182  
  7410.000000   1723850   1725488   1727146   1728866   1730657  
  7400.000000   1732504   1734370   1736206   1737974   1739656  
  7390.000000   1741268   1742857   1744490   1746229   1748115  
  7380.000000   1750147   1752290   1754484   1756675   1758828  
  7370.000000   1760938   1763020   1765084   1767115   1769063  
  7360.000000   1770854   1772419   1773731   1774831   1775823  
  7350.000000   1776859   1778080   1779581   1781359   1783329  
  7340.000000   1785354   1787302   1789088   1790701   1792196  
  7330.000000   1793655   1795147   1796692   1798261   1799791  
  7320.000000   1801222   1802534   1803761   1804985   1806306  
  7310.000000   1807809   1809516   1811393   1813335   1815225  
  7300.000000   1816947   1818435   1819674   1820708   1821615  
  7290.000000   1822478   1823363   1824294   1825257   1826205  
  7280.000000   1827075   1827817   1828403   1828853   1829225  
  7270.000000   1829612   1830119   1830834   1831812   1833048  
  7260.000000   1834486   1836014   1837504   1838825   1839895  
  7250.000000   1840682   1841240   1841674   1842143   1842802  
  7240.000000   1843783   1845142   1846871   1848879   1851052  
  7230.000000   1853258   1855410   1857452   1859391   1861249  
  7220.000000   1863081   1864913   1866782   1868695   1870677  
  7210.000000   1872743   1874936   1877284   1879820   1882549  
  7200.000000   1885466   1888540   1891749   1895061   1898468  
  7190.000000   1901941   1905458   1908958   1912387   1915669  
  7180.000000   1918773   1921693   1924497   1927277   1930164  
  7170.000000   1933256   1936624   1940271   1944161   1948211  
  7160.000000   1952349   1956501   1960635   1964724   1968775  
  7150.000000   1972783   1976769   1980744   1984755   1988841  
  7140.000000   1993069   1997473   2002088   2006895   2011873  
  7130.000000   2016964   2022131   2027336   2032577   2037851  
  7120.000000   2043194   2048617   2054156   2059812   2065599  
  7110.000000   2071491   2077476   2083506   2089558   2095596  
  7100.000000   2101628   2107673   2113795   2120054   2126514  
  7090.000000   2133192   2140068   2147072   2154119   2161117  
  7080.000000   2168016   2174795   2181488   2188138   2194805  
  7070.000000   2201515   2208279   2215073   2221868   2228630  
  7060.000000   2235345   2242018   2248679   2255375   2262159  
  7050.000000   2269087   2276189   2283468   2290877   2298325  
  7040.000000   2305688   2312842   2319690   2326199   2332403  
  7030.000000   2338397   2344299   2350222   2356231   2362343  
  7020.000000   2368517   2374701   2380831   2386881   2392831  
  7010.000000   2398695   2404465   2410140   2415694   2421111  
  7000.000000   2426368   2431470   2436418   2441228   2445898  
  6990.000000   2450437   2454840   2459133   2463344   2467530  
  6980.000000   2471725   2475958   2480201   2484416   2488529  
  6970.000000   2492503   2496316   2500009   2503632   2507254  
  6960.000000   2510896   2514555   2518171   2521687   2525036  
  6950.000000   2528197   2531164   2533965   2536607   2539100  
  6940.000000   2541422   2543568   2545529   2547340   2549044  
  6930.000000   2550706   2552365   2554045   2555723   2557369  
  6920.000000   2558936   2560407   2561771   2563056   2564291  
  6910.000000   2565519   2566773   2568091   2569496   2571013  
  6900.000000   2572639   2574353   2576101   2577812   2579408  
  6890.000000   2580836   2582076   2583155   2584128   2585065  
  6880.000000   2586016   2587009   2588036   2589079   2590112  
  6870.000000   2591117   2592081   2592997   2593846   2594608  
  6860.000000   2595263   2595813   2596288   2596752   2597280  
  6850.000000   2597938   2598752   2599697   2600700   2601672  
  6840.000000   2602526   2603219   2603753   2604176   2604558  
  6830.000000   2604970   2605459   2606043   2606709   2607422  
  6820.000000   2608131   2608789   2609347   2609780   2610078  
  6810.000000   2610268   2610389   2610503   2610652   2610865  
  6800.000000   2611127   2611397   2611615   2611729   2611710  
  6790.000000   2611559   2611295   2610951   2610545   2610092  
  6780.000000   2609593   2609069   2608548   2608087   2607736  
  6770.000000   2607534   2607473   2607507   2607554   2607531  
  6760.000000   2607371   2607051   2606583   2606005   2605355  
  6750.000000   2604661   2603934   2603182   2602423   2601694  
  6740.000000   2601047   2600535   2600184   2599987   2599893  
  6730.000000   2599831   2599719   2599504   2599163   2598712  
  6720.000000   2598190   2597645   2597110   2596603   2596116  
  6710.000000   2595628   2595107   2594522   2593850   2593079  
  6700.000000   2592210   2591262   2590260   2589238   2588219  
  6690.000000   2587223   2586258   2585336   2584468   2583684  
  6680.000000   2583012   2582480   2582080   2581776   2581479  
  6670.000000   2581087   2580492   2579625   2578468   2577062  
  6660.000000   2575481   2573815   2572138   2570499   2568915  
  6650.000000   2567395   2565938   2564553   2563238   2561991  
  6640.000000   2560782   2559577   2558331   2557026   2555663  
  6630.000000   2554277   2552910   2551596   2550342   2549117  
  6620.000000   2547870   2546546   2545110   2543563   2541932  
  6610.000000   2540263   2538597   2536963   2535374   2533838  
  6600.000000   2532359   2530947   2529604   2528315   2527041  
  6590.000000   2525722   2524297   2522732   2521035   2519264  
  6580.000000   2517509   2515857   2514363   2513027   2511798  
  6570.000000   2510599   2509354   2508023   2506606   2505143  
  6560.000000   2503687   2502284   2500957   2499700   2498491  
  6550.000000   2497300   2496102   2494875   2493605   2492277  
  6540.000000   2490884   2489431   2487942   2486460   2485042  
  6530.000000   2483742   2482595   2481604   2480740   2479953  
  6520.000000   2479185   2478392   2477547   2476643   2475684  
  6510.000000   2474676   2473626   2472534   2471405   2470246  
  6500.000000   2469077   2467920   2466797   2465729   2464724  
  6490.000000   2463789   2462918   2462103   2461327   2460568  
  6480.000000   2459793   2458974   2458088   2457128   2456108  
  6470.000000   2455054   2454001   2452973   2451978   2451004  
  6460.000000   2450033   2449043   2448030   2447003   2445984  
  6450.000000   2444996   2444058   2443170   2442326   2441513  
  6440.000000   2440726   2439958   2439214   2438489   2437776  
  6430.000000   2437060   2436329   2435578   2434823   2434092  
  6420.000000   2433423   2432845   2432370   2431986   2431666  
  6410.000000   2431377   2431093   2430800   2430494   2430172  
  6400.000000   2429830   2429459   2429052   2428610   2428151  
  6390.000000   2427706   2427310   2426986   2426738   2426542  
  6380.000000   2426359   2426147   2425880   2425551   2425173  
  6370.000000   2424769   2424359   2423953   2423551   2423152  
  6360.000000   2422758   2422383   2422040   2421743   2421483  
  6350.000000   2421241   2420978   2420665   2420277   2419814  
  6340.000000   2419289   2418724   2418128   2417503   2416834  
  6330.000000   2416109   2415320   2414481   2413615   2412759  
  6320.000000   2411936   2411157   2410408   2409667   2408898  
  6310.000000   2408077   2407185   2406219   2405182   2404087  
  6300.000000   2402942   2401765   2400569   2399368   2398162  
  6290.000000   2396949   2395708   2394418   2393059   2391627  
  6280.000000   2390132   2388606   2387075   2385566   2384080  
  6270.000000   2382608   2381120   2379595   2378017   2376391  
  6260.000000   2374725   2373035   2371322   2369578   2367785  
  6250.000000   2365928   2364004   2362030   2360035   2358056  
  6240.000000   2356122   2354251   2352444   2350693   2348978  
  6230.000000   2347281   2345581   2343856   2342089   2340270  
  6220.000000   2338399   2336496   2334592   2332724   2330921  
  6210.000000   2329192   2327520   2325872   2324208   2322500  
  6200.000000   2320744   2318963   2317193   2315469   2313813  
  6190.000000   2312219   2310666   2309123   2307562   2305969  
  6180.000000   2304343   2302692   2301028   2299364   2297715  
  6170.000000   2296095   2294521   2293009   2291562   2290169  
  6160.000000   2288802   2287425   2286003   2284520   2282982  
  6150.000000   2281419   2279869   2278364   2276922   2275537  
  6140.000000   2274193   2272873   2271568   2270280   2269016  
  6130.000000   2267779   2266560   2265338   2264092   2262812  
  6120.000000   2261508   2260211   2258960   2257787   2256707  
  6110.000000   2255702   2254743   2253792   2252824   2251829  
  6100.000000   2250822   2249817   2248834   2247876   2246948  
  6090.000000   2246047   2245188   2244388   2243679   2243081  
  6080.000000   2242607   2242241   2241962   2241737   2241552  
  6070.000000   2241397   2241288   2241234   2241252   2241331  
  6060.000000   2241468   2241634   2241824   2242027   2242259  
  6050.000000   2242524   2242847   2243232   2243700   2244260  
  6040.000000   2244946   2245779   2246794   2247992   2249366  
  6030.000000   2250867   2252451   2254061   2255679   2257303  
  6020.000000   2258972   2260722   2262592   2264580   2266665  
  6010.000000   2268789   2270902   2272953   2274929   2276827  
  6000.000000   2278678   2280506   2282349   2284223   2286153  
  5990.000000   2288149   2290235   2292420   2294723   2297143  
  5980.000000   2299680   2302315   2305039   2307832   2310692  
  5970.000000   2313611   2316598   2319650   2322780   2325985  
  5960.000000   2329275   2332642   2336082   2339565   2343059  
  5950.000000   2346513   2349887   2353147   2356296   2359363  
  5940.000000   2362407   2365497   2368694   2372039   2375537  
  5930.000000   2379168   2382884   2386636   2390373   2394056  
  5920.000000   2397654   2401148   2404524   2407777   2410909  
  5910.000000   2413927   2416847   2419684   2422451   2425162  
  5900.000000   2427820   2430442   2433035   2435627   2438235  
  5890.000000   2440886   2443584   2446334   2449117   2451915  
  5880.000000   2454701   2457450   2460133   2462723   2465190  
  5870.000000   2467507   2469658   2471644   2473495   2475257  
  5860.000000   2476995   2478771   2480633   2482605   2484693  
  5850.000000   2486890   2489187   2491580   2494070   2496656  
  5840.000000   2499327   2502057   2504812   2507550   2510242  
  5830.000000   2512870   2515439   2517963   2520457   2522934  
  5820.000000   2525389   2527811   2530180   2532479   2534684  
  5810.000000   2536786   2538762   2540612   2542319   2543907  
  5800.000000   2545387   2546812   2548202   2549598   2550976  
  5790.000000   2552316   2553536   2554573   2555333   2555769  
  5780.000000   2555827   2555496   2554757   2553627   2552115  
  5770.000000   2550270   2548148   2545844   2543455   2541088  
  5760.000000   2538818   2536709   2534776   2533031   2531459  
  5750.000000   2530056   2528812   2527718   2526759   2525907  
  5740.000000   2525131   2524396   2523684   2522981   2522301  
  5730.000000   2521650   2521046   2520486   2519974   2519496  
  5720.000000   2519052   2518638   2518263   2517925   2517623  
  5710.000000   2517340   2517064   2516782   2516502   2516241  
  5700.000000   2516032   2515900   2515857   2515892   2515974  
  5690.000000   2516065   2516125   2516138   2516094   2516004  
  5680.000000   2515867   2515689   2515451   2515140   2514728  
  5670.000000   2514199   2513532   2512714   2511724   2510550  
  5660.000000   2509179   2507623   2505910   2504099   2502253  
  5650.000000   2500440   2498700   2497053   2495489   2493990  
  5640.000000   2492531   2491105   2489714   2488368   2487077  
  5630.000000   2485839   2484646   2483481   2482337   2481210  
  5620.000000   2480109   2479039   2478006   2477003   2476019  
  5610.000000   2475041   2474065   2473099   2472161   2471268  
  5600.000000   2470427   2469634   2468867   2468102   2467320  
  5590.000000   2466511   2465677   2464825   2463957   2463073  
  5580.000000   2462160   2461215   2460236   2459240   2458245  
  5570.000000   2457272   2456327   2455399   2454462   2453484  
  5560.000000   2452437   2451308   2450102   2448834   2447525  
  5550.000000   2446193   2444851   2443513   2442192   2440908  
  5540.000000   2439676   2438508   2437402   2436343   2435308  
  5530.000000   2434280   2433247   2432213   2431189   2430185  
  5520.000000   2429203   2428229   2427245   2426231   2425177  
  5510.000000   2424086   2422969   2421837   2420687   2419509  
  5500.000000   2418282   2416996   2415650   2414269   2412885  
  5490.000000   2411532   2410217   2408930   2407633   2406292  
  5480.000000   2404878   2403391   2401846   2400280   2398714  
  5470.000000   2397162   2395609   2394034   2392409   2390721  
  5460.000000   2388965   2387147   2385268   2383330   2381325  
  5450.000000   2379254   2377124   2374962   2372806   2370696  
  5440.000000   2368659   2366707   2364835   2363029   2361279  
  5430.000000   2359577   2357926   2356320   2354755   2353211  
  5420.000000   2351681   2350160   2348680   2347276   2346006  
  5410.000000   2344896   2343960   2343162   2342467   2341822  
  5400.000000   2341223   2340669   2340212   2339883   2339724  
  5390.000000   2339729   2339892   2340175   2340579   2341093  
  5380.000000   2341758   2342587   2343609   2344798   2346140  
  5370.000000   2347577   2349100   2350675   2352339   2354091  
  5360.000000   2355988   2358020   2360231   2362608   2365212  
  5350.000000   2368057   2371236   2374774   2378751   2383143  
  5340.000000   2387983   2393210   2398856   2404872   2411319  
  5330.000000   2418159   2425449   2433131   2441244   2449726  
  5320.000000   2458653   2468008   2477918   2488388   2499545  
  5310.000000   2511351   2523878   2537037   2550881   2565338  
  5300.000000   2580501   2596349   2613019   2630517   2648972  
  5290.000000   2668354   2688723   2709965   2732045   2754790  
  5280.000000   2778143   2801980   2826334   2851198   2876689  
  5270.000000   2902826   2929647   2957036   2984844   3012848  
  5260.000000   3040866   3068784   3096582   3124322   3152059  
  5250.000000   3179827   3207521   3234997   3261990   3288329  
  5240.000000   3313826   3338503   3362363   3385588   3408231  
  5230.000000   3430435   3452128   3473301   3493757   3513434  
  5220.000000   3532164   3549992   3566884   3583011   3598407  
  5210.000000   3613245   3627493   3641209   3654245   3666587  
  5200.000000   3678086   3688797   3698673   3707860   3716358  
  5190.000000   3724300   3731631   3738414   3744550   3750093  
  5180.000000   3754977   3759295   3763016   3766228   3768871  
  5170.000000   3770991   3772509   3773473   3773844   3773716  
  5160.000000   3773086   3772047   3770574   3768719   3766432  
  5150.000000   3763762   3760688   3757294   3753592   3749660  
  5140.000000   3745488   3741115   3736502   3731674   3726608  
  5130.000000   3721353   3715915   3710348   3704652   3698857  
  5120.000000   3692951   3686956   3680875   3674745   3668580  
  5110.000000   3662413   3656242   3650072   3643888   3637688  
  5100.000000   3631469   3625249   3619042   3612869   3606736  
  5090.000000   3600649   3594602   3588597   3582637   3576733  
  5080.000000   3570891   3565113   3559380   3553670   3547946  
  5070.000000   3542185   3536364   3530486   3524555   3518588  
  5060.000000   3512588   3506563   3500502   3494403   3488253  
  5050.000000   3482053   3475797   3469487   3463113   3456674  
  5040.000000   3450160   3443574   3436921   3430218   3423485  
  5030.000000   3416738   3409989   3403242   3396496   3389754  
  5020.000000   3383026   3376328   3369692   3363141   3356708  
  5010.000000   3350402   3344242   3338221   3332349   3326617  
  5000.000000   3321041   3315612   3310349   3305233   3300286  
  4990.000000   3295487   3290868   3286423   3282202   3278207  
  4980.000000   3274490   3271039   3267892   3265021   3262458  
  4970.000000   3260181   3258238   3256624   3255397   3254546  
  4960.000000   3254116   3254068   3254424   3255127   3256195  
  4950.000000   3257573   3259287   3261294   3263630   3266258  
  4940.000000   3269221   3272486   3276104   3280046   3284359  
  4930.000000   3289013   3294046   3299421   3305166   3311246  
  4920.000000   3317687   3324453   3331563   3338973   3346692  
  4910.000000   3354675   3362928   3371414   3380145   3389094  
  4900.000000   3398264   3407623   3417153   3426814   3436576  
  4890.000000   3446403   3456265   3466135   3475974   3485748  
  4880.000000   3495399   3504885   3514137   3523121   3531776  
  4870.000000   3540089   3548009   3555537   3562637   3569328  
  4860.000000   3575595   3581483   3587000   3592205   3597105  
  4850.000000   3601749   3606127   3610274   3614174   3617871  
  4840.000000   3621366   3624721   3627953   3631119   3634227  
  4830.000000   3637307   3640344   3643338   3646261   3649103  
  4820.000000   3651839   3654468   3656980   3659392   3661716  
  4810.000000   3663985   3666225   3668471   3670743   3673058  
  4800.000000   3675414   3677804   3680209   3682611   3684988  
  4790.000000   3687332   3689633   3691898   3694133   3696356  
  4780.000000   3698575   3700804   3703041   3705281   3707497  
  4770.000000   3709667   3711750   3713726   3715565   3717265  
  4760.000000   3718819   3720241   3721528   3722692   3723716  
  4750.000000   3724597   3725310   3725854   3726219   3726426  
  4740.000000   3726487   3726445   3726321   3726149   3725936  
  4730.000000   3725695   3725411   3725083   3724695   3724251  
  4720.000000   3723754   3723220   3722663   3722099   3721538  
  4710.000000   3720982   3720432   3719885   3719344   3718815  
  4700.000000   3718316   3717867   3717496   3717227   3717085  
  4690.000000   3717087   3717243   3717549   3717994   3718546  
  4680.000000   3719171   3719817   3720441   3720993   3721447  
  4670.000000   3721779   3721997   3722110   3722158   3722170  
  4660.000000   3722197   3722275   3722452   3722759   3723231  
  4650.000000   3723883   3724731   3725773   3727003   3728409  
  4640.000000   3729976   3731686   3733522   3735461   3737476  
  4630.000000   3739536   3741606   3743649   3745634   3747532  
  4620.000000   3749322   3750983   3752498   3753848   3755015  
  4610.000000   3755991   3756774   3757387   3757859   3758243  
  4600.000000   3758579   3758918   3759274   3759667   3760078  
  4590.000000   3760497   3760891   3761240   3761511   3761685  
  4580.000000   3761732   3761638   3761388   3760992   3760461  
  4570.000000   3759834   3759141   3758423   3757693   3756961  
  4560.000000   3756208   3755417   3754560   3753627   3752606  
  4550.000000   3751507   3750334   3749097   3747799   3746445  
  4540.000000   3745039   3743590   3742122   3740655   3739227  
  4530.000000   3737859   3736582   3735401   3734343   3733402  
  4520.000000   3732609   3731959   3731494   3731205   3731137  
  4510.000000   3731272   3731665   3732304   3733265   3734553  
  4500.000000   3736267   3738418   3741105   3744321   3748152  
  4490.000000   3752576   3757669   3763407   3769863   3777005  
  4480.000000   3784892   3793468   3802764   3812696   3823269  
  4470.000000   3834384   3846032   3858110   3870604   3883417  
  4460.000000   3896537   3909884   3923449   3937170   3951038  
  4450.000000   3965002   3979048   3993138   4007258   4021390  
  4440.000000   4035521   4049647   4063741   4077797   4091771  
  4430.000000   4105654   4119388   4132974   4146344   4159500  
  4420.000000   4172351   4184879   4196963   4208565   4219553  
  4410.000000   4229896   4239483   4248314   4256317   4263530  
  4400.000000   4269921   4275565   4280471   4284746   4288429  
  4390.000000   4291646   4294454   4296978   4299281   4301475  
  4380.000000   4303617   4305801   4308073   4310506   4313137  
  4370.000000   4316017   4319172   4322627   4326389   4330455  
  4360.000000   4334800   4339396   4344191   4349142   4354181  
  4350.000000   4359269   4364333   4369357   4374280   4379116  
  4340.000000   4383822   4388408   4392797   4396908   4400537  
  4330.000000   4403452   4405330   4405897   4404921   4402355  
  4320.000000   4398311   4393128   4387252   4381223   4375504  
  4310.000000   4370473   4366303   4363040   4360565   4358727  
  4300.000000   4357338   4356262   4355403   4354710   4354165  
  4290.000000   4353744   4353446   4353241   4353134   4353111  
  4280.000000   4353192   4353389   4353721   4354204   4354830  
  4270.000000   4355595   4356450   4357345   4358163   4358770  
  4260.000000   4358973   4358583   4357408   4355333   4352317  
  4250.000000   4348441   4343875   4338875   4333702   4328617  
  4240.000000   4323800   4319376   4315364   4311748   4308447  
  4230.000000   4305391   4302492   4299687   4296925   4294162  
  4220.000000   4291383   4288569   4285744   4282922   4280168  
  4210.000000   4277522   4275063   4272825   4270863   4269177  
  4200.000000   4267779   4266635   4265729   4265007   4264451  
  4190.000000   4264005   4263667   4263398   4263224   4263129  
  4180.000000   4263166   4263333   4263696   4264257   4265086  
  4170.000000   4266186   4267630   4269427   4271653   4274310  
  4160.000000   4277463   4281089   4285229   4289833   4294928  
  4150.000000   4300460   4306461   4312881   4319760   4327051  
  4140.000000   4334794   4342940   4351530   4360518   4369950  
  4130.000000   4379783   4390061   4400736   4411840   4423317  
  4120.000000   4435191   4447411   4460008   4472957   4486306  
  4110.000000   4500052   4514243   4528864   4543925   4559361  
  4100.000000   4575128   4591128   4607300   4623565   4639898  
  4090.000000   4656275   4672709   4689208   4705784   4722447  
  4080.000000   4739188   4756018   4772915   4789887   4806885  
  4070.000000   4823887   4840792   4857547   4874026   4890190  
  4060.000000   4905942   4921291   4936161   4950572   4964433  
  4050.000000   4977757   4990449   5002551   5014003   5024889  
  4040.000000   5035156   5044875   5053952   5062427   5070184  
  4030.000000   5077276   5083616   5089276   5094186   5098395  
  4020.000000   5101788   5104401   5106178   5107180   5107343  
  4010.000000   5106802   5105632   5103872   5101323   5098076  
  4000.000000   5094481  
##END= 
