##TITLE= Sample 013 By ssteindl date Dienstag, November 20 2018
##JCAMP-DX= 4.24
##DATA TYPE= INFRARED SPECTRUM
##ORIGIN= Exported PE Spectrum Data File
##OWNER= Sandra Steindl
##DATE= 18/11/20
##TIME= 14:14:47.00
##SPECTROMETER/DATA SYSTEM= PERKIN-ELMER Frontier FT-IR/NIR IR
##INSTRUMENT PARAMETERS=
  APODIZATION=stark
  DETECTOR=INGAAS
##RESOLUTION= 16.000000
##DELTAX= -2.000000
##XUNITS= 1/CM
##YUNITS= A
##XFACTOR= 1.00
##YFACTOR= 0.00000011920928955078
##FIRSTX= 10000.00
##LASTX= 4000.00
##NPOINTS= 3001
##FIRSTY= 0.201600
##MAXY= 0.624965
##MINY= 0.179109
##XYDATA= (X++(Y..Y))
 10000.000000   1691146   1694174   1698549   1705743   1715088  
  9990.000000   1724709   1733187   1739880   1744083   1745121  
  9980.000000   1742876   1737795   1730582   1722102   1713478  
  9970.000000   1705857   1700052   1696358   1694410   1693397  
  9960.000000   1692337   1690663   1688378   1686237   1685261  
  9950.000000   1686394   1689930   1695381   1701649   1707394  
  9940.000000   1711659   1714021   1714752   1714368   1713330  
  9930.000000   1711686   1709086   1705111   1699639   1693270  
  9920.000000   1687185   1682920   1681614   1683644   1688289  
  9910.000000   1694056   1699134   1701996   1701809   1698459  
  9900.000000   1692460   1684530   1675447   1665847   1656383  
  9890.000000   1647771   1640874   1636540   1635335   1637290  
  9880.000000   1641740   1647534   1653303   1657960   1660956  
  9870.000000   1662342   1662674   1662555   1662568   1662872  
  9860.000000   1663459   1664057   1664407   1664279   1663498  
  9850.000000   1662051   1660011   1657795   1656055   1655773  
  9840.000000   1657885   1662974   1670820   1680217   1689160  
  9830.000000   1695300   1696757   1692668   1683627   1671462  
  9820.000000   1658721   1647902   1640709   1637798   1638680  
  9810.000000   1642271   1647241   1652585   1657701   1662390  
  9800.000000   1666602   1670160   1672702   1673609   1672339  
  9790.000000   1668509   1662267   1654195   1645378   1637128  
  9780.000000   1630779   1627466   1627824   1631937   1639157  
  9770.000000   1648288   1657724   1665856   1671391   1673700  
  9760.000000   1672909   1669845   1665737   1661866   1659232  
  9750.000000   1658341   1659176   1661275   1663912   1666268  
  9740.000000   1667580   1667258   1664935   1660534   1654258  
  9730.000000   1646613   1638346   1630362   1623585   1618805  
  9720.000000   1616513   1616849   1619518   1623931   1629239  
  9710.000000   1634572   1639146   1642417   1644160   1644419  
  9700.000000   1643490   1641714   1639447   1636881   1634149  
  9690.000000   1631296   1628423   1625704   1623353   1621583  
  9680.000000   1620443   1619845   1619532   1619230   1618775  
  9670.000000   1618172   1617629   1617368   1617545   1618044  
  9660.000000   1618570   1618703   1618194   1617095   1615864  
  9650.000000   1615213   1615825   1618088   1621863   1626581  
  9640.000000   1631422   1635697   1639039   1641505   1643383  
  9630.000000   1644965   1646301   1647136   1647036   1645609  
  9620.000000   1642757   1638739   1634102   1629451   1625213  
  9610.000000   1621544   1618325   1615402   1612687   1610359  
  9600.000000   1608700   1608043   1608478   1609839   1611709  
  9590.000000   1613617   1615236   1616431   1617273   1617779  
  9580.000000   1617843   1617108   1615164   1611725   1606913  
  9570.000000   1601314   1595900   1591714   1589542   1589632  
  9560.000000   1591634   1594761   1598047   1600694   1602221  
  9550.000000   1602573   1601992   1600916   1599829   1599182  
  9540.000000   1599338   1600493   1602635   1605437   1608303  
  9530.000000   1610431   1611046   1609642   1606191   1601215  
  9520.000000   1595635   1590492   1586613   1584366   1583618  
  9510.000000   1583871   1584518   1585074   1585305   1585210  
  9500.000000   1584919   1584560   1584229   1583955   1583802  
  9490.000000   1583857   1584258   1585101   1586394   1588031  
  9480.000000   1589839   1591680   1593515   1595456   1597650  
  9470.000000   1600178   1602873   1605313   1606894   1607086  
  9460.000000   1605645   1602773   1599053   1595255   1592040  
  9450.000000   1589729   1588226   1587099   1585821   1583977  
  9440.000000   1581433   1578336   1575017   1571860   1569177  
  9430.000000   1567219   1566158   1566170   1567391   1569896  
  9420.000000   1573586   1578143   1583013   1587525   1591035  
  9410.000000   1593101   1593589   1592636   1590614   1587922  
  9400.000000   1584948   1581923   1578953   1576022   1573029  
  9390.000000   1569905   1566612   1563280   1560119   1557487  
  9380.000000   1555734   1555168   1555920   1557826   1560434  
  9370.000000   1562995   1564729   1564964   1563419   1560219  
  9360.000000   1555912   1551297   1547281   1544674   1544031  
  9350.000000   1545552   1548998   1553786   1559036   1563798  
  9340.000000   1567230   1568824   1568560   1566891   1564600  
  9330.000000   1562441   1560879   1559868   1558969   1557550  
  9320.000000   1555166   1551809   1547979   1544580   1542481  
  9310.000000   1542233   1543724   1546324   1549125   1551366  
  9300.000000   1552724   1553355   1553725   1554243   1554987  
  9290.000000   1555620   1555578   1554367   1551896   1548577  
  9280.000000   1545237   1542752   1541667   1541952   1543030  
  9270.000000   1544075   1544373   1543624   1542000   1540013  
  9260.000000   1538245   1537097   1536646   1536726   1537072  
  9250.000000   1537518   1538064   1538837   1539963   1541400  
  9240.000000   1542916   1544143   1544743   1544509   1543431  
  9230.000000   1541644   1539374   1536830   1534208   1531714  
  9220.000000   1529626   1528300   1528057   1529035   1531042  
  9210.000000   1533578   1535954   1537539   1537973   1537326  
  9200.000000   1536060   1534819   1534144   1534252   1535020  
  9190.000000   1536062   1536965   1537427   1537374   1536900  
  9180.000000   1536152   1535215   1534044   1532585   1530852  
  9170.000000   1529069   1527597   1526837   1527043   1528198  
  9160.000000   1530002   1531941   1533478   1534225   1534045  
  9150.000000   1533008   1531283   1529076   1526608   1524147  
  9140.000000   1522011   1520595   1520270   1521260   1523454  
  9130.000000   1526366   1529226   1531225   1531783   1530724  
  9120.000000   1528318   1525137   1521866   1519013   1516831  
  9110.000000   1515291   1514283   1513701   1513522   1513779  
  9100.000000   1514447   1515408   1516390   1517142   1517529  
  9090.000000   1517679   1517919   1518656   1520163   1522388  
  9080.000000   1524910   1527058   1528192   1527918   1526256  
  9070.000000   1523572   1520442   1517380   1514676   1512344  
  9060.000000   1510226   1508167   1506150   1504347   1503035  
  9050.000000   1502479   1502789   1503882   1505494   1507311  
  9040.000000   1509068   1510608   1511889   1512909   1513710  
  9030.000000   1514302   1514725   1515023   1515294   1515619  
  9020.000000   1516036   1516472   1516771   1516762   1516340  
  9010.000000   1515566   1514642   1513888   1513577   1513859  
  9000.000000   1514664   1515771   1516876   1517728   1518185  
  8990.000000   1518224   1517905   1517272   1516342   1515078  
  8980.000000   1513488   1511648   1509742   1508001   1506632  
  8970.000000   1505741   1505295   1505185   1505283   1505559  
  8960.000000   1506077   1506973   1508334   1510109   1512084  
  8950.000000   1513898   1515186   1515679   1515347   1514354  
  8940.000000   1513012   1511629   1510455   1509606   1509106  
  8930.000000   1508934   1509078   1509552   1510347   1511407  
  8920.000000   1512590   1513717   1514615   1515221   1515605  
  8910.000000   1515956   1516498   1517393   1518671   1520199  
  8900.000000   1521733   1523005   1523830   1524127   1523946  
  8890.000000   1523382   1522581   1521640   1520623   1519553  
  8880.000000   1518448   1517356   1516348   1515565   1515191  
  8870.000000   1515465   1516602   1518756   1521915   1525856  
  8860.000000   1530112   1534031   1536952   1538369   1538148  
  8850.000000   1536528   1534097   1531575   1529616   1528601  
  8840.000000   1528568   1529271   1530346   1531491   1532553  
  8830.000000   1533566   1534619   1535794   1537039   1538209  
  8820.000000   1539129   1539704   1540005   1540230   1540643  
  8810.000000   1541408   1542515   1543746   1544762   1545261  
  8800.000000   1545087   1544328   1543263   1542288   1541765  
  8790.000000   1541920   1542769   1544135   1545709   1547133  
  8780.000000   1548101   1548387   1547933   1546817   1545299  
  8770.000000   1543731   1542502   1541916   1542111   1543021  
  8760.000000   1544420   1546024   1547617   1549154   1550769  
  8750.000000   1552698   1555120   1558024   1561144   1564027  
  8740.000000   1566205   1567369   1567535   1567027   1566400  
  8730.000000   1566197   1566755   1568070   1569803   1571434  
  8720.000000   1572468   1572635   1571978   1570832   1569673  
  8710.000000   1568967   1568999   1569829   1571291   1573087  
  8700.000000   1574899   1576469   1577674   1578493   1579005  
  8690.000000   1579316   1579545   1579782   1580096   1580516  
  8680.000000   1581062   1581738   1582577   1583622   1584941  
  8670.000000   1586593   1588611   1590956   1593513   1596087  
  8660.000000   1598457   1600427   1601892   1602884   1603574  
  8650.000000   1604243   1605194   1606682   1608806   1611493  
  8640.000000   1614477   1617391   1619849   1621564   1622420  
  8630.000000   1622510   1622105   1621555   1621163   1621094  
  8620.000000   1621336   1621740   1622114   1622330   1622406  
  8610.000000   1622504   1622868   1623707   1625084   1626876  
  8600.000000   1628796   1630511   1631779   1632553   1633016  
  8590.000000   1633502   1634379   1635895   1638097   1640814  
  8580.000000   1643730   1646487   1648789   1650464   1651484  
  8570.000000   1651946   1652021   1651936   1651930   1652231  
  8560.000000   1653009   1654324   1656076   1658003   1659728  
  8550.000000   1660880   1661223   1660771   1659794   1658753  
  8540.000000   1658126   1658263   1659256   1660918   1662871  
  8530.000000   1664698   1666112   1667039   1667616   1668091  
  8520.000000   1668694   1669533   1670566   1671637   1672585  
  8510.000000   1673315   1673858   1674341   1674931   1675754  
  8500.000000   1676844   1678145   1679555   1680962   1682286  
  8490.000000   1683476   1684510   1685356   1685989   1686398  
  8480.000000   1686638   1686846   1687223   1687999   1689337  
  8470.000000   1691294   1693748   1696457   1699110   1701442  
  8460.000000   1703302   1704665   1705623   1706285   1706737  
  8450.000000   1706967   1706899   1706435   1705552   1704349  
  8440.000000   1703060   1702021   1701559   1701936   1703213  
  8430.000000   1705288   1707878   1710650   1713273   1715514  
  8420.000000   1717268   1718531   1719375   1719857   1720012  
  8410.000000   1719817   1719258   1718345   1717169   1715903  
  8400.000000   1714770   1714019   1713822   1714262   1715274  
  8390.000000   1716702   1718318   1719896   1721238   1722208  
  8380.000000   1722747   1722856   1722596   1722059   1721393  
  8370.000000   1720762   1720347   1720284   1720635   1721365  
  8360.000000   1722334   1723346   1724189   1724730   1724934  
  8350.000000   1724898   1724777   1724752   1724942   1725382  
  8340.000000   1726004   1726675   1727249   1727615   1727718  
  8330.000000   1727549   1727113   1726416   1725442   1724191  
  8320.000000   1722683   1721008   1719324   1717847   1716784  
  8310.000000   1716273   1716316   1716784   1717429   1717963  
  8300.000000   1718133   1717786   1716923   1715678   1714278  
  8290.000000   1712956   1711899   1711196   1710836   1710733  
  8280.000000   1710775   1710861   1710942   1711013   1711096  
  8270.000000   1711204   1711313   1711350   1711218   1710827  
  8260.000000   1710151   1709251   1708277   1707439   1706934  
  8250.000000   1706913   1707402   1708325   1709492   1710686  
  8240.000000   1711682   1712320   1712507   1712215   1711459  
  8230.000000   1710274   1708703   1706796   1704630   1702307  
  8220.000000   1699963   1697743   1695770   1694128   1692826  
  8210.000000   1691823   1691035   1690380   1689795   1689254  
  8200.000000   1688758   1688320   1687940   1687603   1687277  
  8190.000000   1686931   1686559   1686183   1685840   1685557  
  8180.000000   1685318   1685047   1684619   1683889   1682740  
  8170.000000   1681132   1679127   1676883   1674606   1672497  
  8160.000000   1670684   1669201   1667984   1666919   1665883  
  8150.000000   1664808   1663678   1662555   1661511   1660617  
  8140.000000   1659893   1659310   1658805   1658284   1657669  
  8130.000000   1656871   1655830   1654476   1652769   1650692  
  8120.000000   1648304   1645749   1643259   1641122   1639599  
  8110.000000   1638859   1638901   1639561   1640537   1641487  
  8100.000000   1642122   1642279   1641956   1641265   1640375  
  8090.000000   1639407   1638399   1637290   1635991   1634442  
  8080.000000   1632689   1630884   1629249   1628000   1627249  
  8070.000000   1626970   1626988   1627049   1626906   1626407  
  8060.000000   1625544   1624445   1623321   1622386   1621777  
  8050.000000   1621524   1621545   1621691   1621805   1621759  
  8040.000000   1621489   1620974   1620228   1619270   1618116  
  8030.000000   1616780   1615296   1613725   1612168   1610747  
  8020.000000   1609575   1608729   1608217   1607987   1607926  
  8010.000000   1607914   1607840   1607650   1607339   1606952  
  8000.000000   1606556   1606201   1605912   1605654   1605364  
  7990.000000   1604946   1604326   1603444   1602303   1600949  
  7980.000000   1599475   1598005   1596666   1595581   1594841  
  7970.000000   1594505   1594586   1595056   1595842   1596842  
  7960.000000   1597925   1598961   1599830   1600443   1600762  
  7950.000000   1600788   1600573   1600177   1599671   1599093  
  7940.000000   1598464   1597775   1597006   1596148   1595208  
  7930.000000   1594236   1593301   1592496   1591899   1591570  
  7920.000000   1591517   1591706   1592059   1592467   1592820  
  7910.000000   1593021   1593014   1592779   1592347   1591775  
  7900.000000   1591146   1590536   1590017   1589642   1589444  
  7890.000000   1589440   1589627   1589993   1590493   1591077  
  7880.000000   1591670   1592198   1592599   1592835   1592911  
  7870.000000   1592852   1592707   1592501   1592236   1591869  
  7860.000000   1591339   1590605   1589672   1588638   1587668  
  7850.000000   1586982   1586765   1587124   1588022   1589286  
  7840.000000   1590636   1591759   1592394   1592380   1591698  
  7830.000000   1590445   1588810   1587011   1585263   1583746  
  7820.000000   1582596   1581902   1581693   1581946   1582562  
  7810.000000   1583397   1584267   1585006   1585495   1585699  
  7800.000000   1585663   1585482   1585261   1585059   1584877  
  7790.000000   1584660   1584341   1583875   1583279   1582630  
  7780.000000   1582026   1581556   1581243   1581048   1580871  
  7770.000000   1580617   1580220   1579688   1579088   1578517  
  7760.000000   1578054   1577725   1577489   1577261   1576950  
  7750.000000   1576498   1575900   1575205   1574485   1573810  
  7740.000000   1573213   1572695   1572232   1571796   1571376  
  7730.000000   1570976   1570612   1570284   1569977   1569650  
  7720.000000   1569257   1568765   1568171   1567507   1566833  
  7710.000000   1566217   1565716   1565365   1565172   1565126  
  7700.000000   1565195   1565344   1565523   1565677   1565747  
  7690.000000   1565682   1565453   1565054   1564519   1563893  
  7680.000000   1563231   1562561   1561896   1561221   1560533  
  7670.000000   1559843   1559198   1558663   1558303   1558148  
  7660.000000   1558181   1558339   1558541   1558724   1558878  
  7650.000000   1559041   1559289   1559677   1560216   1560839  
  7640.000000   1561429   1561855   1562036   1561969   1561747  
  7630.000000   1561508   1561389   1561465   1561717   1562064  
  7620.000000   1562390   1562624   1562757   1562856   1563012  
  7610.000000   1563293   1563690   1564109   1564403   1564424  
  7600.000000   1564098   1563442   1562573   1561648   1560824  
  7590.000000   1560203   1559816   1559641   1559637   1559775  
  7580.000000   1560055   1560497   1561109   1561871   1562721  
  7570.000000   1563578   1564377   1565086   1565736   1566380  
  7560.000000   1567081   1567852   1568666   1569443   1570100  
  7550.000000   1570576   1570874   1571044   1571171   1571328  
  7540.000000   1571559   1571856   1572196   1572549   1572920  
  7530.000000   1573347   1573891   1574606   1575514   1576590  
  7520.000000   1577783   1579028   1580293   1581571   1582896  
  7510.000000   1584295   1585780   1587319   1588853   1590309  
  7500.000000   1591644   1592846   1593962   1595053   1596187  
  7490.000000   1597394   1598673   1599988   1601300   1602578  
  7480.000000   1603829   1605082   1606389   1607794   1609326  
  7470.000000   1610981   1612736   1614540   1616350   1618114  
  7460.000000   1619806   1621410   1622948   1624461   1626020  
  7450.000000   1627696   1629553   1631625   1633908   1636359  
  7440.000000   1638915   1641502   1644069   1646579   1649013  
  7430.000000   1651354   1653581   1655674   1657622   1659443  
  7420.000000   1661192   1662959   1664845   1666926   1669219  
  7410.000000   1671673   1674172   1676570   1678733   1680575  
  7400.000000   1682086   1683319   1684380   1685392   1686476  
  7390.000000   1687734   1689238   1691024   1693094   1695408  
  7380.000000   1697890   1700431   1702922   1705276   1707452  
  7370.000000   1709467   1711384   1713283   1715241   1717294  
  7360.000000   1719448   1721672   1723928   1726183   1728414  
  7350.000000   1730608   1732741   1734787   1736707   1738482  
  7340.000000   1740117   1741663   1743197   1744803   1746532  
  7330.000000   1748387   1750306   1752191   1753929   1755437  
  7320.000000   1756678   1757680   1758511   1759273   1760070  
  7310.000000   1761004   1762151   1763558   1765225   1767104  
  7300.000000   1769094   1771059   1772852   1774361   1775542  
  7290.000000   1776439   1777168   1777879   1778701   1779699  
  7280.000000   1780859   1782101   1783316   1784421   1785386  
  7270.000000   1786246   1787076   1787960   1788954   1790071  
  7260.000000   1791286   1792557   1793852   1795156   1796485  
  7250.000000   1797852   1799272   1800727   1802191   1803615  
  7240.000000   1804976   1806258   1807491   1808711   1809991  
  7230.000000   1811384   1812958   1814750   1816794   1819085  
  7220.000000   1821605   1824294   1827092   1829930   1832778  
  7210.000000   1835624   1838516   1841505   1844656   1847981  
  7200.000000   1851463   1855020   1858571   1862034   1865384  
  7190.000000   1868632   1871852   1875125   1878532   1882113  
  7180.000000   1885870   1889759   1893721   1897682   1901592  
  7170.000000   1905405   1909125   1912759   1916362   1919979  
  7160.000000   1923674   1927473   1931394   1935411   1939507  
  7150.000000   1943662   1947904   1952287   1956909   1961846  
  7140.000000   1967143   1972758   1978594   1984499   1990358  
  7130.000000   1996088   2001719   2007315   2013002   2018845  
  7120.000000   2024878   2031029   2037211   2043314   2049304  
  7110.000000   2055195   2061088   2067087   2073292   2079739  
  7100.000000   2086420   2093285   2100292   2107410   2114649  
  7090.000000   2122016   2129516   2137112   2144745   2152335  
  7080.000000   2159829   2167205   2174490   2181729   2188975  
  7070.000000   2196248   2203540   2210811   2218027   2225162  
  7060.000000   2232222   2239224   2246192   2253132   2260037  
  7050.000000   2266896   2273705   2280489   2287298   2294198  
  7040.000000   2301241   2308454   2315820   2323289   2330785  
  7030.000000   2338237   2345578   2352765   2359766   2366562  
  7020.000000   2373143   2379517   2385699   2391728   2397638  
  7010.000000   2403473   2409251   2414995   2420705   2426409  
  7000.000000   2432122   2437885   2443704   2449572   2455415  
  6990.000000   2461137   2466607   2471739   2476489   2480908  
  6980.000000   2485096   2489194   2493305   2497497   2501749  
  6970.000000   2506011   2510191   2514230   2518085   2521764  
  6960.000000   2525277   2528660   2531919   2535083   2538164  
  6950.000000   2541205   2544236   2547298   2550386   2553472  
  6940.000000   2556472   2559303   2561882   2564185   2566229  
  6930.000000   2568088   2569845   2571581   2573332   2575105  
  6920.000000   2576863   2578578   2580217   2581785   2583294  
  6910.000000   2584782   2586273   2587795   2589348   2590939  
  6900.000000   2592553   2594179   2595793   2597364   2598853  
  6890.000000   2600220   2601429   2602462   2603323   2604045  
  6880.000000   2604681   2605303   2605979   2606768   2607700  
  6870.000000   2608773   2609938   2611128   2612258   2613265  
  6860.000000   2614114   2614822   2615442   2616056   2616731  
  6850.000000   2617507   2618373   2619285   2620173   2620979  
  6840.000000   2621669   2622245   2622726   2623140   2623500  
  6830.000000   2623806   2624048   2624228   2624365   2624503  
  6820.000000   2624692   2624981   2625379   2625875   2626415  
  6810.000000   2626947   2627416   2627798   2628076   2628255  
  6800.000000   2628329   2628296   2628145   2627878   2627509  
  6790.000000   2627073   2626609   2626153   2625718   2625300  
  6780.000000   2624878   2624436   2623969   2623497   2623045  
  6770.000000   2622641   2622292   2621986   2621697   2621399  
  6760.000000   2621082   2620755   2620437   2620150   2619895  
  6750.000000   2619651   2619383   2619054   2618643   2618148  
  6740.000000   2617581   2616959   2616287   2615555   2614744  
  6730.000000   2613849   2612884   2611898   2610956   2610130  
  6720.000000   2609461   2608960   2608593   2608310   2608051  
  6710.000000   2607777   2607466   2607117   2606729   2606304  
  6700.000000   2605827   2605288   2604673   2603986   2603233  
  6690.000000   2602431   2601579   2600670   2599677   2598570  
  6680.000000   2597323   2595926   2594385   2592722   2590968  
  6670.000000   2589162   2587342   2585556   2583849   2582275  
  6660.000000   2580865   2579640   2578581   2577651   2576787  
  6650.000000   2575928   2575021   2574039   2572970   2571815  
  6640.000000   2570581   2569271   2567889   2566442   2564944  
  6630.000000   2563418   2561884   2560359   2558840   2557317  
  6620.000000   2555762   2554160   2552502   2550802   2549080  
  6610.000000   2547368   2545684   2544040   2542432   2540852  
  6600.000000   2539289   2537736   2536181   2534618   2533033  
  6590.000000   2531419   2529775   2528114   2526459   2524838  
  6580.000000   2523269   2521754   2520271   2518788   2517274  
  6570.000000   2515714   2514120   2512521   2510956   2509455  
  6560.000000   2508029   2506663   2505333   2504010   2502678  
  6550.000000   2501332   2499976   2498615   2497256   2495901  
  6540.000000   2494566   2493276   2492068   2490973   2490005  
  6530.000000   2489139   2488319   2487468   2486519   2485440  
  6520.000000   2484253   2483018   2481817   2480710   2479716  
  6510.000000   2478804   2477908   2476959   2475915   2474774  
  6500.000000   2473576   2472379   2471238   2470184   2469220  
  6490.000000   2468331   2467496   2466706   2465961   2465269  
  6480.000000   2464628   2464024   2463426   2462794   2462089  
  6470.000000   2461281   2460361   2459331   2458211   2457029  
  6460.000000   2455825   2454640   2453517   2452485   2451553  
  6450.000000   2450705   2449900   2449088   2448233   2447324  
  6440.000000   2446385   2445464   2444608   2443844   2443160  
  6430.000000   2442510   2441839   2441100   2440289   2439435  
  6420.000000   2438597   2437830   2437161   2436581   2436048  
  6410.000000   2435513   2434947   2434352   2433766   2433235  
  6400.000000   2432800   2432468   2432216   2431993   2431748  
  6390.000000   2431442   2431062   2430621   2430149   2429684  
  6380.000000   2429259   2428907   2428647   2428494   2428442  
  6370.000000   2428467   2428517   2428524   2428417   2428139  
  6360.000000   2427665   2427011   2426223   2425365   2424500  
  6350.000000   2423671   2422899   2422191   2421539   2420938  
  6340.000000   2420377   2419846   2419323   2418789   2418216  
  6330.000000   2417590   2416907   2416181   2415429   2414665  
  6320.000000   2413888   2413082   2412217   2411277   2410253  
  6310.000000   2409170   2408060   2406967   2405913   2404903  
  6300.000000   2403910   2402902   2401839   2400702   2399481  
  6290.000000   2398187   2396827   2395418   2393963   2392471  
  6280.000000   2390945   2389400   2387844   2386288   2384725  
  6270.000000   2383146   2381526   2379851   2378107   2376301  
  6260.000000   2374442   2372550   2370636   2368709   2366763  
  6250.000000   2364801   2362820   2360828   2358833   2356842  
  6240.000000   2354857   2352875   2350892   2348909   2346931  
  6230.000000   2344970   2343029   2341105   2339180   2337231  
  6220.000000   2335239   2333203   2331143   2329099   2327117  
  6210.000000   2325228   2323438   2321723   2320035   2318324  
  6200.000000   2316554   2314712   2312818   2310903   2309011  
  6190.000000   2307177   2305423   2303759   2302182   2300680  
  6180.000000   2299234   2297816   2296395   2294939   2293430  
  6170.000000   2291859   2290239   2288591   2286942   2285307  
  6160.000000   2283694   2282093   2280499   2278911   2277342  
  6150.000000   2275818   2274363   2272989   2271688   2270429  
  6140.000000   2269175   2267890   2266556   2265175   2263768  
  6130.000000   2262353   2260948   2259555   2258170   2256790  
  6120.000000   2255420   2254078   2252788   2251566   2250419  
  6110.000000   2249331   2248281   2247241   2246202   2245164  
  6100.000000   2244151   2243182   2242281   2241448   2240681  
  6090.000000   2239962   2239288   2238652   2238072   2237556  
  6080.000000   2237120   2236756   2236456   2236190   2235940  
  6070.000000   2235682   2235421   2235156   2234917   2234724  
  6060.000000   2234616   2234617   2234758   2235048   2235499  
  6050.000000   2236091   2236815   2237638   2238548   2239526  
  6040.000000   2240580   2241704   2242912   2244189   2245530  
  6030.000000   2246908   2248315   2249739   2251195   2252698  
  6020.000000   2254274   2255929   2257664   2259455   2261282  
  6010.000000   2263115   2264948   2266775   2268610   2270455  
  6000.000000   2272322   2274201   2276099   2278011   2279962  
  5990.000000   2281972   2284078   2286299   2288656   2291137  
  5980.000000   2293737   2296431   2299210   2302058   2304976  
  5970.000000   2307947   2310961   2313990   2317021   2320036  
  5960.000000   2323051   2326079   2329156   2332299   2335525  
  5950.000000   2338822   2342177   2345567   2348985   2352431  
  5940.000000   2355925   2359486   2363133   2366871   2370697  
  5930.000000   2374597   2378555   2382553   2386570   2390576  
  5920.000000   2394535   2398403   2402141   2405718   2409129  
  5910.000000   2412387   2415523   2418574   2421569   2424532  
  5900.000000   2427472   2430405   2433338   2436294   2439282  
  5890.000000   2442314   2445376   2448449   2451495   2454490  
  5880.000000   2457410   2460256   2463033   2465748   2468396  
  5870.000000   2470961   2473420   2475753   2477960   2480061  
  5860.000000   2482094   2484104   2486125   2488181   2490277  
  5850.000000   2492414   2494593   2496826   2499128   2501513  
  5840.000000   2503981   2506517   2509090   2511668   2514227  
  5830.000000   2516759   2519271   2521774   2524268   2526745  
  5820.000000   2529177   2531537   2533801   2535966   2538038  
  5810.000000   2540040   2541983   2543879   2545710   2547476  
  5800.000000   2549153   2550759   2552287   2553773   2555202  
  5790.000000   2556583   2557864   2559012   2559949   2560625  
  5780.000000   2560967   2560930   2560459   2559535   2558144  
  5770.000000   2556329   2554159   2551756   2549245   2546769  
  5760.000000   2544427   2542294   2540386   2538703   2537213  
  5750.000000   2535897   2534728   2533693   2532774   2531949  
  5740.000000   2531197   2530493   2529831   2529207   2528638  
  5730.000000   2528129   2527690   2527301   2526942   2526574  
  5720.000000   2526178   2525741   2525275   2524804   2524362  
  5710.000000   2523977   2523675   2523467   2523360   2523351  
  5700.000000   2523428   2523569   2523741   2523909   2524039  
  5690.000000   2524117   2524142   2524141   2524138   2524160  
  5680.000000   2524200   2524242   2524234   2524130   2523878  
  5670.000000   2523455   2522841   2522037   2521039   2519852  
  5660.000000   2518474   2516924   2515230   2513446   2511630  
  5650.000000   2509841   2508113   2506463   2504874   2503330  
  5640.000000   2501807   2500304   2498827   2497395   2496021  
  5630.000000   2494711   2493461   2492259   2491098   2489976  
  5620.000000   2488898   2487866   2486880   2485926   2484989  
  5610.000000   2484050   2483105   2482157   2481223   2480314  
  5600.000000   2479437   2478581   2477726   2476848   2475933  
  5590.000000   2474978   2473992   2472987   2471970   2470942  
  5580.000000   2469893   2468815   2467709   2466587   2465470  
  5570.000000   2464381   2463329   2462313   2461314   2460311  
  5560.000000   2459284   2458220   2457115   2455970   2454784  
  5550.000000   2453556   2452282   2450973   2449645   2448330  
  5540.000000   2447060   2445861   2444737   2443672   2442638  
  5530.000000   2441603   2440546   2439464   2438365   2437262  
  5520.000000   2436159   2435052   2433926   2432768   2431572  
  5510.000000   2430345   2429103   2427863   2426633   2425412  
  5500.000000   2424188   2422953   2421704   2420454   2419210  
  5490.000000   2417979   2416744   2415477   2414139   2412705  
  5480.000000   2411166   2409547   2407885   2406226   2404594  
  5470.000000   2402993   2401398   2399779   2398101   2396353  
  5460.000000   2394530   2392642   2390691   2388674   2386582  
  5450.000000   2384414   2382182   2379919   2377670   2375479  
  5440.000000   2373372   2371355   2369415   2367533   2365700  
  5430.000000   2363911   2362177   2360497   2358866   2357258  
  5420.000000   2355657   2354052   2352475   2350971   2349614  
  5410.000000   2348447   2347493   2346714   2346061   2345460  
  5400.000000   2344884   2344317   2343806   2343393   2343138  
  5390.000000   2343058   2343164   2343428   2343847   2344403  
  5380.000000   2345126   2346020   2347116   2348392   2349844  
  5370.000000   2351419   2353111   2354878   2356747   2358697  
  5360.000000   2360774   2362959   2365307   2367820   2370589  
  5350.000000   2373656   2377140   2381073   2385533   2390475  
  5340.000000   2395906   2401731   2407961   2414530   2421499  
  5330.000000   2428831   2436601   2444762   2453377   2462390  
  5320.000000   2471893   2481867   2492451   2503643   2515578  
  5310.000000   2528218   2541646   2555781   2570687   2586295  
  5300.000000   2602704   2619888   2637981   2656975   2676992  
  5290.000000   2697982   2719992   2742887   2766613   2790976  
  5280.000000   2815913   2841298   2867183   2893581   2920641  
  5270.000000   2948408   2976932   3006097   3035739   3065610  
  5260.000000   3095503   3125289   3154935   3184502   3214037  
  5250.000000   3243571   3272982   3302120   3330702   3358563  
  5240.000000   3385512   3411588   3436796   3461325   3485213  
  5230.000000   3508595   3531378   3553550   3574906   3595400  
  5220.000000   3614876   3633408   3650971   3667758   3683803  
  5210.000000   3699288   3714166   3728492   3742096   3754955  
  5200.000000   3766898   3777981   3788148   3797556   3806204  
  5190.000000   3814230   3821570   3828274   3834221   3839453  
  5180.000000   3843893   3847649   3850711   3853210   3855123  
  5170.000000   3856533   3857377   3857715   3857496   3856803  
  5160.000000   3855614   3854011   3851959   3849507   3846596  
  5150.000000   3843269   3839496   3835350   3830837   3826038  
  5140.000000   3820951   3815632   3810059   3804277   3798280  
  5130.000000   3792124   3785817   3779410   3772895   3766293  
  5120.000000   3759582   3752778   3745877   3738916   3731907  
  5110.000000   3724883   3717842   3710788   3703700   3696575  
  5100.000000   3689409   3682223   3675036   3667880   3660770  
  5090.000000   3653721   3646730   3639798   3632920   3626101  
  5080.000000   3619336   3612621   3605933   3599249   3592532  
  5070.000000   3585760   3578915   3572000   3565022   3558001  
  5060.000000   3550943   3543858   3536740   3529592   3522413  
  5050.000000   3515216   3508014   3500823   3493647   3486485  
  5040.000000   3479321   3472141   3464933   3457700   3450456  
  5030.000000   3443222   3436027   3428888   3421819   3414821  
  5020.000000   3407899   3401047   3394278   3387595   3381021  
  5010.000000   3374558   3368228   3362027   3355974   3350060  
  5000.000000   3344315   3338733   3333349   3328158   3323193  
  4990.000000   3318440   3313932   3309649   3305629   3301856  
  4980.000000   3298369   3295151   3292242   3289621   3287333  
  4970.000000   3285358   3283746   3282474   3281586   3281044  
  4960.000000   3280878   3281042   3281568   3282426   3283669  
  4950.000000   3285281   3287320   3289752   3292608   3295822  
  4940.000000   3299402   3303279   3307475   3311953   3316764  
  4930.000000   3321891   3327388   3333229   3339450   3346013  
  4920.000000   3352944   3360207   3367827   3375772   3384055  
  4910.000000   3392634   3401506   3410623   3419976   3429520  
  4900.000000   3439246   3449116   3459112   3469195   3479336  
  4890.000000   3489499   3499649   3509762   3519802   3529753  
  4880.000000   3539573   3549243   3558709   3567945   3576886  
  4870.000000   3585507   3593740   3601571   3608945   3615870  
  4860.000000   3622316   3628325   3633894   3639085   3643912  
  4850.000000   3648444   3652694   3656725   3660541   3664191  
  4840.000000   3667667   3671005   3674190   3677250   3680177  
  4830.000000   3683003   3685731   3688394   3690993   3693547  
  4820.000000   3696042   3698480   3700840   3703125   3705333  
  4810.000000   3707479   3709574   3711636   3713668   3715673  
  4800.000000   3717643   3719578   3721476   3723353   3725223  
  4790.000000   3727111   3729027   3730980   3732960   3734957  
  4780.000000   3736948   3738920   3740852   3742736   3744551  
  4770.000000   3746288   3747921   3749445   3750843   3752125  
  4760.000000   3753295   3754375   3755371   3756297   3757137  
  4750.000000   3757887   3758515   3759015   3759362   3759563  
  4740.000000   3759611   3759523   3759298   3758955   3758494  
  4730.000000   3757938   3757297   3756597   3755855   3755093  
  4720.000000   3754316   3753527   3752717   3751876   3750993  
  4710.000000   3750067   3749107   3748130   3747161   3746228  
  4700.000000   3745362   3744587   3743927   3743397   3743010  
  4690.000000   3742768   3742672   3742704   3742848   3743073  
  4680.000000   3743351   3743641   3743919   3744149   3744321  
  4670.000000   3744421   3744463   3744459   3744447   3744456  
  4660.000000   3744531   3744698   3744989   3745419   3746007  
  4650.000000   3746758   3747686   3748792   3750081   3751541  
  4640.000000   3753152   3754881   3756689   3758532   3760376  
  4630.000000   3762194   3763975   3765715   3767412   3769064  
  4620.000000   3770657   3772170   3773570   3774825   3775904  
  4610.000000   3776792   3777482   3777995   3778351   3778594  
  4600.000000   3778753   3778870   3778957   3779034   3779085  
  4590.000000   3779105   3779062   3778940   3778703   3778341  
  4580.000000   3777831   3777172   3776357   3775400   3774310  
  4570.000000   3773113   3771826   3770482   3769094   3767684  
  4560.000000   3766254   3764810   3763346   3761862   3760352  
  4550.000000   3758818   3757257   3755669   3754052   3752401  
  4540.000000   3750723   3749024   3747328   3745657   3744051  
  4530.000000   3742528   3741125   3739839   3738691   3737662  
  4520.000000   3736778   3736021   3735436   3735016   3734822  
  4510.000000   3734845   3735158   3735754   3736725   3738076  
  4500.000000   3739916   3742258   3745207   3748753   3752981  
  4490.000000   3757852   3763436   3769687   3776674   3784353  
  4480.000000   3792790   3801933   3811829   3822407   3833691  
  4470.000000   3845599   3858137   3871216   3884828   3898874  
  4460.000000   3913329   3928091   3943122   3958324   3973656  
  4450.000000   3989036   4004428   4019780   4035075   4050296  
  4440.000000   4065446   4080539   4095571   4110562   4125477  
  4430.000000   4140318   4155015   4169559   4183858   4197905  
  4420.000000   4211599   4224935   4237802   4250184   4261957  
  4410.000000   4273095   4283470   4293063   4301768   4309597  
  4400.000000   4316493   4322520   4327681   4332092   4335814  
  4390.000000   4339006   4341767   4344271   4346618   4348948  
  4380.000000   4351313   4353780   4356340   4359001   4361741  
  4370.000000   4364572   4367516   4370628   4373969   4377603  
  4360.000000   4381577   4385912   4390591   4395586   4400820  
  4350.000000   4406242   4411749   4417300   4422802   4428239  
  4340.000000   4433543   4438702   4443624   4448220   4452283  
  4330.000000   4455578   4457782   4458613   4457835   4455394  
  4320.000000   4451402   4446200   4440247   4434100   4428241  
  4310.000000   4423070   4418780   4415436   4412935   4411137  
  4300.000000   4409860   4408967   4408355   4407959   4407749  
  4290.000000   4407689   4407774   4407975   4408300   4408741  
  4280.000000   4409317   4410031   4410886   4411877   4412975  
  4270.000000   4414163   4415384   4416585   4417653   4418452  
  4260.000000   4418785   4418451   4417245   4415036   4411779  
  4250.000000   4407562   4402571   4397095   4391434   4385897  
  4240.000000   4380708   4376031   4371913   4368350   4365258  
  4230.000000   4362541   4360080   4357765   4355502   4353211  
  4220.000000   4350857   4348409   4345903   4343365   4340881  
  4210.000000   4338507   4336335   4334402   4332761   4331408  
  4200.000000   4330347   4329533   4328943   4328514   4328221  
  4190.000000   4328006   4327866   4327768   4327747   4327800  
  4180.000000   4327994   4328340   4328914   4329721   4330828  
  4170.000000   4332230   4333993   4336113   4338665   4341646  
  4160.000000   4345131   4349109   4353638   4358690   4364309  
  4150.000000   4370450   4377149   4384348   4392074   4400261  
  4140.000000   4408934   4418027   4427574   4437516   4447893  
  4130.000000   4458648   4469816   4481339   4493246   4505489  
  4120.000000   4518109   4531083   4544470   4558269   4572545  
  4110.000000   4587294   4602557   4618299   4634515   4651126  
  4100.000000   4668077   4685265   4702623   4720069   4737570  
  4090.000000   4755103   4772677   4790314   4808037   4825877  
  4080.000000   4843840   4861945   4880164   4898490   4916841  
  4070.000000   4935168   4953335   4971269   4988830   5005980  
  4060.000000   5022630   5038805   5054447   5069600   5084188  
  4050.000000   5098245   5111690   5124583   5136865   5148628  
  4040.000000   5159812   5170480   5180519   5189951   5198637  
  4030.000000   5206611   5213762   5220156   5225718   5230509  
  4020.000000   5234435   5237567   5239891   5241501   5242351  
  4010.000000   5242585   5242273   5241418   5239763   5237369  
  4000.000000   5234603  
##END= 
