##TITLE= Sample 002 By ssteindl date Dienstag, November 20 2018
##JCAMP-DX= 4.24
##DATA TYPE= INFRARED SPECTRUM
##ORIGIN= Exported PE Spectrum Data File
##OWNER= Sandra Steindl
##DATE= 18/11/20
##TIME= 13:55:42.00
##SPECTROMETER/DATA SYSTEM= PERKIN-ELMER Frontier FT-IR/NIR IR
##INSTRUMENT PARAMETERS=
  APODIZATION=stark
  DETECTOR=INGAAS
##RESOLUTION= 16.000000
##DELTAX= -2.000000
##XUNITS= 1/CM
##YUNITS= A
##XFACTOR= 1.00
##YFACTOR= 0.00000011920928955078
##FIRSTX= 10000.00
##LASTX= 4000.00
##NPOINTS= 3001
##FIRSTY= 0.217728
##MAXY= 0.615761
##MINY= 0.192080
##XYDATA= (X++(Y..Y))
 10000.000000   1826437   1827358   1829044   1832022   1835373  
  9990.000000   1837726   1838650   1838763   1838787   1839236  
  9980.000000   1840416   1842321   1844407   1845878   1846139  
  9970.000000   1845046   1842851   1840082   1837226   1834538  
  9960.000000   1831928   1829167   1826097   1822852   1819890  
  9950.000000   1817785   1816955   1817366   1818484   1819411  
  9940.000000   1819272   1817584   1814519   1810875   1807770  
  9930.000000   1806240   1806817   1809420   1813426   1817997  
  9920.000000   1822407   1826219   1829320   1831701   1833301  
  9910.000000   1833845   1832939   1830216   1825651   1819646  
  9900.000000   1813097   1807101   1802668   1800403   1800313  
  9890.000000   1801920   1804403   1806993   1809152   1810764  
  9880.000000   1812024   1813315   1814958   1817070   1819518  
  9870.000000   1821964   1824045   1825458   1826095   1826000  
  9860.000000   1825321   1824210   1822732   1820887   1818636  
  9850.000000   1816018   1813184   1810414   1807992   1806125  
  9840.000000   1804777   1803730   1802603   1801096   1799112  
  9830.000000   1796875   1794853   1793575   1793375   1794196  
  9820.000000   1795560   1796697   1796875   1795634   1793046  
  9810.000000   1789600   1786085   1783183   1781278   1780284  
  9800.000000   1779782   1779277   1778443   1777358   1776383  
  9790.000000   1776109   1776972   1779224   1782722   1787102  
  9780.000000   1791823   1796307   1800022   1802421   1803031  
  9770.000000   1801353   1797080   1790128   1780881   1770156  
  9760.000000   1759159   1749203   1741408   1736490   1734595  
  9750.000000   1735459   1738422   1742772   1747739   1752722  
  9740.000000   1757245   1761002   1763891   1765910   1767246  
  9730.000000   1768021   1768363   1768134   1767100   1764877  
  9720.000000   1761269   1756362   1750720   1745283   1741136  
  9710.000000   1739178   1739749   1742561   1746708   1751105  
  9700.000000   1754764   1757262   1758715   1759788   1761270  
  9690.000000   1763809   1767597   1772318   1777270   1781541  
  9680.000000   1784267   1784739   1782519   1777458   1769757  
  9670.000000   1759992   1749133   1738403   1729111   1722283  
  9660.000000   1718422   1717302   1718026   1719347   1720058  
  9650.000000   1719502   1717760   1715694   1714595   1715721  
  9640.000000   1719827   1726832   1735859   1745405   1753860  
  9630.000000   1759847   1762660   1762278   1759356   1754904  
  9620.000000   1750001   1745511   1741915   1739311   1737499  
  9610.000000   1736167   1735021   1733943   1732942   1732175  
  9600.000000   1731746   1731681   1731837   1731970   1731840  
  9590.000000   1731304   1730403   1729334   1728387   1727851  
  9580.000000   1727902   1728610   1729910   1731681   1733752  
  9570.000000   1735924   1737935   1739440   1740036   1739324  
  9560.000000   1737064   1733264   1728279   1722729   1717369  
  9550.000000   1712879   1709654   1707770   1706973   1706891  
  9540.000000   1707156   1707566   1708080   1708742   1709594  
  9530.000000   1710524   1711320   1711647   1711241   1709953  
  9520.000000   1707874   1705315   1702740   1700697   1699655  
  9510.000000   1699980   1701787   1704963   1709094   1713516  
  9500.000000   1717422   1719964   1720524   1718761   1714810  
  9490.000000   1709143   1702529   1695790   1689649   1684646  
  9480.000000   1681086   1679178   1679009   1680678   1684145  
  9470.000000   1689246   1695499   1702158   1708248   1712770  
  9460.000000   1714988   1714570   1711786   1707310   1702130  
  9450.000000   1697173   1693132   1690314   1688625   1687745  
  9440.000000   1687234   1686813   1686353   1685984   1685881  
  9430.000000   1686222   1686999   1688011   1688900   1689213  
  9420.000000   1688609   1686910   1684260   1681014   1677663  
  9410.000000   1674667   1672308   1670688   1669721   1669276  
  9400.000000   1669265   1669708   1670707   1672305   1674372  
  9390.000000   1676485   1678031   1678360   1677086   1674216  
  9380.000000   1670250   1666006   1662433   1660305   1660036  
  9370.000000   1661566   1664442   1667994   1671532   1674513  
  9360.000000   1676590   1677637   1677722   1677095   1676145  
  9350.000000   1675353   1675176   1675930   1677663   1680126  
  9340.000000   1682792   1685047   1686353   1686479   1685518  
  9330.000000   1683853   1681920   1680021   1678199   1676260  
  9320.000000   1673953   1671112   1667804   1664314   1661027  
  9310.000000   1658289   1656228   1654797   1653810   1653146  
  9300.000000   1652820   1653013   1653943   1655672   1657993  
  9290.000000   1660390   1662256   1663062   1662641   1661174  
  9280.000000   1659179   1657215   1655708   1654772   1654262  
  9270.000000   1653925   1653592   1653331   1653412   1654188  
  9260.000000   1655854   1658338   1661238   1663991   1666042  
  9250.000000   1667064   1667052   1666281   1665203   1664207  
  9240.000000   1663534   1663203   1663090   1662982   1662652  
  9230.000000   1661927   1660720   1659081   1657171   1655297  
  9220.000000   1653827   1653188   1653672   1655364   1658001  
  9210.000000   1661069   1663913   1665961   1666882   1666669  
  9200.000000   1665617   1664122   1662532   1660951   1659284  
  9190.000000   1657264   1654676   1651471   1647873   1644317  
  9180.000000   1641293   1639219   1638274   1638454   1639548  
  9170.000000   1641297   1643420   1645688   1647942   1650032  
  9160.000000   1651856   1653269   1654173   1654462   1654107  
  9150.000000   1653082   1651424   1649235   1646752   1644352  
  9140.000000   1642492   1641658   1642181   1644139   1647206  
  9130.000000   1650744   1653936   1656062   1656688   1655803  
  9120.000000   1653789   1651277   1648938   1647243   1646359  
  9110.000000   1646156   1646338   1646585   1646628   1646343  
  9100.000000   1645698   1644771   1643651   1642472   1641362  
  9090.000000   1640455   1639839   1639505   1639339   1639085  
  9080.000000   1638450   1637175   1635193   1632643   1629856  
  9070.000000   1627235   1625130   1623728   1623027   1622898  
  9060.000000   1623197   1623841   1624830   1626193   1627910  
  9050.000000   1629834   1631688   1633145   1633970   1634114  
  9040.000000   1633781   1633329   1633159   1633524   1634422  
  9030.000000   1635617   1636714   1637354   1637321   1636644  
  9020.000000   1635553   1634383   1633423   1632805   1632454  
  9010.000000   1632148   1631612   1630629   1629116   1627171  
  9000.000000   1625041   1623069   1621561   1620761   1620750  
  8990.000000   1621460   1622655   1624016   1625225   1626015  
  8980.000000   1626236   1625844   1624918   1623578   1621958  
  8970.000000   1620158   1618284   1616439   1614761   1613411  
  8960.000000   1612557   1612308   1612659   1613480   1614542  
  8950.000000   1615582   1616370   1616773   1616790   1616521  
  8940.000000   1616139   1615808   1615682   1615854   1616380  
  8930.000000   1617254   1618404   1619705   1620964   1621988  
  8920.000000   1622613   1622790   1622609   1622280   1622068  
  8910.000000   1622157   1622579   1623143   1623510   1623290  
  8900.000000   1622206   1620225   1617607   1614861   1612581  
  8890.000000   1611294   1611282   1612524   1614716   1617349  
  8880.000000   1619880   1621830   1622938   1623136   1622575  
  8870.000000   1621510   1620273   1619168   1618449   1618282  
  8860.000000   1618762   1619935   1621818   1624397   1627582  
  8850.000000   1631211   1634991   1638550   1641452   1643321  
  8840.000000   1643953   1643382   1641900   1639961   1638071  
  8830.000000   1636619   1635770   1635457   1635417   1635362  
  8820.000000   1635064   1634486   1633740   1633057   1632652  
  8810.000000   1632642   1633000   1633559   1634110   1634440  
  8800.000000   1634437   1634061   1633381   1632522   1631675  
  8790.000000   1631057   1630894   1631378   1632620   1634585  
  8780.000000   1637085   1639778   1642265   1644182   1645319  
  8770.000000   1645667   1645413   1644864   1644357   1644154  
  8760.000000   1644401   1645119   1646245   1647664   1649238  
  8750.000000   1650806   1652189   1653195   1653661   1653496  
  8740.000000   1652761   1651654   1650491   1649596   1649213  
  8730.000000   1649434   1650193   1651341   1652704   1654204  
  8720.000000   1655856   1657758   1659985   1662508   1665163  
  8710.000000   1667650   1669661   1670932   1671371   1671042  
  8700.000000   1670164   1669013   1667865   1666950   1666440  
  8690.000000   1666463   1667098   1668379   1670257   1672588  
  8680.000000   1675119   1677548   1679589   1681066   1681972  
  8670.000000   1682454   1682781   1683230   1684027   1685259  
  8660.000000   1686889   1688768   1690703   1692506   1694032  
  8650.000000   1695207   1696025   1696553   1696924   1697313  
  8640.000000   1697914   1698865   1700212   1701862   1703617  
  8630.000000   1705230   1706506   1707391   1708009   1708637  
  8620.000000   1709599   1711154   1713385   1716155   1719168  
  8610.000000   1722045   1724487   1726329   1727597   1728441  
  8600.000000   1729059   1729629   1730252   1730982   1731851  
  8590.000000   1732930   1734326   1736156   1738476   1741229  
  8580.000000   1744205   1747079   1749479   1751112   1751851  
  8570.000000   1751783   1751186   1750436   1749904   1749855  
  8560.000000   1750369   1751368   1752641   1753953   1755101  
  8550.000000   1755990   1756634   1757138   1757627   1758192  
  8540.000000   1758856   1759568   1760239   1760783   1761170  
  8530.000000   1761450   1761746   1762217   1762999   1764153  
  8520.000000   1765632   1767286   1768906   1770275   1771233  
  8510.000000   1771706   1771722   1771399   1770920   1770498  
  8500.000000   1770343   1770626   1771452   1772825   1774636  
  8490.000000   1776663   1778609   1780167   1781102   1781326  
  8480.000000   1780949   1780246   1779593   1779341   1779721  
  8470.000000   1780766   1782307   1784050   1785677   1786977  
  8460.000000   1787903   1788582   1789238   1790101   1791299  
  8450.000000   1792800   1794417   1795868   1796888   1797314  
  8440.000000   1797161   1796622   1796020   1795708   1795960  
  8430.000000   1796888   1798405   1800246   1802032   1803399  
  8420.000000   1804099   1804095   1803557   1802840   1802360  
  8410.000000   1802501   1803464   1805225   1807524   1809949  
  8400.000000   1812054   1813464   1813967   1813548   1812376  
  8390.000000   1810726   1808896   1807136   1805628   1804483  
  8380.000000   1803746   1803435   1803531   1804011   1804798  
  8370.000000   1805808   1806907   1807982   1808930   1809691  
  8360.000000   1810242   1810573   1810682   1810527   1810058  
  8350.000000   1809207   1807953   1806338   1804495   1802638  
  8340.000000   1801019   1799869   1799322   1799394   1799943  
  8330.000000   1800735   1801472   1801911   1801914   1801504  
  8320.000000   1800838   1800163   1799732   1799715   1800138  
  8310.000000   1800857   1801620   1802129   1802161   1801620  
  8300.000000   1800576   1799228   1797834   1796625   1795722  
  8290.000000   1795130   1794756   1794484   1794237   1794019  
  8280.000000   1793910   1794018   1794405   1795049   1795818  
  8270.000000   1796519   1796955   1797007   1796676   1796089  
  8260.000000   1795443   1794934   1794674   1794668   1794797  
  8250.000000   1794882   1794730   1794214   1793294   1792025  
  8240.000000   1790512   1788882   1787225   1785591   1783979  
  8230.000000   1782372   1780762   1779180   1777693   1776395  
  8220.000000   1775354   1774608   1774106   1773749   1773390  
  8210.000000   1772917   1772283   1771534   1770789   1770172  
  8200.000000   1769746   1769454   1769113   1768453   1767230  
  8190.000000   1765313   1762783   1759910   1757086   1754688  
  8180.000000   1752941   1751868   1751277   1750880   1750407  
  8170.000000   1749731   1748907   1748139   1747647   1747555  
  8160.000000   1747797   1748132   1748234   1747814   1746752  
  8150.000000   1745123   1743188   1741263   1739602   1738293  
  8140.000000   1737238   1736218   1735000   1733452   1731597  
  8130.000000   1729613   1727754   1726269   1725306   1724892  
  8120.000000   1724918   1725202   1725532   1725732   1725679  
  8110.000000   1725321   1724668   1723771   1722712   1721576  
  8100.000000   1720437   1719329   1718241   1717106   1715832  
  8090.000000   1714333   1712567   1710579   1708497   1706517  
  8080.000000   1704840   1703622   1702916   1702655   1702663  
  8070.000000   1702704   1702547   1702029   1701101   1699832  
  8060.000000   1698395   1697014   1695899   1695188   1694906  
  8050.000000   1694962   1695179   1695354   1695322   1695002  
  8040.000000   1694410   1693635   1692787   1691946   1691124  
  8030.000000   1690263   1689279   1688102   1686732   1685249  
  8020.000000   1683795   1682525   1681540   1680871   1680452  
  8010.000000   1680176   1679927   1679631   1679275   1678890  
  8000.000000   1678526   1678203   1677909   1677582   1677153  
  7990.000000   1676563   1675799   1674891   1673911   1672949  
  7980.000000   1672091   1671411   1670960   1670761   1670808  
  7970.000000   1671057   1671421   1671778   1671994   1671958  
  7960.000000   1671622   1671018   1670262   1669512   1668923  
  7950.000000   1668585   1668498   1668569   1668642   1668563  
  7940.000000   1668225   1667604   1666768   1665842   1664971  
  7930.000000   1664266   1663780   1663485   1663302   1663108  
  7920.000000   1662796   1662294   1661604   1660800   1660020  
  7910.000000   1659437   1659204   1659416   1660073   1661071  
  7900.000000   1662227   1663327   1664181   1664676   1664802  
  7890.000000   1664642   1664339   1664048   1663882   1663885  
  7880.000000   1664027   1664223   1664370   1664377   1664196  
  7870.000000   1663829   1663312   1662708   1662071   1661447  
  7860.000000   1660856   1660316   1659840   1659461   1659225  
  7850.000000   1659187   1659382   1659803   1660380   1660986  
  7840.000000   1661456   1661635   1661427   1660824   1659919  
  7830.000000   1658881   1657903   1657154   1656727   1656627  
  7820.000000   1656778   1657061   1657344   1657519   1657506  
  7810.000000   1657255   1656737   1655939   1654877   1653605  
  7800.000000   1652231   1650898   1649767   1648967   1648552  
  7790.000000   1648483   1648630   1648824   1648901   1648780  
  7780.000000   1648473   1648090   1647792   1647723   1647951  
  7770.000000   1648432   1649012   1649470   1649587   1649206  
  7760.000000   1648295   1646945   1645355   1643763   1642381  
  7750.000000   1641330   1640609   1640113   1639673   1639132  
  7740.000000   1638406   1637519   1636590   1635789   1635266  
  7730.000000   1635086   1635206   1635477   1635714   1635748  
  7720.000000   1635497   1634975   1634285   1633558   1632909  
  7710.000000   1632395   1632017   1631734   1631511   1631333  
  7700.000000   1631217   1631188   1631251   1631370   1631473  
  7690.000000   1631470   1631298   1630944   1630461   1629946  
  7680.000000   1629501   1629199   1629057   1629049   1629123  
  7670.000000   1629231   1629348   1629465   1629574   1629645  
  7660.000000   1629621   1629425   1629000   1628324   1627451  
  7650.000000   1626483   1625555   1624782   1624233   1623919  
  7640.000000   1623801   1623832   1623980   1624258   1624699  
  7630.000000   1625339   1626172   1627126   1628070   1628833  
  7620.000000   1629265   1629271   1628850   1628091   1627152  
  7610.000000   1626219   1625461   1624994   1624859   1625026  
  7600.000000   1625410   1625893   1626354   1626687   1626821  
  7590.000000   1626729   1626431   1625987   1625488   1625028  
  7580.000000   1624697   1624548   1624611   1624873   1625301  
  7570.000000   1625839   1626434   1627034   1627600   1628108  
  7560.000000   1628551   1628932   1629272   1629591   1629928  
  7550.000000   1630308   1630762   1631294   1631903   1632560  
  7540.000000   1633234   1633889   1634503   1635073   1635623  
  7530.000000   1636198   1636853   1637629   1638545   1639582  
  7520.000000   1640691   1641797   1642835   1643752   1644547  
  7510.000000   1645251   1645937   1646681   1647550   1648575  
  7500.000000   1649752   1651035   1652368   1653692   1654978  
  7490.000000   1656224   1657463   1658739   1660095   1661551  
  7480.000000   1663095   1664682   1666253   1667752   1669157  
  7470.000000   1670476   1671763   1673082   1674495   1676022  
  7460.000000   1677641   1679278   1680844   1682262   1683507  
  7450.000000   1684620   1685703   1686889   1688302   1690019  
  7440.000000   1692040   1694284   1696628   1698926   1701066  
  7430.000000   1702976   1704653   1706143   1707527   1708894  
  7420.000000   1710323   1711869   1713562   1715406   1717381  
  7410.000000   1719450   1721567   1723679   1725732   1727678  
  7400.000000   1729480   1731115   1732583   1733897   1735099  
  7390.000000   1736242   1737401   1738645   1740038   1741619  
  7380.000000   1743395   1745346   1747429   1749604   1751844  
  7370.000000   1754151   1756538   1759018   1761584   1764189  
  7360.000000   1766753   1769172   1771357   1773247   1774845  
  7350.000000   1776200   1777408   1778579   1779811   1781179  
  7340.000000   1782709   1784409   1786250   1788203   1790214  
  7330.000000   1792237   1794213   1796100   1797861   1799488  
  7320.000000   1800992   1802394   1803717   1804966   1806129  
  7310.000000   1807183   1808112   1808920   1809642   1810341  
  7300.000000   1811088   1811952   1812970   1814154   1815479  
  7290.000000   1816909   1818394   1819894   1821368   1822783  
  7280.000000   1824114   1825346   1826480   1827532   1828536  
  7270.000000   1829522   1830508   1831484   1832417   1833262  
  7260.000000   1833995   1834623   1835204   1835824   1836574  
  7250.000000   1837505   1838621   1839856   1841126   1842341  
  7240.000000   1843474   1844549   1845658   1846902   1848375  
  7230.000000   1850109   1852095   1854274   1856602   1859041  
  7220.000000   1861594   1864258   1867033   1869868   1872689  
  7210.000000   1875391   1877915   1880234   1882422   1884590  
  7200.000000   1886892   1889433   1892272   1895373   1898658  
  7190.000000   1902017   1905378   1908704   1912030   1915411  
  7180.000000   1918918   1922574   1926367   1930227   1934082  
  7170.000000   1937857   1941537   1945144   1948761   1952473  
  7160.000000   1956363   1960456   1964741   1969146   1973597  
  7150.000000   1978008   1982340   1986578   1990763   1994941  
  7140.000000   1999183   2003521   2007994   2012596   2017342  
  7130.000000   2022227   2027283   2032524   2037983   2043654  
  7120.000000   2049532   2055570   2061733   2067975   2074284  
  7110.000000   2080646   2087080   2093586   2100177   2106835  
  7100.000000   2113558   2120322   2127124   2133942   2140763  
  7090.000000   2147549   2154265   2160865   2167326   2173649  
  7080.000000   2179874   2186064   2192296   2198630   2205105  
  7070.000000   2211726   2218480   2225342   2232290   2239306  
  7060.000000   2246369   2253451   2260508   2267496   2274379  
  7050.000000   2281150   2287838   2294493   2301171   2307904  
  7040.000000   2314684   2321463   2328172   2334750   2341161  
  7030.000000   2347412   2353531   2359566   2365542   2371480  
  7020.000000   2377377   2383248   2389107   2394995   2400937  
  7010.000000   2406941   2412965   2418938   2424757   2430349  
  7000.000000   2435676   2440775   2445720   2450619   2455545  
  6990.000000   2460545   2465600   2470669   2475681   2480594  
  6980.000000   2485366   2489992   2494455   2498757   2502878  
  6970.000000   2506823   2510585   2514192   2517660   2521022  
  6960.000000   2524280   2527445   2530501   2533465   2536341  
  6950.000000   2539168   2541958   2544725   2547433   2550034  
  6940.000000   2552466   2554701   2556740   2558641   2560471  
  6930.000000   2562306   2564173   2566075   2567969   2569825  
  6920.000000   2571624   2573395   2575178   2577026   2578952  
  6910.000000   2580935   2582910   2584806   2586562   2588150  
  6900.000000   2589571   2590847   2591995   2593026   2593942  
  6890.000000   2594759   2595515   2596281   2597133   2598135  
  6880.000000   2599299   2600586   2601910   2603178   2604319  
  6870.000000   2605317   2606203   2607041   2607889   2608779  
  6860.000000   2609702   2610631   2611531   2612392   2613219  
  6850.000000   2614034   2614845   2615639   2616376   2617012  
  6840.000000   2617514   2617890   2618179   2618450   2618759  
  6830.000000   2619146   2619604   2620108   2620612   2621092  
  6820.000000   2621531   2621935   2622307   2622647   2622935  
  6810.000000   2623147   2623263   2623282   2623217   2623094  
  6800.000000   2622936   2622754   2622545   2622304   2622029  
  6790.000000   2621733   2621437   2621158   2620897   2620636  
  6780.000000   2620339   2619980   2619555   2619097   2618668  
  6770.000000   2618340   2618160   2618140   2618241   2618401  
  6760.000000   2618545   2618618   2618595   2618469   2618248  
  6750.000000   2617930   2617506   2616964   2616302   2615544  
  6740.000000   2614739   2613954   2613252   2612679   2612242  
  6730.000000   2611927   2611693   2611501   2611312   2611098  
  6720.000000   2610830   2610484   2610033   2609462   2608769  
  6710.000000   2607980   2607135   2606289   2605482   2604741  
  6700.000000   2604065   2603438   2602830   2602216   2601569  
  6690.000000   2600876   2600114   2599273   2598339   2597321  
  6680.000000   2596245   2595160   2594116   2593158   2592292  
  6670.000000   2591496   2590708   2589864   2588911   2587834  
  6660.000000   2586654   2585421   2584185   2582982   2581816  
  6650.000000   2580664   2579489   2578257   2576946   2575558  
  6640.000000   2574107   2572621   2571122   2569642   2568202  
  6630.000000   2566823   2565511   2564261   2563041   2561807  
  6620.000000   2560503   2559091   2557550   2555903   2554192  
  6610.000000   2552481   2550816   2549223   2547688   2546178  
  6600.000000   2544643   2543046   2541368   2539612   2537799  
  6590.000000   2535957   2534112   2532288   2530498   2528757  
  6580.000000   2527074   2525456   2523905   2522419   2520992  
  6570.000000   2519618   2518291   2517004   2515749   2514507  
  6560.000000   2513252   2511949   2510569   2509094   2507530  
  6550.000000   2505911   2504286   2502711   2501233   2499874  
  6540.000000   2498634   2497493   2496415   2495362   2494297  
  6530.000000   2493190   2492022   2490786   2489491   2488161  
  6520.000000   2486835   2485549   2484332   2483189   2482103  
  6510.000000   2481040   2479968   2478869   2477750   2476639  
  6500.000000   2475572   2474572   2473633   2472722   2471786  
  6490.000000   2470780   2469685   2468520   2467334   2466195  
  6480.000000   2465158   2464247   2463453   2462736   2462043  
  6470.000000   2461325   2460551   2459707   2458794   2457818  
  6460.000000   2456791   2455723   2454630   2453533   2452458  
  6450.000000   2451429   2450466   2449576   2448754   2447989  
  6440.000000   2447266   2446569   2445886   2445201   2444502  
  6430.000000   2443775   2443016   2442227   2441427   2440640  
  6420.000000   2439898   2439217   2438608   2438056   2437545  
  6410.000000   2437049   2436554   2436053   2435546   2435041  
  6400.000000   2434546   2434068   2433622   2433223   2432889  
  6390.000000   2432633   2432451   2432316   2432180   2431987  
  6380.000000   2431694   2431284   2430781   2430242   2429735  
  6370.000000   2429318   2429016   2428815   2428667   2428517  
  6360.000000   2428316   2428037   2427675   2427238   2426730  
  6350.000000   2426153   2425504   2424790   2424032   2423273  
  6340.000000   2422558   2421928   2421391   2420925   2420478  
  6330.000000   2419994   2419423   2418749   2417979   2417142  
  6320.000000   2416264   2415365   2414436   2413469   2412447  
  6310.000000   2411377   2410275   2409180   2408115   2407101  
  6300.000000   2406121   2405148   2404134   2403039   2401830  
  6290.000000   2400500   2399049   2397498   2395864   2394176  
  6280.000000   2392455   2390726   2389005   2387305   2385623  
  6270.000000   2383955   2382280   2380590   2378871   2377132  
  6260.000000   2375379   2373630   2371896   2370183   2368484  
  6250.000000   2366785   2365064   2363295   2361455   2359527  
  6240.000000   2357503   2355392   2353222   2351037   2348893  
  6230.000000   2346846   2344928   2343152   2341493   2339909  
  6220.000000   2338346   2336759   2335119   2333419   2331665  
  6210.000000   2329870   2328042   2326186   2324310   2322425  
  6200.000000   2320551   2318713   2316932   2315211   2313532  
  6190.000000   2311859   2310154   2308391   2306569   2304715  
  6180.000000   2302875   2301095   2299405   2297808   2296286  
  6170.000000   2294809   2293351   2291898   2290456   2289038  
  6160.000000   2287662   2286335   2285052   2283797   2282548  
  6150.000000   2281286   2279998   2278675   2277318   2275928  
  6140.000000   2274509   2273068   2271615   2270161   2268716  
  6130.000000   2267287   2265878   2264492   2263137   2261821  
  6120.000000   2260557   2259355   2258219   2257134   2256078  
  6110.000000   2255019   2253932   2252802   2251640   2250464  
  6100.000000   2249306   2248190   2247135   2246142   2245218  
  6090.000000   2244361   2243585   2242897   2242312   2241823  
  6080.000000   2241419   2241070   2240755   2240455   2240179  
  6070.000000   2239942   2239774   2239687   2239686   2239746  
  6060.000000   2239847   2239954   2240067   2240192   2240368  
  6050.000000   2240626   2241008   2241527   2242197   2243009  
  6040.000000   2243960   2245037   2246239   2247546   2248948  
  6030.000000   2250412   2251919   2253441   2254980   2256537  
  6020.000000   2258137   2259794   2261529   2263335   2265205  
  6010.000000   2267111   2269036   2270955   2272866   2274761  
  6000.000000   2276651   2278541   2280455   2282408   2284429  
  5990.000000   2286533   2288738   2291033   2293411   2295843  
  5980.000000   2298321   2300835   2303412   2306079   2308879  
  5970.000000   2311834   2314953   2318205   2321555   2324947  
  5960.000000   2328349   2331729   2335090   2338432   2341776  
  5950.000000   2345127   2348504   2351911   2355370   2358894  
  5940.000000   2362507   2366216   2370022   2373908   2377846  
  5930.000000   2381808   2385768   2389711   2393627   2397507  
  5920.000000   2401333   2405082   2408725   2412237   2415604  
  5910.000000   2418828   2421923   2424909   2427802   2430618  
  5900.000000   2433368   2436073   2438754   2441454   2444202  
  5890.000000   2447033   2449949   2452939   2455967   2458996  
  5880.000000   2461989   2464923   2467780   2470546   2473200  
  5870.000000   2475714   2478058   2480215   2482192   2484030  
  5860.000000   2485795   2487564   2489406   2491368   2493467  
  5850.000000   2495694   2498023   2500427   2502879   2505357  
  5840.000000   2507839   2510307   2512746   2515148   2517521  
  5830.000000   2519887   2522277   2524712   2527201   2529726  
  5820.000000   2532245   2534711   2537080   2539330   2541460  
  5810.000000   2543494   2545456   2547378   2549267   2551141  
  5800.000000   2552986   2554818   2556620   2558409   2560154  
  5790.000000   2561844   2563412   2564816   2565969   2566815  
  5780.000000   2567275   2567308   2566859   2565919   2564486  
  5770.000000   2562614   2560380   2557908   2555324   2552764  
  5760.000000   2550319   2548061   2546006   2544158   2542492  
  5750.000000   2540998   2539654   2538451   2537370   2536389  
  5740.000000   2535480   2534616   2533789   2532993   2532245  
  5730.000000   2531550   2530916   2530323   2529750   2529163  
  5720.000000   2528544   2527884   2527202   2526523   2525881  
  5710.000000   2525298   2524790   2524358   2523996   2523693  
  5700.000000   2523438   2523217   2523015   2522818   2522616  
  5690.000000   2522416   2522229   2522084   2522000   2521988  
  5680.000000   2522028   2522082   2522087   2521983   2521714  
  5670.000000   2521250   2520572   2519682   2518576   2517263  
  5660.000000   2515743   2514037   2512175   2510216   2508219  
  5650.000000   2506250   2504344   2502526   2500784   2499104  
  5640.000000   2497468   2495870   2494314   2492809   2491362  
  5630.000000   2489968   2488618   2487300   2486010   2484755  
  5620.000000   2483551   2482412   2481344   2480335   2479366  
  5610.000000   2478407   2477439   2476454   2475456   2474456  
  5600.000000   2473464   2472483   2471511   2470543   2469580  
  5590.000000   2468631   2467708   2466821   2465967   2465132  
  5580.000000   2464293   2463426   2462518   2461570   2460590  
  5570.000000   2459588   2458567   2457517   2456421   2455266  
  5560.000000   2454045   2452773   2451474   2450177   2448898  
  5550.000000   2447643   2446402   2445163   2443917   2442669  
  5540.000000   2441430   2440214   2439024   2437853   2436685  
  5530.000000   2435503   2434304   2433099   2431913   2430774  
  5520.000000   2429698   2428683   2427707   2426741   2425750  
  5510.000000   2424713   2423614   2422449   2421216   2419913  
  5500.000000   2418542   2417115   2415652   2414191   2412764  
  5490.000000   2411398   2410089   2408815   2407530   2406195  
  5480.000000   2404776   2403271   2401687   2400050   2398375  
  5470.000000   2396668   2394920   2393123   2391273   2389381  
  5460.000000   2387462   2385540   2383619   2381697   2379754  
  5450.000000   2377779   2375764   2373723   2371681   2369664  
  5440.000000   2367691   2365764   2363876   2362018   2360197  
  5430.000000   2358421   2356712   2355072   2353494   2351943  
  5420.000000   2350388   2348802   2347200   2345620   2344139  
  5410.000000   2342816   2341700   2340784   2340045   2339428  
  5400.000000   2338910   2338469   2338130   2337908   2337838  
  5390.000000   2337911   2338130   2338463   2338917   2339487  
  5380.000000   2340216   2341116   2342220   2343503   2344954  
  5370.000000   2346515   2348181   2349915   2351756   2353698  
  5360.000000   2355796   2358039   2360475   2363091   2365957  
  5350.000000   2369092   2372598   2376498   2380874   2385688  
  5340.000000   2390961   2396609   2402649   2409023   2415793  
  5330.000000   2422934   2430529   2438545   2447050   2455997  
  5320.000000   2465467   2475430   2486001   2497162   2509027  
  5310.000000   2521549   2534808   2548723   2563360   2578654  
  5300.000000   2594700   2611472   2629099   2647575   2667022  
  5290.000000   2687400   2708763   2730986   2754025   2777694  
  5280.000000   2801934   2826624   2851814   2877519   2903880  
  5270.000000   2930939   2958743   2987171   3016055   3045148  
  5260.000000   3074242   3103209   3132023   3160750   3189449  
  5250.000000   3218167   3246804   3275224   3303160   3330448  
  5240.000000   3356891   3382507   3407281   3431376   3454823  
  5230.000000   3477750   3500082   3521825   3542808   3563009  
  5220.000000   3582292   3600730   3618295   3635158   3651337  
  5210.000000   3666990   3682060   3696593   3710423   3723528  
  5200.000000   3735745   3747127   3757620   3767377   3776400  
  5190.000000   3784828   3792611   3799808   3806312   3812165  
  5180.000000   3817288   3821775   3825597   3828867   3831547  
  5170.000000   3833715   3835309   3836394   3836924   3836983  
  5160.000000   3836546   3835689   3834367   3832623   3830401  
  5150.000000   3827749   3824647   3821179   3817360   3813274  
  5140.000000   3808919   3804347   3799531   3794509   3789266  
  5130.000000   3783853   3778271   3772564   3766720   3760754  
  5120.000000   3754644   3748406   3742035   3735569   3729029  
  5110.000000   3722456   3715861   3709270   3702682   3696115  
  5100.000000   3689576   3683086   3676654   3670288   3663978  
  5090.000000   3657713   3651476   3645263   3639073   3632921  
  5080.000000   3626813   3620756   3614732   3608722   3602693  
  5070.000000   3596626   3590508   3584346   3578150   3571936  
  5060.000000   3565705   3559454   3553162   3546816   3540394  
  5050.000000   3533892   3527304   3520639   3513897   3507087  
  5040.000000   3500211   3493284   3486316   3479330   3472340  
  5030.000000   3465366   3458416   3451493   3444600   3437739  
  5020.000000   3430918   3424150   3417455   3410841   3404325  
  5010.000000   3397901   3391577   3385339   3379205   3373173  
  5000.000000   3367278   3361528   3355966   3350593   3345444  
  4990.000000   3340506   3335805   3331320   3327081   3323067  
  4980.000000   3319309   3315789   3312544   3309559   3306882  
  4970.000000   3304502   3302471   3300773   3299451   3298472  
  4960.000000   3297868   3297594   3297682   3298095   3298876  
  4950.000000   3299996   3301500   3303353   3305591   3308172  
  4940.000000   3311131   3314426   3318101   3322119   3326522  
  4930.000000   3331269   3336390   3341838   3347640   3353755  
  4920.000000   3360212   3366978   3374079   3381477   3389188  
  4910.000000   3397170   3405432   3413941   3422706   3431697  
  4900.000000   3440914   3450320   3459892   3469590   3479385  
  4890.000000   3489245   3499142   3509053   3518934   3528752  
  4880.000000   3538440   3547954   3557222   3566211   3574864  
  4870.000000   3583170   3591079   3598592   3605661   3612300  
  4860.000000   3618480   3624240   3629580   3634565   3639204  
  4850.000000   3643557   3647618   3651425   3654960   3658255  
  4840.000000   3661301   3664146   3666800   3669320   3671724  
  4830.000000   3674058   3676328   3678559   3680742   3682886  
  4820.000000   3684979   3687029   3689034   3691010   3692965  
  4810.000000   3694919   3696879   3698853   3700838   3702829  
  4800.000000   3704819   3706808   3708797   3710795   3712811  
  4790.000000   3714853   3716919   3719004   3721092   3723169  
  4780.000000   3725215   3727222   3729177   3731079   3732914  
  4770.000000   3734682   3736369   3737972   3739476   3740883  
  4760.000000   3742179   3743367   3744434   3745384   3746209  
  4750.000000   3746920   3747515   3748013   3748414   3748733  
  4740.000000   3748962   3749108   3749157   3749117   3748985  
  4730.000000   3748774   3748492   3748157   3747773   3747349  
  4720.000000   3746885   3746381   3745840   3745266   3744668  
  4710.000000   3744057   3743450   3742864   3742324   3741852  
  4700.000000   3741477   3741221   3741106   3741140   3741327  
  4690.000000   3741656   3742113   3742679   3743335   3744060  
  4680.000000   3744834   3745628   3746418   3747162   3747838  
  4670.000000   3748414   3748887   3749256   3749554   3749809  
  4660.000000   3750076   3750400   3750837   3751428   3752219  
  4650.000000   3753234   3754494   3755994   3757719   3759630  
  4640.000000   3761687   3763837   3766042   3768265   3770488  
  4630.000000   3772698   3774887   3777048   3779168   3781230  
  4620.000000   3783209   3785080   3786814   3788391   3789788  
  4610.000000   3791002   3792023   3792873   3793562   3794128  
  4600.000000   3794589   3794984   3795320   3795619   3795870  
  4590.000000   3796077   3796218   3796289   3796258   3796118  
  4580.000000   3795835   3795404   3794806   3794052   3793151  
  4570.000000   3792139   3791043   3789901   3788726   3787531  
  4560.000000   3786302   3785033   3783705   3782320   3780875  
  4550.000000   3779387   3777864   3776318   3774750   3773157  
  4540.000000   3771540   3769896   3768238   3766577   3764937  
  4530.000000   3763329   3761778   3760285   3758879   3757562  
  4520.000000   3756378   3755338   3754500   3753867   3753496  
  4510.000000   3753374   3753556   3754029   3754865   3756065  
  4500.000000   3757721   3759835   3762496   3765681   3769463  
  4490.000000   3773806   3778781   3784358   3790621   3797545  
  4480.000000   3805204   3813553   3822640   3832391   3842829  
  4470.000000   3853870   3865522   3877701   3890404   3903542  
  4460.000000   3917097   3930974   3945143   3959513   3974052  
  4450.000000   3988681   4003368   4018052   4032707   4047299  
  4440.000000   4061809   4076231   4090556   4104799   4118946  
  4430.000000   4133023   4146997   4160886   4174626   4188208  
  4420.000000   4201532   4214565   4227183   4239350   4250942  
  4410.000000   4261934   4272215   4281774   4290518   4298457  
  4400.000000   4305539   4311823   4317322   4322160   4326408  
  4390.000000   4330227   4333706   4336987   4340127   4343219  
  4380.000000   4346278   4349354   4352447   4355601   4358835  
  4370.000000   4362206   4365752   4369525   4373549   4377837  
  4360.000000   4382374   4387135   4392072   4397153   4402322  
  4350.000000   4407566   4412826   4418110   4423359   4428595  
  4340.000000   4433765   4438876   4443832   4448538   4452753  
  4330.000000   4456200   4458491   4459283   4458279   4455393  
  4320.000000   4450734   4444676   4437735   4430537   4423627  
  4310.000000   4417452   4412221   4408001   4404675   4402092  
  4300.000000   4400066   4398471   4397219   4396267   4395598  
  4290.000000   4395177   4394991   4394989   4395164   4395486  
  4280.000000   4395966   4396596   4397377   4398300   4399342  
  4270.000000   4400486   4401689   4402909   4404046   4404972  
  4260.000000   4405488   4405382   4404433   4402491   4399497  
  4250.000000   4395534   4390792   4385566   4380163   4374892  
  4240.000000   4369965   4365533   4361620   4358205   4355188  
  4230.000000   4352466   4349915   4347427   4344916   4342312  
  4220.000000   4339600   4336777   4333908   4331052   4328320  
  4210.000000   4325784   4323533   4321595   4320000   4318718  
  4200.000000   4317732   4316979   4316424   4316003   4315690  
  4190.000000   4315433   4315234   4315064   4314958   4314909  
  4180.000000   4314973   4315149   4315499   4316017   4316769  
  4170.000000   4317762   4319080   4320749   4322867   4325458  
  4160.000000   4328604   4332296   4336581   4341406   4346787  
  4150.000000   4352647   4358991   4365735   4372889   4380385  
  4140.000000   4388261   4396479   4405114   4414153   4423677  
  4130.000000   4433663   4444163   4455123   4466564   4478425  
  4120.000000   4490727   4503427   4516564   4530114   4544116  
  4110.000000   4558541   4573408   4588671   4604319   4620284  
  4100.000000   4636530   4652977   4669580   4686275   4703035  
  4090.000000   4719836   4736676   4753559   4770484   4787456  
  4080.000000   4804452   4821475   4838483   4855475   4872393  
  4070.000000   4889224   4905879   4922326   4938458   4954249  
  4060.000000   4969601   4984514   4998899   5012772   5026048  
  4050.000000   5038766   5050866   5062439   5073459   5084039  
  4040.000000   5094131   5103796   5112915   5121489   5129367  
  4030.000000   5136558   5142946   5148575   5153369   5157378  
  4020.000000   5160517   5162856   5164394   5165240   5165378  
  4010.000000   5164966   5164081   5162744   5160735   5158106  
  4000.000000   5155157  
##END= 
