##TITLE= Sample 015 By ssteindl date Dienstag, November 20 2018
##JCAMP-DX= 4.24
##DATA TYPE= INFRARED SPECTRUM
##ORIGIN= Exported PE Spectrum Data File
##OWNER= Sandra Steindl
##DATE= 18/11/20
##TIME= 14:17:00.00
##SPECTROMETER/DATA SYSTEM= PERKIN-ELMER Frontier FT-IR/NIR IR
##INSTRUMENT PARAMETERS=
  APODIZATION=stark
  DETECTOR=INGAAS
##RESOLUTION= 16.000000
##DELTAX= -2.000000
##XUNITS= 1/CM
##YUNITS= A
##XFACTOR= 1.00
##YFACTOR= 0.00000011920928955078
##FIRSTX= 10000.00
##LASTX= 4000.00
##NPOINTS= 3001
##FIRSTY= 0.211481
##MAXY= 0.624610
##MINY= 0.191594
##XYDATA= (X++(Y..Y))
 10000.000000   1774033   1771305   1770602   1774689   1783814  
  9990.000000   1796104   1809399   1821832   1831477   1836729  
  9980.000000   1837093   1833094   1825842   1816660   1807045  
  9970.000000   1798362   1791591   1787204   1785066   1784517  
  9960.000000   1784577   1784344   1783252   1781325   1779027  
  9950.000000   1777060   1775985   1775968   1776784   1777932  
  9940.000000   1779018   1779940   1781015   1782816   1785835  
  9930.000000   1790223   1795565   1801080   1805850   1809238  
  9920.000000   1811045   1811482   1810929   1809620   1807524  
  9910.000000   1804358   1799838   1793923   1786936   1779543  
  9900.000000   1772495   1766430   1761661   1758239   1756033  
  9890.000000   1754955   1754969   1756067   1758059   1760477  
  9880.000000   1762609   1763721   1763385   1761710   1759387  
  9870.000000   1757428   1756761   1757785   1760197   1763062  
  9860.000000   1765265   1765919   1764755   1762083   1758575  
  9850.000000   1754817   1751061   1747168   1742878   1738137  
  9840.000000   1733368   1729422   1727290   1727669   1730603  
  9830.000000   1735439   1741014   1746127   1749960   1752320  
  9820.000000   1753616   1754521   1755654   1757241   1759126  
  9810.000000   1760877   1762090   1762575   1762416   1761899  
  9800.000000   1761280   1760706   1760097   1759338   1758325  
  9790.000000   1757161   1756049   1755212   1754678   1754218  
  9780.000000   1753396   1751771   1749110   1745528   1741474  
  9770.000000   1737540   1734261   1731888   1730363   1729370  
  9760.000000   1728532   1727575   1726466   1725389   1724652  
  9750.000000   1724530   1725138   1726405   1728112   1729987  
  9740.000000   1731825   1733491   1734965   1736223   1737241  
  9730.000000   1737908   1738087   1737625   1736439   1734576  
  9720.000000   1732226   1729732   1727487   1725880   1725173  
  9710.000000   1725458   1726628   1728393   1730348   1732041  
  9700.000000   1733050   1733066   1731918   1729643   1726516  
  9690.000000   1723055   1719999   1718138   1718137   1720261  
  9680.000000   1724198   1729057   1733543   1736380   1736710  
  9670.000000   1734443   1730311   1725662   1722009   1720510  
  9660.000000   1721558   1724655   1728623   1732046   1733796  
  9650.000000   1733384   1731059   1727599   1723974   1720973  
  9640.000000   1719009   1718072   1717876   1718044   1718271  
  9630.000000   1718421   1718476   1718554   1718783   1719395  
  9620.000000   1720592   1722585   1725406   1728821   1732288  
  9610.000000   1734987   1736099   1735009   1731606   1726302  
  9600.000000   1719942   1713528   1707868   1703410   1700135  
  9590.000000   1697807   1696154   1695147   1694959   1695845  
  9580.000000   1697844   1700588   1703307   1704990   1704818  
  9570.000000   1702383   1697997   1692475   1686979   1682527  
  9560.000000   1679763   1678801   1679328   1680871   1683024  
  9550.000000   1685617   1688665   1692230   1696239   1700388  
  9540.000000   1704188   1707093   1708708   1708871   1707753  
  9530.000000   1705741   1703377   1701208   1699673   1699076  
  9520.000000   1699478   1700771   1702587   1704472   1705879  
  9510.000000   1706406   1705837   1704259   1701998   1699504  
  9500.000000   1697206   1695304   1693758   1692250   1690378  
  9490.000000   1687793   1684379   1680327   1676086   1672272  
  9480.000000   1669483   1668195   1668634   1670771   1674284  
  9470.000000   1678624   1683064   1686845   1689353   1690261  
  9460.000000   1689667   1687999   1685927   1684051   1682746  
  9450.000000   1681983   1681405   1680473   1678722   1676006  
  9440.000000   1672572   1669061   1666235   1664761   1664913  
  9430.000000   1666540   1669101   1671872   1674160   1675448  
  9420.000000   1675527   1674466   1672614   1670441   1668469  
  9410.000000   1667087   1666522   1666738   1667506   1668443  
  9400.000000   1669152   1669378   1669077   1668517   1668113  
  9390.000000   1668360   1669565   1671786   1674786   1678099  
  9380.000000   1681234   1683721   1685273   1685698   1684894  
  9370.000000   1682793   1679381   1674837   1669568   1664317  
  9360.000000   1659981   1657505   1657533   1660244   1665147  
  9350.000000   1671196   1676988   1681162   1682726   1681285  
  9340.000000   1677092   1670906   1663814   1656949   1651302  
  9330.000000   1647523   1645863   1646157   1647908   1650408  
  9320.000000   1652864   1654583   1655081   1654229   1652233  
  9310.000000   1649577   1646857   1644621   1643253   1642899  
  9300.000000   1643480   1644754   1646396   1648099   1649607  
  9290.000000   1650728   1651318   1651248   1650427   1648760  
  9280.000000   1646222   1642811   1638655   1633975   1629150  
  9270.000000   1624644   1620964   1618579   1617813   1618774  
  9260.000000   1621273   1624868   1628963   1632933   1636295  
  9250.000000   1638763   1640320   1641128   1641490   1641702  
  9240.000000   1642009   1642564   1643437   1644664   1646228  
  9230.000000   1648081   1650085   1652044   1653689   1654755  
  9220.000000   1654995   1654247   1652450   1649672   1646118  
  9210.000000   1642093   1637980   1634201   1631168   1629215  
  9200.000000   1628475   1628873   1630077   1631645   1633100  
  9190.000000   1634120   1634603   1634714   1634781   1635132  
  9180.000000   1635926   1637062   1638229   1638999   1639023  
  9170.000000   1638145   1636489   1634378   1632190   1630208  
  9160.000000   1628506   1626990   1625454   1623747   1621853  
  9150.000000   1619935   1618268   1617115   1616599   1616628  
  9140.000000   1616921   1617092   1616821   1615928   1614495  
  9130.000000   1612778   1611179   1610049   1609619   1609911  
  9120.000000   1610780   1611974   1613241   1614418   1615475  
  9110.000000   1616518   1617707   1619193   1621014   1623086  
  9100.000000   1625209   1627138   1628665   1629658   1630090  
  9090.000000   1629997   1629451   1628502   1627175   1625481  
  9080.000000   1623471   1621263   1619035   1617012   1615370  
  9070.000000   1614232   1613586   1613371   1613480   1613867  
  9060.000000   1614541   1615531   1616830   1618305   1619734  
  9050.000000   1620762   1621069   1620429   1618889   1616717  
  9040.000000   1614370   1612354   1611110   1610916   1611817  
  9030.000000   1613700   1616330   1619450   1622775   1626034  
  9020.000000   1628957   1631296   1632834   1633433   1633083  
  9010.000000   1631922   1630229   1628341   1626587   1625201  
  9000.000000   1624284   1623812   1623621   1623513   1623256  
  8990.000000   1622708   1621793   1620582   1619241   1618014  
  8980.000000   1617126   1616702   1616708   1616922   1617022  
  8970.000000   1616668   1615674   1614050   1612048   1610050  
  8960.000000   1608449   1607488   1607207   1607435   1607931  
  8950.000000   1608476   1608996   1609547   1610263   1611247  
  8940.000000   1612484   1613840   1615124   1616215   1617149  
  8930.000000   1618118   1619379   1621103   1623269   1625580  
  8920.000000   1627568   1628725   1628742   1627586   1625537  
  8910.000000   1623067   1620687   1618794   1617575   1617055  
  8900.000000   1617157   1617831   1619059   1620874   1623258  
  8890.000000   1626083   1629055   1631786   1633887   1635111  
  8880.000000   1635418   1634980   1634128   1633236   1632614  
  8870.000000   1632436   1632710   1633313   1634018   1634577  
  8860.000000   1634744   1634344   1633287   1631618   1629508  
  8850.000000   1627230   1625073   1623273   1621938   1621029  
  8840.000000   1620406   1619893   1619403   1618950   1618673  
  8830.000000   1618727   1619212   1620073   1621120   1622069  
  8820.000000   1622700   1622935   1622929   1623008   1623575  
  8810.000000   1624935   1627184   1630150   1633451   1636609  
  8800.000000   1639199   1640938   1641767   1641803   1641312  
  8790.000000   1640597   1639930   1639504   1639408   1639648  
  8780.000000   1640149   1640819   1641567   1642366   1643229  
  8770.000000   1644229   1645419   1646811   1648316   1649748  
  8760.000000   1650882   1651503   1651533   1651030   1650218  
  8750.000000   1649380   1648785   1648586   1648790   1649287  
  8740.000000   1649932   1650640   1651441   1652467   1653876  
  8730.000000   1655760   1658069   1660594   1663030   1665080  
  8720.000000   1666574   1667523   1668109   1668595   1669222  
  8710.000000   1670117   1671255   1672499   1673667   1674614  
  8700.000000   1675290   1675728   1676012   1676213   1676354  
  8690.000000   1676398   1676297   1676035   1675683   1675396  
  8680.000000   1675384   1675851   1676932   1678646   1680895  
  8670.000000   1683501   1686265   1689001   1691576   1693892  
  8660.000000   1695903   1697576   1698914   1699937   1700725  
  8650.000000   1701399   1702126   1703071   1704351   1705993  
  8640.000000   1707916   1709966   1711943   1713692   1715126  
  8630.000000   1716272   1717234   1718157   1719161   1720302  
  8620.000000   1721547   1722814   1723985   1724986   1725785  
  8610.000000   1726439   1727049   1727746   1728628   1729727  
  8600.000000   1730994   1732278   1733377   1734062   1734182  
  8590.000000   1733680   1732658   1731359   1730134   1729361  
  8580.000000   1729328   1730197   1731953   1734443   1737405  
  8570.000000   1740566   1743692   1746612   1749212   1751389  
  8560.000000   1753062   1754139   1754588   1754440   1753864  
  8550.000000   1753115   1752492   1752248   1752518   1753295  
  8540.000000   1754441   1755774   1757143   1758488   1759846  
  8530.000000   1761287   1762853   1764494   1766072   1767417  
  8520.000000   1768418   1769108   1769685   1770466   1771771  
  8510.000000   1773799   1776528   1779718   1782965   1785828  
  8500.000000   1787949   1789141   1789422   1788962   1788027  
  8490.000000   1786885   1785771   1784853   1784236   1783980  
  8480.000000   1784102   1784593   1785408   1786493   1787785  
  8470.000000   1789239   1790818   1792500   1794257   1796036  
  8460.000000   1797775   1799398   1800874   1802209   1803468  
  8450.000000   1804737   1806087   1807537   1809021   1810426  
  8440.000000   1811610   1812500   1813100   1813524   1813933  
  8430.000000   1814485   1815254   1816210   1817214   1818070  
  8420.000000   1818591   1818661   1818271   1817517   1816564  
  8410.000000   1815625   1814897   1814549   1814658   1815240  
  8400.000000   1816201   1817404   1818661   1819802   1820700  
  8390.000000   1821310   1821661   1821806   1821779   1821545  
  8380.000000   1821006   1820032   1818536   1816547   1814261  
  8370.000000   1812015   1810203   1809155   1809021   1809725  
  8360.000000   1810970   1812337   1813406   1813902   1813767  
  8350.000000   1813160   1812392   1811819   1811742   1812310  
  8340.000000   1813483   1815040   1816662   1818004   1818799  
  8330.000000   1818909   1818375   1817394   1816258   1815270  
  8320.000000   1814643   1814451   1814606   1814921   1815166  
  8310.000000   1815196   1814983   1814651   1814386   1814381  
  8300.000000   1814714   1815320   1815985   1816417   1816359  
  8290.000000   1815657   1814339   1812570   1810617   1808746  
  8280.000000   1807148   1805917   1805030   1804422   1804004  
  8270.000000   1803741   1803637   1803744   1804104   1804715  
  8260.000000   1805496   1806288   1806895   1807114   1806822  
  8250.000000   1805990   1804715   1803183   1801620   1800232  
  8240.000000   1799147   1798411   1797978   1797774   1797709  
  8230.000000   1797729   1797790   1797858   1797855   1797668  
  8220.000000   1797159   1796211   1794781   1792941   1790868  
  8210.000000   1788810   1787001   1785602   1784637   1784027  
  8200.000000   1783605   1783213   1782719   1782070   1781249  
  8190.000000   1780270   1779129   1777818   1776336   1774715  
  8180.000000   1773037   1771406   1769917   1768595   1767381  
  8170.000000   1766131   1764681   1762920   1760857   1758630  
  8160.000000   1756472   1754620   1753239   1752357   1751882  
  8150.000000   1751631   1751421   1751120   1750693   1750179  
  8140.000000   1749650   1749171   1748780   1748483   1748283  
  8130.000000   1748182   1748191   1748291   1748425   1748470  
  8120.000000   1748269   1747676   1746615   1745138   1743408  
  8110.000000   1741668   1740148   1738996   1738226   1737730  
  8100.000000   1737321   1736811   1736068   1735056   1733820  
  8090.000000   1732457   1731064   1729714   1728441   1727263  
  8080.000000   1726192   1725249   1724459   1723828   1723335  
  8070.000000   1722921   1722498   1721973   1721274   1720365  
  8060.000000   1719262   1718019   1716721   1715463   1714338  
  8050.000000   1713425   1712772   1712388   1712237   1712239  
  8040.000000   1712285   1712259   1712063   1711639   1710980  
  8030.000000   1710116   1709102   1707995   1706840   1705670  
  8020.000000   1704512   1703407   1702404   1701563   1700927  
  8010.000000   1700516   1700300   1700206   1700135   1699975  
  8000.000000   1699641   1699073   1698261   1697223   1696009  
  7990.000000   1694684   1693327   1692031   1690890   1690007  
  7980.000000   1689463   1689317   1689565   1690150   1690934  
  7970.000000   1691727   1692311   1692479   1692097   1691111  
  7960.000000   1689605   1687744   1685773   1683917   1682348  
  7950.000000   1681136   1680254   1679619   1679146   1678815  
  7940.000000   1678675   1678846   1679441   1680503   1681948  
  7930.000000   1683560   1685047   1686115   1686586   1686421  
  7920.000000   1685764   1684839   1683905   1683131   1682586  
  7910.000000   1682214   1681908   1681566   1681148   1680699  
  7900.000000   1680315   1680125   1680212   1680620   1681325  
  7890.000000   1682274   1683388   1684582   1685763   1686818  
  7880.000000   1687627   1688069   1688069   1687622   1686819  
  7870.000000   1685829   1684860   1684101   1683660   1683552  
  7860.000000   1683688   1683945   1684186   1684335   1684368  
  7850.000000   1684322   1684247   1684183   1684137   1684079  
  7840.000000   1683964   1683750   1683422   1682991   1682498  
  7830.000000   1681995   1681534   1681167   1680926   1680832  
  7820.000000   1680879   1681037   1681245   1681427   1681499  
  7810.000000   1681398   1681094   1680599   1679963   1679248  
  7800.000000   1678519   1677812   1677142   1676499   1675868  
  7790.000000   1675248   1674654   1674129   1673717   1673468  
  7780.000000   1673404   1673524   1673782   1674103   1674381  
  7770.000000   1674503   1674369   1673915   1673141   1672105  
  7760.000000   1670930   1669752   1668696   1667829   1667139  
  7750.000000   1666552   1665957   1665266   1664445   1663550  
  7740.000000   1662693   1662013   1661615   1661528   1661687  
  7730.000000   1661951   1662148   1662122   1661783   1661114  
  7720.000000   1660175   1659066   1657900   1656771   1655744  
  7710.000000   1654850   1654098   1653479   1652985   1652600  
  7700.000000   1652313   1652103   1651942   1651792   1651606  
  7690.000000   1651331   1650929   1650387   1649748   1649103  
  7680.000000   1648590   1648354   1648505   1649064   1649942  
  7670.000000   1650949   1651840   1652385   1652442   1652005  
  7660.000000   1651201   1650255   1649410   1648856   1648668  
  7650.000000   1648806   1649136   1649487   1649708   1649700  
  7640.000000   1649429   1648913   1648197   1647341   1646407  
  7630.000000   1645469   1644609   1643916   1643474   1643331  
  7620.000000   1643495   1643917   1644506   1645151   1645744  
  7610.000000   1646209   1646511   1646651   1646670   1646617  
  7600.000000   1646557   1646542   1646614   1646784   1647033  
  7590.000000   1647307   1647538   1647665   1647665   1647569  
  7580.000000   1647465   1647465   1647673   1648132   1648813  
  7570.000000   1649608   1650375   1650987   1651386   1651596  
  7560.000000   1651720   1651885   1652205   1652726   1653431  
  7550.000000   1654241   1655068   1655831   1656500   1657078  
  7540.000000   1657595   1658078   1658543   1658994   1659440  
  7530.000000   1659907   1660448   1661122   1661982   1663039  
  7520.000000   1664257   1665545   1666794   1667899   1668801  
  7510.000000   1669499   1670052   1670549   1671091   1671752  
  7500.000000   1672577   1673556   1674659   1675823   1676999  
  7490.000000   1678142   1679236   1680286   1681322   1682390  
  7480.000000   1683541   1684821   1686265   1687884   1689677  
  7470.000000   1691610   1693644   1695713   1697755   1699700  
  7460.000000   1701501   1703132   1704618   1706016   1707424  
  7450.000000   1708945   1710664   1712621   1714803   1717146  
  7440.000000   1719559   1721954   1724274   1726504   1728657  
  7430.000000   1730760   1732833   1734874   1736865   1738785  
  7420.000000   1740631   1742423   1744209   1746039   1747945  
  7410.000000   1749928   1751948   1753946   1755860   1757654  
  7400.000000   1759328   1760918   1762484   1764088   1765784  
  7390.000000   1767598   1769532   1771562   1773644   1775720  
  7380.000000   1777725   1779605   1781331   1782921   1784439  
  7370.000000   1785983   1787662   1789554   1791678   1793973  
  7360.000000   1796316   1798555   1800559   1802259   1803673  
  7350.000000   1804897   1806076   1807354   1808833   1810548  
  7340.000000   1812464   1814508   1816586   1818626   1820585  
  7330.000000   1822456   1824251   1826000   1827728   1829456  
  7320.000000   1831186   1832906   1834589   1836207   1837730  
  7310.000000   1839146   1840453   1841670   1842816   1843908  
  7300.000000   1844947   1845926   1846831   1847665   1848449  
  7290.000000   1849231   1850066   1851000   1852045   1853181  
  7280.000000   1854361   1855531   1856656   1857734   1858795  
  7270.000000   1859888   1861052   1862302   1863621   1864971  
  7260.000000   1866316   1867638   1868948   1870267   1871619  
  7250.000000   1873001   1874384   1875711   1876938   1878034  
  7240.000000   1879024   1879958   1880924   1881987   1883206  
  7230.000000   1884593   1886153   1887872   1889756   1891803  
  7220.000000   1894021   1896393   1898892   1901466   1904080  
  7210.000000   1906701   1909348   1912043   1914836   1917739  
  7200.000000   1920750   1923813   1926881   1929901   1932879  
  7190.000000   1935848   1938887   1942058   1945407   1948910  
  7180.000000   1952511   1956113   1959646   1963065   1966391  
  7170.000000   1969672   1972996   1976425   1980015   1983769  
  7160.000000   1987680   1991710   1995846   2000069   2004397  
  7150.000000   2008841   2013435   2018188   2023112   2028177  
  7140.000000   2033353   2038571   2043783   2048936   2054034  
  7130.000000   2059101   2064219   2069468   2074943   2080682  
  7120.000000   2086695   2092919   2099276   2105669   2112045  
  7110.000000   2118372   2124677   2130992   2137368   2143824  
  7100.000000   2150376   2157008   2163713   2170467   2177261  
  7090.000000   2184065   2190857   2197596   2204263   2210849  
  7080.000000   2217393   2223953   2230613   2237434   2244444  
  7070.000000   2251610   2258858   2266089   2273228   2280237  
  7060.000000   2287142   2294004   2300903   2307901   2315024  
  7050.000000   2322254   2329545   2336845   2344116   2351355  
  7040.000000   2358576   2365810   2373075   2380367   2387642  
  7030.000000   2394832   2401847   2408606   2415049   2421165  
  7020.000000   2426986   2432601   2438111   2443634   2449240  
  7010.000000   2454972   2460803   2466686   2472539   2478310  
  7000.000000   2483955   2489486   2494918   2500293   2505623  
  6990.000000   2510916   2516144   2521280   2526280   2531124  
  6980.000000   2535783   2540259   2544549   2548676   2552660  
  6970.000000   2556549   2560374   2564178   2567952   2571676  
  6960.000000   2575280   2578702   2581879   2584807   2587515  
  6950.000000   2590092   2592621   2595180   2597787   2600424  
  6940.000000   2603022   2605523   2607875   2610082   2612161  
  6930.000000   2614165   2616130   2618084   2620023   2621936  
  6920.000000   2623800   2625602   2627324   2628954   2630474  
  6910.000000   2631874   2633150   2634327   2635449   2636583  
  6900.000000   2637789   2639111   2640547   2642069   2643617  
  6890.000000   2645138   2646593   2647969   2649265   2650488  
  6880.000000   2651632   2652685   2653640   2654509   2655332  
  6870.000000   2656172   2657087   2658111   2659224   2660367  
  6860.000000   2661446   2662388   2663153   2663763   2664283  
  6850.000000   2664792   2665346   2665957   2666589   2667183  
  6840.000000   2667680   2668060   2668338   2668567   2668805  
  6830.000000   2669104   2669480   2669929   2670424   2670940  
  6820.000000   2671453   2671948   2672413   2672835   2673198  
  6810.000000   2673493   2673713   2673877   2674006   2674133  
  6800.000000   2674279   2674463   2674679   2674922   2675173  
  6790.000000   2675416   2675624   2675764   2675791   2675659  
  6780.000000   2675331   2674799   2674091   2673274   2672430  
  6770.000000   2671645   2670970   2670425   2669987   2669616  
  6760.000000   2669269   2668921   2668559   2668190   2667814  
  6750.000000   2667426   2667004   2666524   2665965   2665326  
  6740.000000   2664624   2663891   2663166   2662484   2661871  
  6730.000000   2661342   2660896   2660528   2660214   2659927  
  6720.000000   2659631   2659292   2658883   2658394   2657830  
  6710.000000   2657205   2656530   2655806   2655017   2654146  
  6700.000000   2653180   2652137   2651060   2650020   2649085  
  6690.000000   2648311   2647702   2647227   2646815   2646387  
  6680.000000   2645869   2645220   2644415   2643456   2642350  
  6670.000000   2641105   2639734   2638257   2636707   2635132  
  6660.000000   2633577   2632078   2630643   2629261   2627898  
  6650.000000   2626526   2625129   2623717   2622314   2620948  
  6640.000000   2619634   2618368   2617126   2615882   2614615  
  6630.000000   2613322   2612015   2610709   2609410   2608110  
  6620.000000   2606779   2605386   2603898   2602307   2600621  
  6610.000000   2598875   2597112   2595382   2593722   2592162  
  6600.000000   2590709   2589351   2588054   2586768   2585434  
  6590.000000   2584003   2582447   2580772   2579014   2577232  
  6580.000000   2575489   2573831   2572280   2570832   2569463  
  6570.000000   2568148   2566867   2565608   2564359   2563106  
  6560.000000   2561823   2560480   2559050   2557522   2555908  
  6550.000000   2554238   2552558   2550903   2549302   2547764  
  6540.000000   2546290   2544877   2543522   2542223   2540968  
  6530.000000   2539740   2538512   2537262   2535986   2534705  
  6520.000000   2533465   2532312   2531279   2530361   2529512  
  6510.000000   2528663   2527748   2526732   2525633   2524509  
  6500.000000   2523440   2522486   2521669   2520959   2520293  
  6490.000000   2519601   2518834   2517973   2517035   2516043  
  6480.000000   2515016   2513955   2512852   2511704   2510532  
  6470.000000   2509388   2508335   2507431   2506698   2506112  
  6460.000000   2505606   2505099   2504519   2503830   2503038  
  6450.000000   2502177   2501291   2500407   2499528   2498637  
  6440.000000   2497710   2496730   2495703   2494650   2493605  
  6430.000000   2492600   2491661   2490800   2490022   2489320  
  6420.000000   2488687   2488107   2487566   2487040   2486518  
  6410.000000   2485992   2485476   2484992   2484568   2484222  
  6400.000000   2483953   2483738   2483538   2483311   2483031  
  6390.000000   2482694   2482318   2481936   2481578   2481268  
  6380.000000   2481008   2480786   2480577   2480354   2480092  
  6370.000000   2479768   2479365   2478872   2478290   2477632  
  6360.000000   2476924   2476205   2475513   2474876   2474305  
  6350.000000   2473794   2473319   2472855   2472380   2471879  
  6340.000000   2471341   2470761   2470130   2469445   2468707  
  6330.000000   2467933   2467152   2466406   2465731   2465148  
  6320.000000   2464645   2464185   2463703   2463136   2462431  
  6310.000000   2461571   2460559   2459431   2458226   2456987  
  6300.000000   2455741   2454506   2453281   2452061   2450823  
  6290.000000   2449550   2448216   2446814   2445342   2443826  
  6280.000000   2442297   2440797   2439348   2437958   2436597  
  6270.000000   2435222   2433781   2432241   2430590   2428852  
  6260.000000   2427062   2425266   2423488   2421732   2419977  
  6250.000000   2418196   2416357   2414446   2412463   2410427  
  6240.000000   2408362   2406301   2404273   2402307   2400418  
  6230.000000   2398615   2396881   2395188   2393491   2391748  
  6220.000000   2389930   2388035   2386085   2384123   2382191  
  6210.000000   2380315   2378497   2376711   2374921   2373093  
  6200.000000   2371215   2369295   2367363   2365447   2363571  
  6190.000000   2361740   2359951   2358192   2356456   2354744  
  6180.000000   2353062   2351418   2349813   2348243   2346704  
  6170.000000   2345194   2343718   2342285   2340903   2339568  
  6160.000000   2338264   2336958   2335618   2334216   2332745  
  6150.000000   2331213   2329643   2328060   2326484   2324926  
  6140.000000   2323391   2321884   2320417   2319002   2317650  
  6130.000000   2316360   2315115   2313887   2312645   2311366  
  6120.000000   2310053   2308722   2307410   2306146   2304956  
  6110.000000   2303839   2302786   2301772   2300784   2299809  
  6100.000000   2298853   2297918   2297013   2296136   2295290  
  6090.000000   2294468   2293680   2292931   2292245   2291634  
  6080.000000   2291118   2290698   2290378   2290147   2290001  
  6070.000000   2289919   2289894   2289903   2289940   2289991  
  6060.000000   2290070   2290185   2290372   2290648   2291039  
  6050.000000   2291536   2292134   2292799   2293520   2294285  
  6040.000000   2295115   2296028   2297062   2298228   2299535  
  6030.000000   2300959   2302482   2304074   2305727   2307431  
  6020.000000   2309195   2311011   2312876   2314764   2316661  
  6010.000000   2318541   2320406   2322252   2324102   2325963  
  6000.000000   2327852   2329768   2331721   2333710   2335754  
  5990.000000   2337862   2340056   2342339   2344723   2347203  
  5980.000000   2349789   2352489   2355326   2358310   2361448  
  5970.000000   2364711   2368056   2371410   2374716   2377923  
  5960.000000   2381032   2384061   2387070   2390107   2393219  
  5950.000000   2396419   2399707   2403062   2406471   2409923  
  5940.000000   2413421   2416970   2420577   2424238   2427944  
  5930.000000   2431681   2435435   2439195   2442948   2446677  
  5920.000000   2450358   2453964   2457470   2460863   2464144  
  5910.000000   2467329   2470436   2473482   2476463   2479371  
  5900.000000   2482187   2484910   2487547   2490142   2492737  
  5890.000000   2495389   2498124   2500952   2503846   2506771  
  5880.000000   2509674   2512513   2515246   2517848   2520298  
  5870.000000   2522589   2524723   2526720   2528617   2530459  
  5860.000000   2532297   2534168   2536095   2538087   2540143  
  5850.000000   2542266   2544467   2546765   2549174   2551697  
  5840.000000   2554312   2556981   2559654   2562297   2564893  
  5830.000000   2567458   2570018   2572602   2575219   2577849  
  5820.000000   2580445   2582958   2585337   2587565   2589636  
  5810.000000   2591578   2593408   2595158   2596828   2598435  
  5800.000000   2599969   2601451   2602871   2604253   2605576  
  5790.000000   2606842   2608012   2609070   2609964   2610666  
  5780.000000   2611106   2611228   2610949   2610215   2608987  
  5770.000000   2607299   2605227   2602919   2600522   2598190  
  5760.000000   2596009   2594025   2592216   2590548   2588979  
  5750.000000   2587500   2586117   2584858   2583740   2582759  
  5740.000000   2581896   2581112   2580382   2579685   2579029  
  5730.000000   2578419   2577867   2577362   2576893   2576431  
  5720.000000   2575971   2575509   2575068   2574662   2574310  
  5710.000000   2574002   2573726   2573460   2573200   2572956  
  5700.000000   2572758   2572637   2572610   2572671   2572786  
  5690.000000   2572911   2573001   2573035   2573008   2572941  
  5680.000000   2572845   2572732   2572586   2572382   2572075  
  5670.000000   2571633   2571021   2570225   2569226   2568028  
  5660.000000   2566629   2565055   2563338   2561534   2559696  
  5650.000000   2557879   2556112   2554410   2552764   2551164  
  5640.000000   2549599   2548075   2546605   2545201   2543867  
  5630.000000   2542592   2541356   2540140   2538940   2537768  
  5620.000000   2536651   2535613   2534669   2533805   2532992  
  5610.000000   2532189   2531364   2530500   2529604   2528694  
  5600.000000   2527789   2526900   2526024   2525152   2524272  
  5590.000000   2523384   2522492   2521604   2520720   2519832  
  5580.000000   2518921   2517970   2516967   2515918   2514838  
  5570.000000   2513751   2512666   2511581   2510478   2509335  
  5560.000000   2508135   2506880   2505584   2504273   2502969  
  5550.000000   2501684   2500413   2499146   2497868   2496576  
  5540.000000   2495276   2493982   2492708   2491464   2490250  
  5530.000000   2489061   2487892   2486741   2485607   2484490  
  5520.000000   2483384   2482277   2481158   2480016   2478852  
  5510.000000   2477676   2476500   2475336   2474183   2473035  
  5500.000000   2471873   2470690   2469482   2468264   2467045  
  5490.000000   2465833   2464611   2463352   2462013   2460567  
  5480.000000   2459005   2457351   2455643   2453930   2452240  
  5470.000000   2450585   2448943   2447291   2445597   2443852  
  5460.000000   2442054   2440216   2438339   2436424   2434460  
  5450.000000   2432441   2430372   2428278   2426196   2424163  
  5440.000000   2422207   2420334   2418537   2416799   2415111  
  5430.000000   2413464   2411859   2410285   2408727   2407150  
  5420.000000   2405537   2403876   2402204   2400576   2399080  
  5410.000000   2397777   2396711   2395861   2395191   2394637  
  5400.000000   2394170   2393768   2393459   2393259   2393203  
  5390.000000   2393280   2393484   2393777   2394162   2394634  
  5380.000000   2395240   2396002   2396965   2398116   2399453  
  5370.000000   2400923   2402520   2404211   2406031   2407981  
  5360.000000   2410118   2412439   2414994   2417766   2420818  
  5350.000000   2424146   2427831   2431871   2436327   2441162  
  5340.000000   2446408   2452008   2458017   2464405   2471258  
  5330.000000   2478550   2486348   2494585   2503296   2512402  
  5320.000000   2521968   2531965   2542523   2553648   2565480  
  5310.000000   2577993   2591280   2605265   2620012   2635449  
  5300.000000   2651668   2668636   2686476   2705176   2724852  
  5290.000000   2745459   2767050   2789507   2812795   2836740  
  5280.000000   2861296   2886344   2911929   2938053   2964841  
  5270.000000   2992316   3020506   3049286   3078488   3107870  
  5260.000000   3137238   3166474   3195561   3224573   3253573  
  5250.000000   3282604   3311562   3340303   3368546   3396115  
  5240.000000   3422803   3448627   3473573   3497818   3521406  
  5230.000000   3544480   3566971   3588891   3610058   3630443  
  5220.000000   3649898   3668495   3686205   3703206   3719516  
  5210.000000   3735293   3750470   3765077   3778931   3792001  
  5200.000000   3804120   3815352   3825661   3835219   3844047  
  5190.000000   3852298   3859924   3866983   3873361   3879089  
  5180.000000   3884075   3888400   3892020   3895033   3897393  
  5170.000000   3899176   3900327   3900927   3900956   3900523  
  5160.000000   3899626   3898360   3896683   3894637   3892155  
  5150.000000   3889273   3885955   3882277   3878240   3873920  
  5140.000000   3869304   3864434   3859279   3853876   3848216  
  5130.000000   3842365   3836341   3830207   3823967   3817649  
  5120.000000   3811229   3804720   3798108   3791418   3784655  
  5110.000000   3777846   3770989   3764095   3757158   3750193  
  5100.000000   3743213   3736257   3729351   3722528   3715792  
  5090.000000   3709138   3702542   3695982   3689436   3682898  
  5080.000000   3676363   3669832   3663299   3656753   3650176  
  5070.000000   3643558   3636887   3630172   3623421   3616656  
  5060.000000   3609886   3603124   3596369   3589623   3582880  
  5050.000000   3576145   3569411   3562677   3555928   3549146  
  5040.000000   3542305   3535385   3528372   3521268   3514092  
  5030.000000   3506874   3499650   3492450   3485302   3478217  
  5020.000000   3471206   3464267   3457411   3450638   3443972  
  5010.000000   3437420   3431008   3424736   3418625   3412662  
  5000.000000   3406862   3401209   3395728   3390413   3385302  
  4990.000000   3380399   3375748   3371345   3367226   3363370  
  4980.000000   3359801   3356485   3353447   3350658   3348156  
  4970.000000   3345922   3344008   3342397   3341140   3340213  
  4960.000000   3339656   3339434   3339585   3340073   3340939  
  4950.000000   3342152   3343754   3345707   3348045   3350718  
  4940.000000   3353751   3357095   3360777   3364757   3369078  
  4930.000000   3373712   3378708   3384042   3389761   3395830  
  4920.000000   3402280   3409063   3416191   3423610   3431327  
  4910.000000   3439299   3447544   3456038   3464805   3473827  
  4900.000000   3483107   3492611   3502315   3512170   3522137  
  4890.000000   3532173   3542240   3552306   3562324   3572257  
  4880.000000   3582042   3591633   3600956   3609974   3618624  
  4870.000000   3626894   3634743   3642190   3649217   3655867  
  4860.000000   3662137   3668079   3673688   3679005   3684009  
  4850.000000   3688729   3693138   3697266   3701100   3704688  
  4840.000000   3708039   3711214   3714231   3717151   3719990  
  4830.000000   3722794   3725567   3728330   3731064   3733762  
  4820.000000   3736390   3738938   3741388   3743755   3746059  
  4810.000000   3748338   3750623   3752939   3755287   3757655  
  4800.000000   3760014   3762342   3764614   3766829   3768987  
  4790.000000   3771108   3773203   3775292   3777380   3779482  
  4780.000000   3781596   3783728   3785867   3788004   3790103  
  4770.000000   3792136   3794058   3795845   3797473   3798954  
  4760.000000   3800296   3801534   3802684   3803767   3804774  
  4750.000000   3805700   3806513   3807202   3807739   3808128  
  4740.000000   3808362   3808465   3808444   3808328   3808124  
  4730.000000   3807854   3807513   3807105   3806616   3806040  
  4720.000000   3805367   3804598   3803739   3802808   3801829  
  4710.000000   3800832   3799849   3798910   3798044   3797277  
  4700.000000   3796631   3796120   3795751   3795522   3795426  
  4690.000000   3795448   3795574   3795788   3796077   3796418  
  4680.000000   3796793   3797163   3797498   3797755   3797914  
  4670.000000   3797958   3797910   3797796   3797672   3797582  
  4660.000000   3797576   3797676   3797902   3798251   3798730  
  4650.000000   3799336   3800082   3800975   3802031   3803249  
  4640.000000   3804628   3806148   3807791   3809530   3811344  
  4630.000000   3813210   3815106   3817011   3818903   3820757  
  4620.000000   3822543   3824234   3825798   3827210   3828439  
  4610.000000   3829469   3830286   3830901   3831329   3831616  
  4600.000000   3831799   3831938   3832061   3832205   3832362  
  4590.000000   3832534   3832685   3832795   3832823   3832754  
  4580.000000   3832558   3832231   3831756   3831141   3830388  
  4570.000000   3829517   3828541   3827487   3826367   3825197  
  4560.000000   3823975   3822707   3821384   3820011   3818588  
  4550.000000   3817126   3815635   3814124   3812599   3811065  
  4540.000000   3809525   3807981   3806447   3804930   3803455  
  4530.000000   3802027   3800675   3799397   3798224   3797154  
  4520.000000   3796232   3795460   3794897   3794541   3794450  
  4510.000000   3794609   3795077   3795836   3796965   3798459  
  4500.000000   3800421   3802856   3805868   3809451   3813693  
  4490.000000   3818570   3824160   3830430   3837455   3845192  
  4480.000000   3853697   3862904   3872837   3883407   3894613  
  4470.000000   3906357   3918632   3931344   3944485   3957964  
  4460.000000   3971767   3985808   4000068   4014468   4028987  
  4450.000000   4043564   4058180   4072800   4087412   4102001  
  4440.000000   4116554   4131069   4145518   4159902   4174177  
  4430.000000   4188350   4202372   4216256   4229940   4243427  
  4420.000000   4256621   4269495   4281916   4293834   4305105  
  4410.000000   4315688   4325464   4334425   4342499   4349725  
  4400.000000   4356081   4361658   4366483   4370685   4374324  
  4390.000000   4377543   4380412   4383059   4385539   4387952  
  4380.000000   4390332   4392747   4395218   4397799   4400516  
  4370.000000   4403416   4406533   4409904   4413546   4417467  
  4360.000000   4421654   4426088   4430734   4435569   4440548  
  4350.000000   4445658   4450840   4456078   4461298   4466481  
  4340.000000   4471552   4476487   4481188   4485570   4489436  
  4330.000000   4492569   4494662   4495452   4494712   4492396  
  4320.000000   4488614   4483702   4478102   4472348   4466886  
  4310.000000   4462080   4458081   4454924   4452489   4450640  
  4300.000000   4449210   4448095   4447214   4446526   4446003  
  4290.000000   4445608   4445323   4445116   4444998   4444978  
  4280.000000   4445093   4445367   4445806   4446404   4447117  
  4270.000000   4447912   4448730   4449528   4450220   4450709  
  4260.000000   4450835   4450423   4449280   4447269   4444324  
  4250.000000   4440507   4435975   4430992   4425835   4420790  
  4240.000000   4416053   4411764   4407941   4404558   4401516  
  4230.000000   4398717   4396048   4393418   4390755   4388006  
  4220.000000   4385158   4382208   4379209   4376205   4373294  
  4210.000000   4370539   4368028   4365795   4363883   4362277  
  4200.000000   4360976   4359935   4359135   4358527   4358097  
  4190.000000   4357796   4357628   4357550   4357582   4357691  
  4180.000000   4357914   4358232   4358698   4359305   4360129  
  4170.000000   4361189   4362583   4364351   4366602   4369362  
  4160.000000   4372712   4376632   4381151   4386196   4391763  
  4150.000000   4397763   4404200   4411005   4418217   4425798  
  4140.000000   4433820   4442266   4451210   4460627   4470568  
  4130.000000   4480975   4491869   4503176   4514906   4527001  
  4120.000000   4539492   4552347   4565613   4579272   4593365  
  4110.000000   4607864   4622792   4638104   4653802   4669826  
  4100.000000   4686157   4702727   4719508   4736445   4753521  
  4090.000000   4770709   4788004   4805397   4822882   4840457  
  4080.000000   4858106   4875837   4893623   4911466   4929304  
  4070.000000   4947101   4964741   4982158   4999222   5015896  
  4060.000000   5032091   5047830   5063046   5077773   5091925  
  4050.000000   5105526   5118487   5130867   5142618   5153840  
  4040.000000   5164483   5174620   5184139   5193061   5201242  
  4030.000000   5208713   5215368   5221272   5226354   5230668  
  4020.000000   5234108   5236723   5238473   5239444   5239606  
  4010.000000   5239124   5238092   5236571   5234387   5231617  
  4000.000000   5228545  
##END= 
