##TITLE= Sample 004 By ssteindl date Dienstag, November 20 2018
##JCAMP-DX= 4.24
##DATA TYPE= INFRARED SPECTRUM
##ORIGIN= Exported PE Spectrum Data File
##OWNER= Sandra Steindl
##DATE= 18/11/20
##TIME= 13:58:14.00
##SPECTROMETER/DATA SYSTEM= PERKIN-ELMER Frontier FT-IR/NIR IR
##INSTRUMENT PARAMETERS=
  APODIZATION=stark
  DETECTOR=INGAAS
##RESOLUTION= 16.000000
##DELTAX= -2.000000
##XUNITS= 1/CM
##YUNITS= A
##XFACTOR= 1.00
##YFACTOR= 0.00000011920928955078
##FIRSTX= 10000.00
##LASTX= 4000.00
##NPOINTS= 3001
##FIRSTY= 0.217402
##MAXY= 0.587518
##MINY= 0.193043
##XYDATA= (X++(Y..Y))
 10000.000000   1823697   1829353   1834156   1836823   1836898  
  9990.000000   1834810   1831282   1827264   1823906   1822429  
  9980.000000   1823459   1827080   1832707   1839495   1846322  
  9970.000000   1852266   1856681   1859333   1860317   1859855  
  9960.000000   1858201   1855385   1851337   1845837   1838802  
  9950.000000   1830383   1821115   1811928   1803972   1798488  
  9940.000000   1796412   1798278   1803907   1812491   1822635  
  9930.000000   1832667   1841032   1846596   1848973   1848456  
  9920.000000   1845945   1842525   1839220   1836690   1835228  
  9910.000000   1834823   1835318   1836569   1838399   1840662  
  9900.000000   1843013   1845029   1846112   1845765   1843704  
  9890.000000   1840032   1835275   1830167   1825486   1821701  
  9880.000000   1818903   1816788   1814849   1812643   1809966  
  9870.000000   1807012   1804268   1802405   1802004   1803388  
  9860.000000   1806492   1810830   1815642   1820001   1823102  
  9850.000000   1824376   1823658   1821177   1817511   1813448  
  9840.000000   1809836   1807388   1806560   1807425   1809682  
  9830.000000   1812707   1815673   1817765   1818285   1816911  
  9820.000000   1813709   1809252   1804477   1800508   1798367  
  9810.000000   1798621   1801217   1805348   1809746   1812945  
  9800.000000   1813811   1811818   1807215   1800936   1794274  
  9790.000000   1788594   1784929   1783911   1785653   1789933  
  9780.000000   1796223   1803832   1811846   1819220   1824822  
  9770.000000   1827651   1827091   1823062   1816175   1807480  
  9760.000000   1798320   1789840   1782808   1777441   1773505  
  9750.000000   1770608   1768362   1766682   1765661   1765592  
  9740.000000   1766674   1768958   1772235   1776098   1780018  
  9730.000000   1783417   1785796   1786729   1786062   1783865  
  9720.000000   1780622   1777038   1773968   1772070   1771560  
  9710.000000   1772069   1772708   1772442   1770512   1766889  
  9700.000000   1762351   1758313   1756240   1757092   1760848  
  9690.000000   1766472   1772299   1776614   1778344   1777298  
  9680.000000   1774224   1770332   1766846   1764533   1763546  
  9670.000000   1763566   1764065   1764680   1765315   1766185  
  9660.000000   1767588   1769756   1772667   1776058   1779468  
  9650.000000   1782354   1784200   1784538   1783074   1779686  
  9640.000000   1774610   1768436   1762128   1756821   1753509  
  9630.000000   1752729   1754318   1757481   1761019   1763823  
  9620.000000   1765206   1765176   1764279   1763370   1763162  
  9610.000000   1763987   1765683   1767733   1769565   1770749  
  9600.000000   1771167   1770882   1770010   1768510   1766192  
  9590.000000   1762816   1758317   1752955   1747323   1742194  
  9580.000000   1738257   1735932   1735235   1735899   1737472  
  9570.000000   1739568   1741919   1744398   1746924   1749326  
  9560.000000   1751360   1752688   1753081   1752430   1750884  
  9550.000000   1748716   1746308   1743979   1741972   1740442  
  9540.000000   1739469   1739144   1739492   1740509   1742048  
  9530.000000   1743864   1745633   1747072   1748023   1748484  
  9520.000000   1748562   1748360   1747904   1747107   1745858  
  9510.000000   1744132   1742081   1740065   1738508   1737771  
  9500.000000   1737940   1738809   1739926   1740791   1741032  
  9490.000000   1740525   1739363   1737747   1735834   1733670  
  9480.000000   1731233   1728542   1725763   1723238   1721376  
  9470.000000   1720496   1720643   1721534   1722634   1723354  
  9460.000000   1723277   1722292   1720616   1718619   1716670  
  9450.000000   1714933   1713388   1711885   1710348   1708867  
  9440.000000   1707706   1707167   1707409   1708358   1709695  
  9430.000000   1711038   1712085   1712761   1713206   1713653  
  9420.000000   1714295   1715093   1715812   1716047   1715483  
  9410.000000   1713984   1711724   1709053   1706386   1704045  
  9400.000000   1702200   1700943   1700315   1700467   1701519  
  9390.000000   1703609   1706646   1710370   1714301   1717907  
  9380.000000   1720764   1722617   1723448   1723250   1721981  
  9370.000000   1719377   1715130   1709051   1701353   1692786  
  9360.000000   1684516   1677940   1674203   1673963   1677058  
  9350.000000   1682665   1689448   1696025   1701251   1704440  
  9340.000000   1705381   1704198   1701286   1697117   1692298  
  9330.000000   1687423   1683129   1679893   1677987   1677337  
  9320.000000   1677526   1677927   1677887   1677032   1675381  
  9310.000000   1673352   1671566   1670567   1670637   1671656  
  9300.000000   1673203   1674710   1675742   1676176   1676267  
  9290.000000   1676523   1677478   1679488   1682561   1686362  
  9280.000000   1690267   1693571   1695694   1696349   1695618  
  9270.000000   1693872   1691635   1689423   1687595   1686268  
  9260.000000   1685310   1684436   1683353   1681902   1680103  
  9250.000000   1678178   1676429   1675181   1674612   1674768  
  9240.000000   1675528   1676702   1678091   1679536   1680925  
  9230.000000   1682158   1683130   1683718   1683819   1683376  
  9220.000000   1682437   1681127   1679644   1678157   1676772  
  9210.000000   1675507   1674306   1673119   1671903   1670708  
  9200.000000   1669629   1668804   1668341   1668300   1668678  
  9190.000000   1669398   1670299   1671140   1671617   1671420  
  9180.000000   1670331   1668297   1665546   1662552   1659996  
  9170.000000   1658471   1658307   1659380   1661154   1662804  
  9160.000000   1663516   1662821   1660817   1658167   1655838  
  9150.000000   1654800   1655680   1658567   1662983   1668067  
  9140.000000   1672879   1676655   1678980   1679780   1679271  
  9130.000000   1677818   1675845   1673725   1671773   1670201  
  9120.000000   1669148   1668603   1668429   1668402   1668297  
  9110.000000   1668015   1667564   1667156   1667035   1667449  
  9100.000000   1668467   1670004   1671870   1673837   1675759  
  9090.000000   1677536   1679125   1680383   1681025   1680657  
  9080.000000   1678932   1675762   1671460   1666776   1662746  
  9070.000000   1660383   1660328   1662612   1666607   1671228  
  9060.000000   1675234   1677628   1677896   1676142   1673001  
  9050.000000   1669425   1666398   1664689   1664680   1666318  
  9040.000000   1669141   1672416   1675297   1677053   1677231  
  9030.000000   1675796   1673100   1669785   1666544   1663898  
  9020.000000   1662036   1660762   1659650   1658238   1656271  
  9010.000000   1653815   1651225   1649016   1647631   1647280  
  9000.000000   1647859   1649017   1650342   1651468   1652221  
  8990.000000   1652567   1652607   1652447   1652174   1651864  
  8980.000000   1651635   1651668   1652167   1653308   1655136  
  8970.000000   1657500   1660034   1662264   1663755   1664236  
  8960.000000   1663665   1662203   1660165   1657855   1655518  
  8950.000000   1653287   1651243   1649452   1647979   1646927  
  8940.000000   1646379   1646414   1647025   1648193   1649848  
  8930.000000   1651902   1654190   1656472   1658456   1659794  
  8920.000000   1660216   1659571   1657995   1655810   1653483  
  8910.000000   1651418   1649844   1648742   1647887   1647045  
  8900.000000   1646113   1645275   1644902   1645471   1647272  
  8890.000000   1650277   1654020   1657761   1660720   1662331  
  8880.000000   1662427   1661214   1659198   1656911   1654764  
  8870.000000   1652893   1651231   1649592   1647845   1645987  
  8860.000000   1644154   1642574   1641441   1640897   1640945  
  8850.000000   1641552   1642644   1644170   1646080   1648288  
  8840.000000   1650659   1652957   1654916   1656260   1656826  
  8830.000000   1656561   1655580   1654093   1652399   1650790  
  8820.000000   1649525   1648787   1648674   1649189   1650243  
  8810.000000   1651670   1653254   1654789   1656108   1657141  
  8800.000000   1657892   1658457   1658951   1659509   1660243  
  8790.000000   1661252   1662603   1664323   1666364   1668573  
  8780.000000   1670679   1672307   1673071   1672662   1670997  
  8770.000000   1668239   1664804   1661234   1658063   1655685  
  8760.000000   1654257   1653741   1653948   1654703   1655884  
  8750.000000   1657485   1659528   1661999   1664769   1667565  
  8740.000000   1670038   1671822   1672696   1672610   1671774  
  8730.000000   1670528   1669314   1668499   1668341   1668912  
  8720.000000   1670117   1671727   1673439   1674973   1676125  
  8710.000000   1676849   1677246   1677557   1678078   1679071  
  8700.000000   1680667   1682809   1685258   1687658   1689654  
  8690.000000   1690999   1691648   1691746   1691587   1691488  
  8680.000000   1691698   1692309   1693249   1694321   1695291  
  8670.000000   1695990   1696381   1696591   1696858   1697476  
  8660.000000   1698675   1700556   1703018   1705798   1708516  
  8650.000000   1710797   1712376   1713179   1713357   1713213  
  8640.000000   1713104   1713297   1713877   1714715   1715535  
  8630.000000   1716025   1715975   1715373   1714412   1713442  
  8620.000000   1712837   1712882   1713677   1715122   1716971  
  8610.000000   1718915   1720686   1722104   1723115   1723766  
  8600.000000   1724175   1724508   1724945   1725662   1726795  
  8590.000000   1728399   1730432   1732722   1735012   1737005  
  8580.000000   1738471   1739286   1739482   1739213   1738716  
  8570.000000   1738213   1737846   1737666   1737657   1737808  
  8560.000000   1738149   1738789   1739866   1741492   1743674  
  8550.000000   1746267   1748990   1751480   1753397   1754508  
  8540.000000   1754778   1754357   1753571   1752815   1752480  
  8530.000000   1752858   1754071   1756073   1758634   1761431  
  8520.000000   1764088   1766303   1767882   1768801   1769170  
  8510.000000   1769198   1769109   1769058   1769099   1769160  
  8500.000000   1769112   1768813   1768187   1767266   1766178  
  8490.000000   1765137   1764344   1763975   1764100   1764712  
  8480.000000   1765725   1767018   1768472   1769977   1771447  
  8470.000000   1772791   1773931   1774773   1775267   1775380  
  8460.000000   1775156   1774688   1774150   1773731   1773607  
  8450.000000   1773900   1774650   1775831   1777335   1779038  
  8440.000000   1780804   1782537   1784175   1785689   1787077  
  8430.000000   1788325   1789423   1790319   1790963   1791299  
  8420.000000   1791315   1791049   1790600   1790128   1789816  
  8410.000000   1789858   1790386   1791464   1793035   1794958  
  8400.000000   1797012   1798953   1800539   1801612   1802104  
  8390.000000   1802063   1801611   1800933   1800220   1799646  
  8380.000000   1799315   1799259   1799438   1799746   1800028  
  8370.000000   1800099   1799786   1798967   1797616   1795810  
  8360.000000   1793736   1791653   1789848   1788572   1787975  
  8350.000000   1788094   1788851   1790110   1791699   1793477  
  8340.000000   1795318   1797130   1798818   1800267   1801360  
  8330.000000   1801974   1802046   1801565   1800617   1799331  
  8320.000000   1797866   1796357   1794894   1793532   1792300  
  8310.000000   1791242   1790410   1789869   1789647   1789720  
  8300.000000   1789981   1790266   1790398   1790253   1789808  
  8290.000000   1789156   1788476   1787976   1787827   1788119  
  8280.000000   1788825   1789823   1790924   1791924   1792649  
  8270.000000   1792969   1792824   1792210   1791179   1789827  
  8260.000000   1788271   1786638   1785040   1783572   1782299  
  8250.000000   1781282   1780559   1780175   1780135   1780402  
  8240.000000   1780853   1781301   1781512   1781271   1780451  
  8230.000000   1779061   1777261   1775315   1773501   1772027  
  8220.000000   1770964   1770244   1769700   1769157   1768488  
  8210.000000   1767668   1766741   1765792   1764864   1763944  
  8200.000000   1762959   1761817   1760472   1758934   1757292  
  8190.000000   1755645   1754077   1752608   1751204   1749814  
  8180.000000   1748414   1747054   1745836   1744896   1744332  
  8170.000000   1744171   1744339   1744695   1745075   1745337  
  8160.000000   1745390   1745182   1744687   1743868   1742691  
  8150.000000   1741133   1739241   1737137   1735022   1733120  
  8140.000000   1731594   1730506   1729769   1729217   1728649  
  8130.000000   1727943   1727082   1726170   1725359   1724770  
  8120.000000   1724418   1724187   1723875   1723263   1722219  
  8110.000000   1720742   1718966   1717102   1715358   1713871  
  8100.000000   1712672   1711698   1710840   1709988   1709082  
  8090.000000   1708102   1707067   1705988   1704866   1703683  
  8080.000000   1702435   1701154   1699923   1698858   1698080  
  8070.000000   1697664   1697610   1697831   1698179   1698481  
  8060.000000   1698592   1698431   1698001   1697372   1696659  
  8050.000000   1695969   1695376   1694896   1694491   1694088  
  8040.000000   1693609   1693001   1692257   1691423   1690579  
  8030.000000   1689827   1689242   1688868   1688687   1688642  
  8020.000000   1688638   1688586   1688407   1688062   1687544  
  8010.000000   1686871   1686080   1685198   1684249   1683227  
  8000.000000   1682122   1680898   1679531   1678001   1676323  
  7990.000000   1674550   1672782   1671159   1669830   1668930  
  7980.000000   1668532   1668627   1669113   1669817   1670539  
  7970.000000   1671092   1671362   1671307   1670970   1670434  
  7960.000000   1669798   1669138   1668504   1667917   1667391  
  7950.000000   1666953   1666646   1666518   1666606   1666897  
  7940.000000   1667322   1667750   1668015   1667957   1667468  
  7930.000000   1666534   1665255   1663829   1662522   1661598  
  7920.000000   1661260   1661586   1662495   1663765   1665077  
  7910.000000   1666098   1666575   1666400   1665645   1664527  
  7900.000000   1663343   1662365   1661767   1661575   1661686  
  7890.000000   1661921   1662107   1662143   1662027   1661852  
  7880.000000   1661733   1661769   1661981   1662315   1662667  
  7870.000000   1662929   1663045   1663015   1662901   1662778  
  7860.000000   1662695   1662646   1662571   1662394   1662053  
  7850.000000   1661550   1660956   1660397   1660005   1659881  
  7840.000000   1660048   1660454   1660973   1661460   1661773  
  7830.000000   1661820   1661565   1661037   1660305   1659481  
  7820.000000   1658677   1658006   1657545   1657329   1657332  
  7810.000000   1657471   1657616   1657617   1657341   1656699  
  7800.000000   1655675   1654314   1652723   1651030   1649373  
  7790.000000   1647872   1646622   1645697   1645143   1644985  
  7780.000000   1645209   1645772   1646581   1647510   1648417  
  7770.000000   1649158   1649631   1649768   1649570   1649076  
  7760.000000   1648366   1647526   1646644   1645789   1645010  
  7750.000000   1644345   1643805   1643401   1643118   1642943  
  7740.000000   1642840   1642778   1642710   1642599   1642411  
  7730.000000   1642124   1641736   1641256   1640713   1640130  
  7720.000000   1639534   1638929   1638306   1637642   1636913  
  7710.000000   1636113   1635258   1634401   1633615   1632983  
  7700.000000   1632567   1632396   1632448   1632658   1632930  
  7690.000000   1633163   1633269   1633193   1632925   1632489  
  7680.000000   1631944   1631359   1630803   1630327   1629957  
  7670.000000   1629690   1629493   1629327   1629147   1628931  
  7660.000000   1628674   1628404   1628150   1627941   1627778  
  7650.000000   1627631   1627447   1627158   1626718   1626103  
  7640.000000   1625333   1624450   1623516   1622587   1621711  
  7630.000000   1620921   1620252   1619742   1619434   1619364  
  7620.000000   1619547   1619960   1620539   1621187   1621809  
  7610.000000   1622325   1622708   1622965   1623146   1623285  
  7600.000000   1623410   1623501   1623527   1623453   1623274  
  7590.000000   1623034   1622821   1622748   1622909   1623351  
  7580.000000   1624041   1624883   1625727   1626424   1626856  
  7570.000000   1626965   1626771   1626347   1625805   1625247  
  7560.000000   1624753   1624359   1624070   1623871   1623756  
  7550.000000   1623737   1623858   1624169   1624710   1625476  
  7540.000000   1626411   1627400   1628314   1629024   1629472  
  7530.000000   1629666   1629711   1629750   1629946   1630409  
  7520.000000   1631186   1632243   1633493   1634824   1636150  
  7510.000000   1637416   1638620   1639781   1640927   1642066  
  7500.000000   1643190   1644269   1645285   1646232   1647137  
  7490.000000   1648047   1649023   1650114   1651350   1652723  
  7480.000000   1654197   1655714   1657214   1658647   1659988  
  7470.000000   1661240   1662434   1663614   1664825   1666093  
  7460.000000   1667426   1668794   1670157   1671459   1672665  
  7450.000000   1673758   1674750   1675678   1676593   1677549  
  7440.000000   1678605   1679807   1681197   1682796   1684611  
  7430.000000   1686607   1688717   1690837   1692856   1694681  
  7420.000000   1696277   1697674   1698968   1700289   1701753  
  7410.000000   1703427   1705300   1707296   1709302   1711217  
  7400.000000   1712986   1714619   1716171   1717717   1719312  
  7390.000000   1720971   1722662   1724328   1725919   1727411  
  7380.000000   1728819   1730189   1731571   1733005   1734501  
  7370.000000   1736046   1737609   1739165   1740697   1742205  
  7360.000000   1743695   1745175   1746648   1748112   1749560  
  7350.000000   1750985   1752380   1753735   1755041   1756287  
  7340.000000   1757478   1758636   1759810   1761070   1762488  
  7330.000000   1764119   1765973   1768010   1770132   1772222  
  7320.000000   1774169   1775905   1777414   1778733   1779936  
  7310.000000   1781100   1782280   1783491   1784706   1785879  
  7300.000000   1786957   1787911   1788742   1789489   1790209  
  7290.000000   1790967   1791807   1792744   1793751   1794780  
  7280.000000   1795769   1796667   1797446   1798111   1798699  
  7270.000000   1799262   1799854   1800512   1801255   1802080  
  7260.000000   1802980   1803939   1804957   1806025   1807141  
  7250.000000   1808281   1809422   1810523   1811567   1812547  
  7240.000000   1813498   1814465   1815516   1816690   1818013  
  7230.000000   1819460   1821004   1822590   1824198   1825813  
  7220.000000   1827459   1829162   1830969   1832911   1835028  
  7210.000000   1837339   1839871   1842616   1845557   1848636  
  7200.000000   1851782   1854905   1857946   1860873   1863715  
  7190.000000   1866529   1869401   1872378   1875479   1878645  
  7180.000000   1881791   1884808   1887635   1890262   1892758  
  7170.000000   1895232   1897825   1900650   1903791   1907262  
  7160.000000   1911043   1915061   1919241   1923491   1927742  
  7150.000000   1931922   1936004   1939976   1943890   1947807  
  7140.000000   1951825   1956000   1960368   1964889   1969506  
  7130.000000   1974133   1978734   1983304   1987917   1992663  
  7120.000000   1997650   2002927   2008495   2014271   2020151  
  7110.000000   2026007   2031764   2037381   2042887   2048334  
  7100.000000   2053809   2059383   2065120   2071046   2077169  
  7090.000000   2083453   2089850   2096279   2102671   2108951  
  7080.000000   2115085   2121065   2126923   2132713   2138510  
  7070.000000   2144378   2150378   2156546   2162905   2169458  
  7060.000000   2176180   2183019   2189890   2196687   2203299  
  7050.000000   2209641   2215679   2221446   2227030   2232551  
  7040.000000   2238120   2243810   2249636   2255564   2261527  
  7030.000000   2267465   2273330   2279115   2284825   2290483  
  7020.000000   2296092   2301654   2307148   2312560   2317875  
  7010.000000   2323093   2328215   2333249   2338187   2343032  
  7000.000000   2347773   2352427   2357008   2361558   2366102  
  6990.000000   2370671   2375250   2379818   2384310   2388672  
  6980.000000   2392838   2396778   2400476   2403956   2407252  
  6970.000000   2410422   2413511   2416564   2419594   2422612  
  6960.000000   2425595   2428536   2431416   2434249   2437044  
  6950.000000   2439835   2442625   2445415   2448159   2450803  
  6940.000000   2453273   2455516   2457502   2459247   2460789  
  6930.000000   2462194   2463522   2464837   2466175   2467568  
  6920.000000   2469029   2470568   2472171   2473818   2475463  
  6910.000000   2477062   2478564   2479946   2481206   2482374  
  6900.000000   2483493   2484615   2485774   2486994   2488269  
  6890.000000   2489589   2490932   2492276   2493590   2494838  
  6880.000000   2495977   2496966   2497779   2498415   2498906  
  6870.000000   2499310   2499694   2500117   2500607   2501177  
  6860.000000   2501813   2502510   2503272   2504119   2505069  
  6850.000000   2506126   2507253   2508386   2509433   2510311  
  6840.000000   2510968   2511403   2511665   2511831   2511983  
  6830.000000   2512182   2512456   2512800   2513184   2513573  
  6820.000000   2513930   2514236   2514476   2514661   2514807  
  6810.000000   2514952   2515128   2515370   2515687   2516060  
  6800.000000   2516431   2516721   2516849   2516761   2516445  
  6790.000000   2515947   2515342   2514731   2514197   2513806  
  6780.000000   2513582   2513532   2513633   2513852   2514135  
  6770.000000   2514413   2514594   2514591   2514329   2513781  
  6760.000000   2512976   2512002   2510980   2510033   2509252  
  6750.000000   2508673   2508277   2508010   2507806   2507610  
  6740.000000   2507388   2507127   2506820   2506464   2506048  
  6730.000000   2505569   2505033   2504464   2503901   2503382  
  6720.000000   2502935   2502563   2502244   2501946   2501630  
  6710.000000   2501274   2500862   2500395   2499870   2499282  
  6700.000000   2498619   2497875   2497051   2496166   2495247  
  6690.000000   2494326   2493418   2492526   2491630   2490705  
  6680.000000   2489724   2488679   2487573   2486429   2485267  
  6670.000000   2484115   2482987   2481899   2480849   2479841  
  6660.000000   2478857   2477881   2476881   2475829   2474702  
  6650.000000   2473499   2472231   2470923   2469593   2468245  
  6640.000000   2466858   2465401   2463845   2462192   2460477  
  6630.000000   2458770   2457149   2455675   2454363   2453181  
  6620.000000   2452054   2450901   2449657   2448296   2446831  
  6610.000000   2445299   2443737   2442164   2440579   2438966  
  6600.000000   2437315   2435636   2433957   2432324   2430770  
  6590.000000   2429315   2427948   2426641   2425355   2424057  
  6580.000000   2422725   2421352   2419934   2418466   2416946  
  6570.000000   2415370   2413748   2412104   2410477   2408906  
  6560.000000   2407424   2406044   2404753   2403521   2402310  
  6550.000000   2401085   2399828   2398536   2397222   2395906  
  6540.000000   2394613   2393364   2392173   2391047   2389981  
  6530.000000   2388955   2387944   2386916   2385848   2384726  
  6520.000000   2383554   2382346   2381120   2379888   2378649  
  6510.000000   2377397   2376127   2374847   2373586   2372391  
  6500.000000   2371308   2370371   2369582   2368907   2368286  
  6490.000000   2367649   2366939   2366126   2365211   2364214  
  6480.000000   2363166   2362092   2361004   2359902   2358782  
  6470.000000   2357646   2356502   2355364   2354252   2353180  
  6460.000000   2352155   2351178   2350242   2349336   2348445  
  6450.000000   2347555   2346655   2345736   2344805   2343879  
  6440.000000   2342983   2342144   2341381   2340689   2340047  
  6430.000000   2339413   2338748   2338023   2337236   2336409  
  6420.000000   2335582   2334797   2334085   2333458   2332912  
  6410.000000   2332434   2332010   2331627   2331276   2330942  
  6400.000000   2330606   2330244   2329835   2329372   2328868  
  6390.000000   2328351   2327860   2327426   2327067   2326778  
  6380.000000   2326537   2326320   2326103   2325872   2325624  
  6370.000000   2325357   2325065   2324736   2324355   2323910  
  6360.000000   2323402   2322842   2322249   2321642   2321028  
  6350.000000   2320408   2319772   2319116   2318442   2317765  
  6340.000000   2317100   2316462   2315852   2315261   2314668  
  6330.000000   2314060   2313425   2312767   2312093   2311409  
  6320.000000   2310706   2309970   2309177   2308311   2307368  
  6310.000000   2306368   2305334   2304300   2303283   2302293  
  6300.000000   2301320   2300358   2299391   2298418   2297426  
  6290.000000   2296403   2295319   2294142   2292834   2291381  
  6280.000000   2289789   2288104   2286383   2284697   2283092  
  6270.000000   2281591   2280176   2278811   2277440   2276017  
  6260.000000   2274501   2272880   2271149   2269326   2267434  
  6250.000000   2265506   2263572   2261663   2259796   2257980  
  6240.000000   2256205   2254458   2252717   2250976   2249231  
  6230.000000   2247489   2245752   2244018   2242272   2240489  
  6220.000000   2238647   2236733   2234753   2232726   2230684  
  6210.000000   2228659   2226678   2224759   2222914   2221163  
  6200.000000   2219520   2218002   2216611   2215328   2214107  
  6190.000000   2212881   2211583   2210158   2208589   2206890  
  6180.000000   2205108   2203300   2201521   2199805   2198168  
  6170.000000   2196605   2195104   2193652   2192236   2190847  
  6160.000000   2189478   2188123   2186783   2185463   2184177  
  6150.000000   2182934   2181741   2180585   2179441   2178266  
  6140.000000   2177025   2175696   2174284   2172821   2171353  
  6130.000000   2169928   2168584   2167332   2166163   2165051  
  6120.000000   2163969   2162887   2161786   2160655   2159492  
  6110.000000   2158303   2157107   2155929   2154806   2153766  
  6100.000000   2152832   2152004   2151272   2150605   2149985  
  6090.000000   2149395   2148843   2148340   2147906   2147539  
  6080.000000   2147231   2146950   2146673   2146381   2146092  
  6070.000000   2145832   2145650   2145576   2145630   2145799  
  6060.000000   2146064   2146386   2146756   2147160   2147616  
  6050.000000   2148129   2148716   2149367   2150086   2150861  
  6040.000000   2151707   2152636   2153677   2154836   2156119  
  6030.000000   2157496   2158942   2160419   2161921   2163450  
  6020.000000   2165035   2166700   2168463   2170312   2172221  
  6010.000000   2174142   2176042   2177894   2179703   2181481  
  6000.000000   2183259   2185055   2186893   2188778   2190723  
  5990.000000   2192727   2194804   2196953   2199180   2201473  
  5980.000000   2203828   2206232   2208690   2211208   2213810  
  5970.000000   2216507   2219314   2222215   2225196   2228216  
  5960.000000   2231251   2234272   2237272   2240242   2243194  
  5950.000000   2246129   2249060   2251998   2254964   2257982  
  5940.000000   2261079   2264273   2267571   2270963   2274425  
  5930.000000   2277926   2281436   2284934   2288402   2291832  
  5920.000000   2295209   2298514   2301728   2304829   2307805  
  5910.000000   2310657   2313397   2316043   2318616   2321136  
  5900.000000   2323620   2326095   2328586   2331132   2333760  
  5890.000000   2336496   2339335   2342259   2345220   2348168  
  5880.000000   2351049   2353826   2356473   2358977   2361333  
  5870.000000   2363537   2365593   2367512   2369321   2371060  
  5860.000000   2372781   2374533   2376353   2378262   2380257  
  5850.000000   2382326   2384454   2386632   2388857   2391135  
  5840.000000   2393469   2395863   2398311   2400807   2403342  
  5830.000000   2405905   2408482   2411047   2413568   2416004  
  5820.000000   2418320   2420498   2422541   2424485   2426373  
  5810.000000   2428259   2430164   2432103   2434044   2435968  
  5800.000000   2437830   2439633   2441362   2443045   2444673  
  5790.000000   2446254   2447740   2449094   2450236   2451106  
  5780.000000   2451621   2451727   2451360   2450499   2449131  
  5770.000000   2447306   2445098   2442638   2440058   2437504  
  5760.000000   2435072   2432835   2430804   2428977   2427323  
  5750.000000   2425828   2424473   2423249   2422142   2421126  
  5740.000000   2420170   2419238   2418314   2417390   2416493  
  5730.000000   2415645   2414883   2414219   2413660   2413187  
  5720.000000   2412787   2412434   2412120   2411831   2411560  
  5710.000000   2411294   2411028   2410755   2410487   2410243  
  5700.000000   2410051   2409934   2409899   2409935   2410011  
  5690.000000   2410096   2410155   2410181   2410174   2410155  
  5680.000000   2410132   2410110   2410065   2409970   2409774  
  5670.000000   2409441   2408928   2408211   2407268   2406094  
  5660.000000   2404691   2403089   2401328   2399477   2397602  
  5650.000000   2395774   2394035   2392408   2390886   2389453  
  5640.000000   2388082   2386761   2385479   2384236   2383032  
  5630.000000   2381860   2380712   2379575   2378450   2377337  
  5620.000000   2376252   2375202   2374193   2373216   2372258  
  5610.000000   2371301   2370340   2369377   2368430   2367514  
  5600.000000   2366646   2365824   2365039   2364274   2363510  
  5590.000000   2362735   2361944   2361136   2360310   2359465  
  5580.000000   2358595   2357702   2356792   2355877   2354968  
  5570.000000   2354069   2353170   2352249   2351277   2350236  
  5560.000000   2349116   2347936   2346722   2345508   2344315  
  5550.000000   2343150   2342002   2340853   2339686   2338499  
  5540.000000   2337299   2336104   2334931   2333792   2332691  
  5530.000000   2331630   2330607   2329625   2328684   2327781  
  5520.000000   2326903   2326029   2325136   2324202   2323216  
  5510.000000   2322180   2321101   2319990   2318851   2317684  
  5500.000000   2316487   2315269   2314041   2312831   2311656  
  5490.000000   2310525   2309417   2308298   2307120   2305850  
  5480.000000   2304472   2303002   2301470   2299913   2298353  
  5470.000000   2296794   2295218   2293609   2291950   2290251  
  5460.000000   2288522   2286782   2285032   2283259   2281435  
  5450.000000   2279533   2277543   2275479   2273379   2271293  
  5440.000000   2269266   2267325   2265481   2263730   2262068  
  5430.000000   2260483   2258971   2257515   2256098   2254687  
  5420.000000   2253269   2251837   2250425   2249078   2247864  
  5410.000000   2246818   2245957   2245243   2244632   2244065  
  5400.000000   2243531   2243032   2242622   2242342   2242240  
  5390.000000   2242311   2242544   2242886   2243320   2243822  
  5380.000000   2244422   2245134   2246001   2247013   2248178  
  5370.000000   2249453   2250838   2252304   2253881   2255567  
  5360.000000   2257408   2259396   2261577   2263944   2266567  
  5350.000000   2269469   2272749   2276426   2280568   2285131  
  5340.000000   2290122   2295450   2301130   2307105   2313444  
  5330.000000   2320131   2327254   2334786   2342793   2351224  
  5320.000000   2360150   2369538   2379496   2390011   2401199  
  5310.000000   2413023   2425564   2438745   2452624   2467129  
  5300.000000   2482341   2498225   2514902   2532366   2550741  
  5290.000000   2569999   2590204   2611248   2633095   2655568  
  5280.000000   2678607   2702084   2726031   2750446   2775453  
  5270.000000   2801083   2827380   2854239   2881519   2909002  
  5260.000000   2936512   2963939   2991265   3018554   3045855  
  5250.000000   3073199   3100482   3127561   3154172   3180150  
  5240.000000   3205306   3229660   3253201   3276094   3298377  
  5230.000000   3320176   3341422   3362118   3382093   3401313  
  5220.000000   3419637   3437127   3453748   3469659   3484877  
  5210.000000   3499554   3513641   3527191   3540058   3552237  
  5200.000000   3563588   3574171   3583941   3593037   3601456  
  5190.000000   3609316   3616561   3623244   3629267   3634678  
  5180.000000   3639415   3643570   3647116   3650145   3652604  
  5170.000000   3654545   3655896   3656711   3656959   3656736  
  5160.000000   3656043   3654976   3653512   3651701   3649493  
  5150.000000   3646927   3643978   3640713   3637135   3633314  
  5140.000000   3629235   3624936   3620381   3615598   3610572  
  5130.000000   3605351   3599941   3594391   3588701   3582900  
  5120.000000   3576977   3570962   3564865   3558730   3552578  
  5110.000000   3546441   3540312   3534190   3528051   3521888  
  5100.000000   3515700   3509508   3503335   3497209   3491137  
  5090.000000   3485122   3479147   3473203   3467279   3461381  
  5080.000000   3455513   3449683   3443886   3438108   3432322  
  5070.000000   3426506   3420636   3414709   3408723   3402690  
  5060.000000   3396615   3390505   3384356   3378173   3371949  
  5050.000000   3365696   3359411   3353104   3346767   3340391  
  5040.000000   3333958   3327455   3320871   3314211   3307489  
  5030.000000   3300730   3293961   3287206   3280490   3273828  
  5020.000000   3267235   3260720   3254296   3247964   3241731  
  5010.000000   3235591   3229546   3223586   3217724   3211955  
  5000.000000   3206307   3200783   3195417   3190204   3185174  
  4990.000000   3180314   3175651   3171170   3166902   3162833  
  4980.000000   3158998   3155381   3152020   3148901   3146070  
  4970.000000   3143521   3141308   3139424   3137915   3136754  
  4960.000000   3135967   3135506   3135391   3135577   3136094  
  4950.000000   3136909   3138063   3139523   3141328   3143441  
  4940.000000   3145903   3148683   3151833   3155330   3159226  
  4930.000000   3163485   3168136   3173123   3178455   3184075  
  4920.000000   3189999   3196190   3202679   3209443   3216515  
  4910.000000   3223867   3231520   3239440   3247630   3256052  
  4900.000000   3264696   3273521   3282507   3291617   3300828  
  4890.000000   3310111   3319440   3328783   3338091   3347318  
  4880.000000   3356392   3365261   3373859   3382162   3390129  
  4870.000000   3397767   3405047   3411978   3418523   3424689  
  4860.000000   3430439   3435797   3440753   3445361   3449630  
  4850.000000   3453624   3457350   3460861   3464149   3467257  
  4840.000000   3470177   3472951   3475578   3478097   3480508  
  4830.000000   3482844   3485103   3487309   3489462   3491577  
  4820.000000   3493652   3495695   3497698   3499669   3501606  
  4810.000000   3503524   3505433   3507352   3509290   3511255  
  4800.000000   3513244   3515251   3517266   3519285   3521304  
  4790.000000   3523329   3525361   3527403   3529450   3531496  
  4780.000000   3533528   3535541   3537524   3539478   3541391  
  4770.000000   3543260   3545068   3546804   3548449   3549999  
  4760.000000   3551445   3552798   3554057   3555236   3556325  
  4750.000000   3557328   3558225   3559017   3559688   3560248  
  4740.000000   3560689   3561023   3561245   3561363   3561369  
  4730.000000   3561273   3561079   3560804   3560459   3560060  
  4720.000000   3559608   3559104   3558538   3557908   3557224  
  4710.000000   3556506   3555791   3555119   3554528   3554042  
  4700.000000   3553674   3553420   3553277   3553243   3553327  
  4690.000000   3553541   3553902   3554411   3555061   3555816  
  4680.000000   3556636   3557463   3558257   3558977   3559613  
  4670.000000   3560156   3560629   3561044   3561438   3561832  
  4660.000000   3562267   3562769   3563378   3564114   3565003  
  4650.000000   3566052   3567266   3568640   3570171   3571849  
  4640.000000   3573672   3575627   3577701   3579871   3582108  
  4630.000000   3584374   3586633   3588849   3590992   3593039  
  4620.000000   3594970   3596773   3598431   3599938   3601278  
  4610.000000   3602449   3603444   3604277   3604955   3605514  
  4600.000000   3605975   3606384   3606761   3607144   3607535  
  4590.000000   3607945   3608348   3608727   3609041   3609267  
  4580.000000   3609370   3609340   3609160   3608840   3608378  
  4570.000000   3607791   3607088   3606288   3605402   3604454  
  4560.000000   3603454   3602422   3601362   3600281   3599172  
  4550.000000   3598033   3596858   3595645   3594396   3593120  
  4540.000000   3591829   3590531   3589246   3587982   3586761  
  4530.000000   3585592   3584503   3583500   3582613   3581838  
  4520.000000   3581204   3580693   3580334   3580107   3580054  
  4510.000000   3580166   3580512   3581101   3582025   3583302  
  4500.000000   3585029   3587208   3589919   3593140   3596936  
  4490.000000   3601269   3606205   3611712   3617864   3624635  
  4480.000000   3632091   3640194   3648989   3658414   3668490  
  4470.000000   3679134   3690346   3702030   3714168   3726659  
  4460.000000   3739477   3752531   3765799   3779212   3792760  
  4450.000000   3806393   3820104   3833855   3847633   3861410  
  4440.000000   3875167   3888889   3902552   3916155   3929665  
  4430.000000   3943087   3956372   3969521   3982460   3995179  
  4420.000000   4007583   4019652   4031280   4042448   4053056  
  4410.000000   4063096   4072478   4081209   4089214   4096515  
  4400.000000   4103059   4108892   4113996   4118448   4122279  
  4390.000000   4125609   4128512   4131140   4133587   4135989  
  4380.000000   4138410   4140930   4143565   4146342   4149257  
  4370.000000   4152334   4155589   4159059   4162775   4166761  
  4360.000000   4171025   4175558   4180329   4185308   4190432  
  4350.000000   4195670   4200941   4206224   4211446   4216622  
  4340.000000   4221715   4226766   4231725   4236537   4240991  
  4330.000000   4244812   4247587   4248921   4248461   4246063  
  4320.000000   4241804   4236050   4229335   4222321   4215591  
  4310.000000   4209624   4204652   4200742   4197767   4195554  
  4300.000000   4193888   4192617   4191625   4190849   4190257  
  4290.000000   4189815   4189514   4189323   4189258   4189315  
  4280.000000   4189526   4189902   4190452   4191175   4192045  
  4270.000000   4193049   4194144   4195293   4196400   4197341  
  4260.000000   4197920   4197920   4197113   4195335   4192510  
  4250.000000   4188701   4184083   4178941   4173580   4168313  
  4240.000000   4163365   4158898   4154949   4151501   4148456  
  4230.000000   4145712   4143148   4140668   4138193   4135670  
  4220.000000   4133085   4130431   4127750   4125073   4122476  
  4210.000000   4120001   4117720   4115654   4113839   4112256  
  4200.000000   4110901   4109725   4108712   4107820   4107053  
  4190.000000   4106394   4105878   4105503   4105310   4105280  
  4180.000000   4105441   4105752   4106235   4106861   4107682  
  4170.000000   4108709   4110034   4111692   4113778   4116304  
  4160.000000   4119328   4122817   4126799   4131221   4136113  
  4150.000000   4141430   4147214   4153422   4160093   4167173  
  4140.000000   4174693   4182597   4190925   4199635   4208779  
  4130.000000   4218319   4228300   4238674   4249470   4260639  
  4120.000000   4272213   4284163   4296536   4309322   4322566  
  4110.000000   4336243   4350364   4364868   4379722   4394832  
  4100.000000   4410148   4425589   4441130   4456737   4472428  
  4090.000000   4488216   4504132   4520191   4536396   4552743  
  4080.000000   4569203   4585761   4602373   4619027   4635656  
  4070.000000   4652227   4668639   4684844   4700730   4716276  
  4060.000000   4731405   4746140   4760425   4774294   4787675  
  4050.000000   4800601   4812996   4824920   4836315   4847254  
  4040.000000   4857657   4867554   4876807   4885407   4893210  
  4030.000000   4900245   4906425   4911834   4916433   4920302  
  4020.000000   4923370   4925709   4927305   4928239   4928460  
  4010.000000   4928097   4927208   4925796   4923624   4920756  
  4000.000000   4917536  
##END= 
