##TITLE= Sample 018 By ssteindl date Dienstag, November 20 2018
##JCAMP-DX= 4.24
##DATA TYPE= INFRARED SPECTRUM
##ORIGIN= Exported PE Spectrum Data File
##OWNER= Sandra Steindl
##DATE= 18/11/20
##TIME= 14:40:27.00
##SPECTROMETER/DATA SYSTEM= PERKIN-ELMER Frontier FT-IR/NIR IR
##INSTRUMENT PARAMETERS=
  APODIZATION=stark
  DETECTOR=INGAAS
##RESOLUTION= 16.000000
##DELTAX= -2.000000
##XUNITS= 1/CM
##YUNITS= A
##XFACTOR= 1.00
##YFACTOR= 0.00000011920928955078
##FIRSTX= 10000.00
##LASTX= 4000.00
##NPOINTS= 3001
##FIRSTY= 0.199978
##MAXY= 0.570652
##MINY= 0.175577
##XYDATA= (X++(Y..Y))
 10000.000000   1677539   1673805   1669682   1664648   1658859  
  9990.000000   1652855   1647221   1642395   1638775   1636553  
  9980.000000   1635495   1635109   1635024   1635242   1636173  
  9970.000000   1638401   1642379   1647979   1654405   1660238  
  9960.000000   1663975   1664474   1661479   1655708   1648645  
  9950.000000   1642048   1637327   1635203   1635577   1637818  
  9940.000000   1641097   1644695   1648077   1650785   1652313  
  9930.000000   1652068   1649560   1644645   1637789   1630073  
  9920.000000   1622984   1617978   1615996   1617196   1620905  
  9910.000000   1625977   1631216   1635795   1639422   1642158  
  9900.000000   1644185   1645425   1645558   1644090   1640738  
  9890.000000   1635683   1629693   1623995   1619885   1618395  
  9880.000000   1619908   1624178   1630367   1637372   1644007  
  9870.000000   1649195   1652066   1651989   1648718   1642457  
  9860.000000   1633999   1624645   1616013   1609621   1606464  
  9850.000000   1606701   1609627   1613956   1618279   1621524  
  9840.000000   1623205   1623414   1622563   1621087   1619241  
  9830.000000   1617087   1614681   1612264   1610390   1609797  
  9820.000000   1611153   1614711   1620074   1626241   1631823  
  9810.000000   1635495   1636394   1634346   1629914   1624095  
  9800.000000   1618050   1612727   1608700   1606150   1604911  
  9790.000000   1604688   1605118   1605966   1607079   1608469  
  9780.000000   1610153   1612161   1614366   1616489   1618077  
  9770.000000   1618583   1617577   1614853   1610638   1605500  
  9760.000000   1600254   1595662   1592210   1589939   1588496  
  9750.000000   1587302   1585847   1583881   1581509   1579089  
  9740.000000   1577051   1575702   1575160   1575361   1576232  
  9730.000000   1577740   1579973   1582988   1586740   1590927  
  9720.000000   1595071   1598611   1601163   1602646   1603354  
  9710.000000   1603802   1604506   1605740   1607415   1609175  
  9700.000000   1610560   1611312   1611432   1611251   1611159  
  9690.000000   1611464   1612152   1612941   1613361   1613001  
  9680.000000   1611647   1609360   1606379   1602990   1599397  
  9670.000000   1595712   1592010   1588446   1585286   1582863  
  9660.000000   1581422   1580997   1581316   1581895   1582184  
  9650.000000   1581819   1580778   1579396   1578245   1577834  
  9640.000000   1578412   1579791   1581450   1582705   1582995  
  9630.000000   1582064   1580053   1577422   1574800   1572779  
  9620.000000   1571775   1571930   1573100   1574892   1576759  
  9610.000000   1578108   1578471   1577611   1575644   1573015  
  9600.000000   1570406   1568542   1567934   1568729   1570607  
  9590.000000   1572961   1575096   1576568   1577327   1577725  
  9580.000000   1578310   1579510   1581390   1583507   1585056  
  9570.000000   1585099   1582974   1578529   1572298   1565347  
  9560.000000   1559011   1554506   1552575   1553342   1556247  
  9550.000000   1560333   1564455   1567700   1569545   1570025  
  9540.000000   1569616   1569072   1569109   1570159   1572186  
  9530.000000   1574649   1576695   1577378   1576054   1572546  
  9520.000000   1567273   1561073   1554927   1549663   1545675  
  9510.000000   1542943   1541093   1539694   1538469   1537434  
  9500.000000   1536885   1537211   1538669   1541157   1544161  
  9490.000000   1546852   1548399   1548248   1546416   1543462  
  9480.000000   1540366   1538178   1537683   1539168   1542320  
  9470.000000   1546355   1550276   1553177   1554513   1554175  
  9460.000000   1552426   1549734   1546576   1543340   1540292  
  9450.000000   1537630   1535553   1534277   1533995   1534793  
  9440.000000   1536520   1538781   1540957   1542434   1542784  
  9430.000000   1541954   1540269   1538292   1536624   1535652  
  9420.000000   1535481   1535889   1536516   1536985   1537068  
  9410.000000   1536717   1536005   1535051   1533921   1532649  
  9400.000000   1531301   1530053   1529234   1529205   1530196  
  9390.000000   1532107   1534455   1536501   1537529   1537149  
  9380.000000   1535497   1533226   1531290   1530584   1531557  
  9370.000000   1534045   1537285   1540307   1542266   1542822  
  9360.000000   1542153   1540877   1539687   1539079   1539086  
  9350.000000   1539294   1539042   1537695   1534934   1530812  
  9340.000000   1525708   1520143   1514594   1509425   1504851  
  9330.000000   1501039   1498169   1496414   1495931   1496695  
  9320.000000   1498510   1500911   1503303   1505065   1505782  
  9310.000000   1505373   1504173   1502803   1502047   1502623  
  9300.000000   1505036   1509420   1515442   1522360   1529128  
  9290.000000   1534686   1538171   1539158   1537751   1534558  
  9280.000000   1530541   1526664   1523625   1521587   1520239  
  9270.000000   1518953   1517088   1514287   1510576   1506506  
  9260.000000   1502867   1500541   1500088   1501690   1505087  
  9250.000000   1509715   1514848   1519703   1523599   1525980  
  9240.000000   1526521   1525100   1521903   1517383   1512321  
  9230.000000   1507613   1504118   1502359   1502393   1503818  
  9220.000000   1505865   1507716   1508701   1508631   1507791  
  9210.000000   1506848   1506515   1507296   1509296   1512127  
  9200.000000   1515062   1517233   1518002   1517097   1514723  
  9190.000000   1511430   1507953   1504987   1502986   1502106  
  9180.000000   1502196   1502952   1504009   1505099   1506053  
  9170.000000   1506857   1507549   1508211   1508859   1509462  
  9160.000000   1509921   1510091   1509823   1508970   1507453  
  9150.000000   1505256   1502479   1499323   1496070   1493014  
  9140.000000   1490387   1488304   1486735   1485531   1484485  
  9130.000000   1483432   1482317   1481225   1480323   1479799  
  9120.000000   1479772   1480226   1481024   1481929   1482757  
  9110.000000   1483376   1483795   1484030   1484120   1484003  
  9100.000000   1483573   1482687   1481289   1479504   1477677  
  9090.000000   1476309   1475868   1476690   1478811   1481993  
  9080.000000   1485723   1489419   1492566   1494841   1496131  
  9070.000000   1496468   1495992   1494829   1493105   1490899  
  9060.000000   1488329   1485559   1482833   1480414   1478535  
  9050.000000   1477358   1476950   1477299   1478299   1479804  
  9040.000000   1481623   1483553   1485375   1486914   1488097  
  9030.000000   1488976   1489732   1490623   1491898   1493670  
  9020.000000   1495838   1498085   1499971   1501061   1501069  
  9010.000000   1499962   1497970   1495504   1492993   1490788  
  9000.000000   1489063   1487849   1487032   1486497   1486144  
  8990.000000   1485967   1485971   1486202   1486668   1487341  
  8980.000000   1488130   1488888   1489475   1489694   1489384  
  8970.000000   1488373   1486625   1484190   1481287   1478267  
  8960.000000   1475577   1473671   1472847   1473255   1474823  
  8950.000000   1477356   1480540   1484072   1487686   1491141  
  8940.000000   1494188   1496519   1497836   1497834   1496358  
  8930.000000   1493443   1489446   1484949   1480659   1477259  
  8920.000000   1475229   1474789   1475782   1477845   1480453  
  8910.000000   1483136   1485503   1487342   1488599   1489309  
  8900.000000   1489549   1489342   1488712   1487622   1486098  
  8890.000000   1484199   1482112   1480085   1478395   1477285  
  8880.000000   1476878   1477193   1478105   1479449   1481039  
  8870.000000   1482758   1484550   1486402   1488288   1490115  
  8860.000000   1491727   1492896   1493438   1493245   1492398  
  8850.000000   1491109   1489698   1488468   1487631   1487256  
  8840.000000   1487273   1487554   1487986   1488542   1489279  
  8830.000000   1490294   1491652   1493313   1495120   1496829  
  8820.000000   1498210   1499121   1499589   1499788   1500004  
  8810.000000   1500515   1501502   1502990   1504842   1506814  
  8800.000000   1508620   1510025   1510883   1511187   1511047  
  8790.000000   1510668   1510290   1510132   1510342   1510947  
  8780.000000   1511843   1512810   1513580   1513921   1513728  
  8770.000000   1513082   1512241   1511575   1511448   1512095  
  8760.000000   1513538   1515556   1517774   1519762   1521203  
  8750.000000   1521972   1522174   1522084   1522045   1522342  
  8740.000000   1523117   1524349   1525898   1527585   1529275  
  8730.000000   1530906   1532487   1534045   1535574   1536991  
  8720.000000   1538160   1538927   1539208   1539022   1538521  
  8710.000000   1537947   1537572   1537627   1538236   1539417  
  8700.000000   1541070   1543049   1545168   1547259   1549154  
  8690.000000   1550719   1551861   1552535   1552791   1552729  
  8680.000000   1552537   1552388   1552422   1552663   1553025  
  8670.000000   1553359   1553526   1553510   1553441   1553614  
  8660.000000   1554379   1556025   1558650   1562086   1565920  
  8650.000000   1569579   1572508   1574298   1574833   1574285  
  8640.000000   1573081   1571760   1570840   1570706   1571531  
  8630.000000   1573271   1575689   1578440   1581168   1583580  
  8620.000000   1585505   1586899   1587823   1588407   1588791  
  8610.000000   1589085   1589349   1589621   1589950   1590449  
  8600.000000   1591275   1592623   1594632   1597314   1600482  
  8590.000000   1603763   1606682   1608765   1609695   1609373  
  8580.000000   1607983   1605905   1603637   1601656   1600335  
  8570.000000   1599904   1600433   1601884   1604102   1606880  
  8560.000000   1609933   1612963   1615671   1617832   1619337  
  8550.000000   1620217   1620646   1620856   1621093   1621490  
  8540.000000   1622074   1622739   1623335   1623750   1623949  
  8530.000000   1624025   1624125   1624439   1625103   1626181  
  8520.000000   1627628   1629323   1631102   1632780   1634198  
  8510.000000   1635224   1635801   1635935   1635728   1635351  
  8500.000000   1635030   1634983   1635352   1636185   1637419  
  8490.000000   1638941   1640608   1642333   1644083   1645873  
  8480.000000   1647703   1649507   1651152   1652427   1653140  
  8470.000000   1653164   1652546   1651469   1650236   1649164  
  8460.000000   1648502   1648394   1648853   1649827   1651230  
  8450.000000   1653006   1655120   1657542   1660184   1662895  
  8440.000000   1665456   1667635   1669258   1670266   1670763  
  8430.000000   1670965   1671154   1671568   1672348   1673481  
  8420.000000   1674805   1676083   1677065   1677597   1677633  
  8410.000000   1677290   1676777   1676369   1676282   1676649  
  8400.000000   1677449   1678549   1679718   1680720   1681369  
  8390.000000   1681577   1681357   1680794   1680002   1679077  
  8380.000000   1678082   1677043   1675978   1674916   1673917  
  8370.000000   1673062   1672430   1672084   1672045   1672307  
  8360.000000   1672834   1673581   1674486   1675479   1676468  
  8350.000000   1677352   1678035   1678462   1678661   1678731  
  8340.000000   1678823   1679063   1679495   1680034   1680485  
  8330.000000   1680607   1680215   1679266   1677906   1676419  
  8320.000000   1675132   1674295   1673992   1674126   1674458  
  8310.000000   1674741   1674807   1674653   1674402   1674263  
  8300.000000   1674403   1674899   1675691   1676607   1677438  
  8290.000000   1677975   1678089   1677694   1676762   1675289  
  8280.000000   1673319   1670969   1668453   1666075   1664171  
  8270.000000   1663042   1662854   1663569   1664935   1666544  
  8260.000000   1667952   1668807   1668935   1668364   1667294  
  8250.000000   1666020   1664845   1664008   1663646   1663783  
  8240.000000   1664352   1665219   1666199   1667091   1667685  
  8230.000000   1667820   1667399   1666431   1665022   1663356  
  8220.000000   1661636   1660034   1658655   1657526   1656603  
  8210.000000   1655819   1655100   1654409   1653723   1653049  
  8200.000000   1652380   1651720   1651058   1650407   1649781  
  8190.000000   1649216   1648736   1648340   1647988   1647597  
  8180.000000   1647063   1646283   1645184   1643728   1641921  
  8170.000000   1639796   1637412   1634858   1632251   1629744  
  8160.000000   1627499   1625670   1624347   1623543   1623156  
  8150.000000   1623012   1622901   1622643   1622152   1621434  
  8140.000000   1620589   1619726   1618936   1618216   1617511  
  8130.000000   1616718   1615765   1614655   1613480   1612418  
  8120.000000   1611656   1611359   1611581   1612274   1613271  
  8110.000000   1614345   1615241   1615725   1615621   1614819  
  8100.000000   1613298   1611118   1608434   1605464   1602478  
  8090.000000   1599735   1597442   1595703   1594491   1593677  
  8080.000000   1593058   1592446   1591702   1590803   1589814  
  8070.000000   1588872   1588119   1587650   1587486   1587555  
  8060.000000   1587737   1587878   1587850   1587558   1586971  
  8050.000000   1586101   1584998   1583734   1582389   1581039  
  8040.000000   1579749   1578556   1577471   1576467   1575499  
  8030.000000   1574507   1573446   1572303   1571099   1569902  
  8020.000000   1568801   1567888   1567247   1566923   1566929  
  8010.000000   1567221   1567727   1568324   1568880   1569254  
  8000.000000   1569341   1569082   1568499   1567688   1566814  
  7990.000000   1566067   1565621   1565596   1566017   1566823  
  7980.000000   1567866   1568968   1569939   1570633   1570952  
  7970.000000   1570867   1570400   1569614   1568589   1567415  
  7960.000000   1566169   1564918   1563704   1562557   1561484  
  7950.000000   1560494   1559591   1558789   1558097   1557514  
  7940.000000   1557023   1556574   1556105   1555544   1554851  
  7930.000000   1554023   1553119   1552245   1551531   1551097  
  7920.000000   1551025   1551331   1551970   1552838   1553808  
  7910.000000   1554734   1555494   1555980   1556130   1555917  
  7900.000000   1555370   1554561   1553607   1552646   1551815  
  7890.000000   1551218   1550908   1550879   1551073   1551402  
  7880.000000   1551772   1552100   1552329   1552428   1552384  
  7870.000000   1552200   1551892   1551501   1551091   1550753  
  7860.000000   1550587   1550680   1551076   1551759   1552635  
  7850.000000   1553558   1554351   1554848   1554935   1554564  
  7840.000000   1553772   1552651   1551338   1549975   1548689  
  7830.000000   1547580   1546705   1546101   1545769   1545707  
  7820.000000   1545887   1546276   1546809   1547408   1547980  
  7810.000000   1548431   1548688   1548708   1548495   1548082  
  7800.000000   1547523   1546868   1546148   1545377   1544557  
  7790.000000   1543713   1542891   1542180   1541670   1541434  
  7780.000000   1541475   1541716   1541996   1542119   1541901  
  7770.000000   1541228   1540099   1538611   1536938   1535271  
  7760.000000   1533770   1532527   1531563   1530848   1530329  
  7750.000000   1529960   1529709   1529561   1529502   1529501  
  7740.000000   1529513   1529477   1529337   1529048   1528596  
  7730.000000   1527996   1527293   1526555   1525863   1525300  
  7720.000000   1524932   1524789   1524853   1525043   1525239  
  7710.000000   1525296   1525095   1524568   1523730   1522669  
  7700.000000   1521522   1520437   1519532   1518872   1518467  
  7690.000000   1518292   1518305   1518481   1518800   1519256  
  7680.000000   1519823   1520453   1521067   1521564   1521854  
  7670.000000   1521867   1521584   1521024   1520258   1519368  
  7660.000000   1518450   1517586   1516836   1516237   1515786  
  7650.000000   1515469   1515250   1515109   1515031   1515036  
  7640.000000   1515153   1515412   1515813   1516299   1516770  
  7630.000000   1517074   1517079   1516689   1515907   1514820  
  7620.000000   1513595   1512425   1511478   1510866   1510626  
  7610.000000   1510735   1511128   1511727   1512450   1513217  
  7600.000000   1513941   1514537   1514928   1515065   1514961  
  7590.000000   1514679   1514348   1514096   1514041   1514219  
  7580.000000   1514604   1515100   1515595   1516000   1516277  
  7570.000000   1516453   1516603   1516827   1517207   1517789  
  7560.000000   1518580   1519543   1520617   1521715   1522747  
  7550.000000   1523615   1524245   1524592   1524676   1524573  
  7540.000000   1524417   1524357   1524532   1525017   1525813  
  7530.000000   1526845   1527988   1529116   1530138   1531021  
  7520.000000   1531789   1532496   1533207   1533964   1534788  
  7510.000000   1535667   1536596   1537558   1538558   1539597  
  7500.000000   1540677   1541790   1542923   1544067   1545226  
  7490.000000   1546423   1547700   1549097   1550639   1552310  
  7480.000000   1554057   1555788   1557409   1558832   1560012  
  7470.000000   1560947   1561693   1562333   1562978   1563727  
  7460.000000   1564664   1565831   1567241   1568858   1570627  
  7450.000000   1572472   1574329   1576148   1577912   1579627  
  7440.000000   1581329   1583053   1584835   1586688   1588612  
  7430.000000   1590592   1592610   1594654   1596718   1598806  
  7420.000000   1600916   1603045   1605175   1607285   1609351  
  7410.000000   1611357   1613298   1615175   1616986   1618723  
  7400.000000   1620363   1621884   1623269   1624526   1625696  
  7390.000000   1626847   1628060   1629401   1630900   1632542  
  7380.000000   1634267   1635998   1637663   1639237   1640742  
  7370.000000   1642249   1643850   1645625   1647614   1649799  
  7360.000000   1652113   1654447   1656693   1658760   1660604  
  7350.000000   1662225   1663674   1665033   1666396   1667852  
  7340.000000   1669455   1671218   1673106   1675051   1676964  
  7330.000000   1678767   1680409   1681897   1683281   1684648  
  7320.000000   1686078   1687624   1689282   1691001   1692691  
  7310.000000   1694270   1695688   1696949   1698104   1699221  
  7300.000000   1700351   1701503   1702631   1703664   1704530  
  7290.000000   1705206   1705722   1706176   1706692   1707392  
  7280.000000   1708348   1709580   1711035   1712625   1714236  
  7270.000000   1715766   1717133   1718287   1719213   1719919  
  7260.000000   1720442   1720825   1721134   1721422   1721746  
  7250.000000   1722126   1722576   1723074   1723605   1724158  
  7240.000000   1724757   1725453   1726332   1727476   1728964  
  7230.000000   1730822   1733039   1735538   1738223   1740966  
  7220.000000   1743668   1746235   1748637   1750872   1753007  
  7210.000000   1755117   1757308   1759657   1762226   1765012  
  7200.000000   1767982   1771059   1774173   1777259   1780301  
  7190.000000   1783302   1786305   1789347   1792463   1795654  
  7180.000000   1798909   1802195   1805494   1808793   1812113  
  7170.000000   1815476   1818918   1822447   1826067   1829739  
  7160.000000   1833433   1837101   1840731   1844322   1847917  
  7150.000000   1851565   1855341   1859291   1863458   1867825  
  7140.000000   1872363   1876994   1881659   1886295   1890895  
  7130.000000   1895475   1900101   1904840   1909773   1914942  
  7120.000000   1920377   1926048   1931917   1937906   1943946  
  7110.000000   1949953   1955874   1961662   1967321   1972869  
  7100.000000   1978382   1983933   1989612   1995462   2001502  
  7090.000000   2007691   2013974   2020288   2026608   2032946  
  7080.000000   2039352   2045879   2052557   2059365   2066235  
  7070.000000   2073064   2079763   2086279   2092619   2098829  
  7060.000000   2104974   2111100   2117218   2123312   2129357  
  7050.000000   2135345   2141298   2147262   2153274   2159340  
  7040.000000   2165411   2171407   2177241   2182870   2188312  
  7030.000000   2193660   2199032   2204538   2210217   2216045  
  7020.000000   2221922   2227743   2233419   2238926   2244286  
  7010.000000   2249555   2254771   2259939   2265015   2269941  
  7000.000000   2274662   2279179   2283526   2287789   2292042  
  6990.000000   2296358   2300750   2305213   2309696   2314159  
  6980.000000   2318539   2322792   2326853   2330676   2334203  
  6970.000000   2337425   2340353   2343067   2345658   2348246  
  6960.000000   2350900   2353664   2356505   2359374   2362182  
  6950.000000   2364876   2367403   2369756   2371920   2373900  
  6940.000000   2375686   2377291   2378725   2380035   2381275  
  6930.000000   2382512   2383794   2385146   2386553   2387982  
  6920.000000   2389381   2390715   2391952   2393090   2394137  
  6910.000000   2395114   2396045   2396963   2397896   2398876  
  6900.000000   2399921   2401037   2402205   2403397   2404576  
  6890.000000   2405720   2406817   2407883   2408930   2409971  
  6880.000000   2411001   2411993   2412916   2413744   2414467  
  6870.000000   2415093   2415643   2416134   2416573   2416960  
  6860.000000   2417290   2417585   2417887   2418270   2418803  
  6850.000000   2419537   2420468   2421545   2422668   2423733  
  6840.000000   2424651   2425378   2425914   2426298   2426575  
  6830.000000   2426792   2426981   2427167   2427370   2427610  
  6820.000000   2427902   2428243   2428603   2428928   2429152  
  6810.000000   2429223   2429118   2428863   2428518   2428164  
  6800.000000   2427869   2427679   2427601   2427624   2427719  
  6790.000000   2427870   2428059   2428276   2428501   2428704  
  6780.000000   2428843   2428878   2428780   2428537   2428159  
  6770.000000   2427665   2427078   2426423   2425725   2425023  
  6760.000000   2424360   2423795   2423369   2423099   2422952  
  6750.000000   2422853   2422699   2422395   2421883   2421158  
  6740.000000   2420273   2419313   2418367   2417499   2416737  
  6730.000000   2416074   2415485   2414945   2414438   2413967  
  6720.000000   2413536   2413157   2412828   2412548   2412302  
  6710.000000   2412074   2411836   2411553   2411176   2410654  
  6700.000000   2409946   2409040   2407959   2406769   2405554  
  6690.000000   2404404   2403370   2402468   2401663   2400899  
  6680.000000   2400104   2399235   2398268   2397217   2396107  
  6670.000000   2394977   2393852   2392749   2391670   2390610  
  6660.000000   2389551   2388474   2387351   2386165   2384901  
  6650.000000   2383569   2382192   2380810   2379459   2378166  
  6640.000000   2376929   2375726   2374517   2373268   2371953  
  6630.000000   2370571   2369133   2367660   2366162   2364652  
  6620.000000   2363128   2361601   2360080   2358588   2357141  
  6610.000000   2355742   2354373   2352994   2351556   2350020  
  6600.000000   2348369   2346611   2344776   2342900   2341018  
  6590.000000   2339150   2337317   2335536   2333833   2332235  
  6580.000000   2330756   2329391   2328105   2326842   2325543  
  6570.000000   2324172   2322727   2321244   2319778   2318374  
  6560.000000   2317051   2315789   2314542   2313262   2311922  
  6550.000000   2310528   2309116   2307728   2306390   2305095  
  6540.000000   2303807   2302478   2301077   2299604   2298099  
  6530.000000   2296615   2295207   2293902   2292691   2291536  
  6520.000000   2290393   2289226   2288024   2286805   2285600  
  6510.000000   2284444   2283366   2282375   2281471   2280640  
  6500.000000   2279865   2279120   2278374   2277596   2276758  
  6490.000000   2275847   2274868   2273849   2272822   2271823  
  6480.000000   2270865   2269940   2269022   2268077   2267075  
  6470.000000   2266006   2264873   2263688   2262462   2261203  
  6460.000000   2259912   2258598   2257285   2256012   2254831  
  6450.000000   2253785   2252895   2252148   2251498   2250880  
  6440.000000   2250230   2249503   2248684   2247784   2246835  
  6430.000000   2245870   2244922   2244009   2243150   2242355  
  6420.000000   2241635   2240998   2240446   2239969   2239547  
  6410.000000   2239155   2238767   2238363   2237932   2237471  
  6400.000000   2236983   2236474   2235953   2235426   2234905  
  6390.000000   2234395   2233898   2233408   2232915   2232407  
  6380.000000   2231878   2231338   2230810   2230326   2229909  
  6370.000000   2229566   2229274   2228990   2228658   2228238  
  6360.000000   2227716   2227110   2226463   2225822   2225221  
  6350.000000   2224668   2224144   2223617   2223056   2222447  
  6340.000000   2221791   2221112   2220433   2219775   2219146  
  6330.000000   2218545   2217957   2217365   2216744   2216068  
  6320.000000   2215304   2214432   2213435   2212331   2211152  
  6310.000000   2209961   2208818   2207773   2206836   2205986  
  6300.000000   2205160   2204294   2203323   2202221   2200983  
  6290.000000   2199641   2198226   2196771   2195283   2193765  
  6280.000000   2192199   2190578   2188892   2187150   2185362  
  6270.000000   2183548   2181724   2179915   2178135   2176404  
  6260.000000   2174723   2173092   2171486   2169877   2168230  
  6250.000000   2166523   2164747   2162919   2161062   2159205  
  6240.000000   2157361   2155523   2153667   2151760   2149774  
  6230.000000   2147703   2145558   2143376   2141202   2139082  
  6220.000000   2137047   2135117   2133291   2131556   2129886  
  6210.000000   2128248   2126610   2124941   2123222   2121448  
  6200.000000   2119628   2117779   2115927   2114090   2112285  
  6190.000000   2110510   2108764   2107038   2105327   2103626  
  6180.000000   2101933   2100246   2098565   2096894   2095244  
  6170.000000   2093635   2092093   2090643   2089297   2088048  
  6160.000000   2086871   2085726   2084575   2083392   2082172  
  6150.000000   2080926   2079675   2078431   2077196   2075950  
  6140.000000   2074669   2073333   2071938   2070498   2069043  
  6130.000000   2067599   2066188   2064811   2063459   2062120  
  6120.000000   2060794   2059492   2058242   2057074   2056013  
  6110.000000   2055060   2054206   2053419   2052673   2051935  
  6100.000000   2051196   2050447   2049695   2048946   2048216  
  6090.000000   2047515   2046866   2046285   2045798   2045410  
  6080.000000   2045127   2044924   2044774   2044632   2044466  
  6070.000000   2044248   2043983   2043684   2043395   2043157  
  6060.000000   2043021   2043011   2043152   2043432   2043842  
  6050.000000   2044351   2044950   2045625   2046393   2047266  
  6040.000000   2048271   2049409   2050676   2052029   2053430  
  6030.000000   2054829   2056211   2057575   2058962   2060417  
  6020.000000   2061994   2063715   2065582   2067560   2069608  
  6010.000000   2071670   2073717   2075722   2077688   2079610  
  6000.000000   2081502   2083364   2085210   2087054   2088925  
  5990.000000   2090851   2092865   2094982   2097209   2099527  
  5980.000000   2101920   2104364   2106854   2109389   2111981  
  5970.000000   2114633   2117348   2120109   2122907   2125723  
  5960.000000   2128562   2131422   2134319   2137249   2140206  
  5950.000000   2143162   2146092   2148972   2151801   2154598  
  5940.000000   2157402   2160256   2163200   2166255   2169423  
  5930.000000   2172692   2176040   2179445   2182877   2186307  
  5920.000000   2189701   2193018   2196222   2199285   2202197  
  5910.000000   2204964   2207604   2210139   2212584   2214954  
  5900.000000   2217258   2219520   2221772   2224067   2226451  
  5890.000000   2228965   2231609   2234358   2237146   2239906  
  5880.000000   2242574   2245118   2247536   2249853   2252103  
  5870.000000   2254311   2256487   2258624   2260707   2262722  
  5860.000000   2264671   2266562   2268420   2270266   2272127  
  5850.000000   2274026   2275984   2278025   2280168   2282422  
  5840.000000   2284785   2287234   2289737   2292260   2294775  
  5830.000000   2297272   2299761   2302257   2304779   2307327  
  5820.000000   2309885   2312424   2314904   2317297   2319583  
  5810.000000   2321765   2323850   2325858   2327792   2329668  
  5800.000000   2331469   2333210   2334873   2336478   2338011  
  5790.000000   2339489   2340884   2342187   2343336   2344281  
  5780.000000   2344924   2345185   2344968   2344222   2342924  
  5770.000000   2341122   2338907   2336428   2333835   2331285  
  5760.000000   2328879   2326690   2324726   2322984   2321431  
  5750.000000   2320050   2318819   2317730   2316766   2315905  
  5740.000000   2315120   2314378   2313665   2312965   2312291  
  5730.000000   2311647   2311048   2310490   2309974   2309486  
  5720.000000   2309025   2308590   2308195   2307845   2307550  
  5710.000000   2307302   2307094   2306910   2306745   2306598  
  5700.000000   2306478   2306397   2306360   2306366   2306405  
  5690.000000   2306471   2306556   2306667   2306802   2306966  
  5680.000000   2307139   2307293   2307374   2307335   2307123  
  5670.000000   2306712   2306085   2305250   2304216   2303007  
  5660.000000   2301640   2300147   2298558   2296922   2295278  
  5650.000000   2293673   2292128   2290660   2289259   2287919  
  5640.000000   2286624   2285370   2284153   2282974   2281830  
  5630.000000   2280713   2279612   2278519   2277435   2276364  
  5620.000000   2275320   2274309   2273332   2272378   2271434  
  5610.000000   2270486   2269533   2268583   2267656   2266769  
  5600.000000   2265933   2265148   2264404   2263692   2263002  
  5590.000000   2262338   2261702   2261097   2260511   2259923  
  5580.000000   2259298   2258607   2257827   2256951   2255987  
  5570.000000   2254952   2253860   2252722   2251544   2250331  
  5560.000000   2249096   2247860   2246647   2245484   2244384  
  5550.000000   2243349   2242366   2241420   2240496   2239586  
  5540.000000   2238686   2237796   2236910   2236016   2235100  
  5530.000000   2234150   2233167   2232162   2231151   2230152  
  5520.000000   2229173   2228211   2227254   2226288   2225301  
  5510.000000   2224297   2223277   2222249   2221213   2220166  
  5500.000000   2219097   2218007   2216901   2215799   2214717  
  5490.000000   2213666   2212634   2211593   2210502   2209328  
  5480.000000   2208049   2206673   2205222   2203730   2202220  
  5470.000000   2200707   2199182   2197639   2196066   2194468  
  5460.000000   2192853   2191234   2189610   2187978   2186315  
  5450.000000   2184607   2182841   2181024   2179175   2177317  
  5440.000000   2175472   2173650   2171854   2170085   2168348  
  5430.000000   2166648   2164996   2163384   2161804   2160229  
  5420.000000   2158651   2157066   2155515   2154048   2152739  
  5410.000000   2151630   2150743   2150041   2149481   2148998  
  5400.000000   2148570   2148188   2147890   2147703   2147669  
  5390.000000   2147780   2148031   2148377   2148812   2149321  
  5380.000000   2149943   2150701   2151643   2152765   2154077  
  5370.000000   2155529   2157107   2158761   2160502   2162308  
  5360.000000   2164223   2166243   2168433   2170803   2173437  
  5350.000000   2176357   2179653   2183328   2187442   2191959  
  5340.000000   2196909   2202240   2207996   2214141   2220734  
  5330.000000   2227727   2235166   2242973   2251185   2259738  
  5320.000000   2268716   2278112   2288064   2298584   2309803  
  5310.000000   2321688   2334315   2347605   2361614   2376272  
  5300.000000   2391664   2407762   2424688   2442436   2461121  
  5290.000000   2480705   2501233   2522577   2544681   2567354  
  5280.000000   2590530   2614092   2638090   2662550   2687619  
  5270.000000   2713346   2739768   2766765   2794156   2821694  
  5260.000000   2849173   2876478   2903592   2930595   2957549  
  5250.000000   2984494   3011320   3037881   3063905   3089230  
  5240.000000   3113676   3137281   3160052   3182169   3203671  
  5230.000000   3224690   3245146   3265042   3284198   3302586  
  5220.000000   3320062   3336687   3352425   3367432   3381722  
  5210.000000   3395449   3408566   3421132   3432998   3444156  
  5200.000000   3454453   3463939   3472564   3480470   3487667  
  5190.000000   3494297   3500324   3505818   3510687   3514974  
  5180.000000   3518609   3521676   3524147   3526124   3527573  
  5170.000000   3528563   3529037   3529052   3528566   3527657  
  5160.000000   3526304   3524575   3522426   3519891   3516908  
  5150.000000   3513511   3509682   3505499   3500988   3496240  
  5140.000000   3491269   3486128   3480793   3475292   3469606  
  5130.000000   3463778   3457816   3451775   3445662   3439510  
  5120.000000   3433307   3427060   3420754   3414397   3407986  
  5110.000000   3401538   3395056   3388557   3382050   3375557  
  5100.000000   3369096   3362694   3356366   3350119   3343942  
  5090.000000   3337817   3331715   3325620   3319520   3313423  
  5080.000000   3307334   3301264   3295207   3289155   3283088  
  5070.000000   3276994   3270861   3264695   3258501   3252292  
  5060.000000   3246063   3239809   3233506   3227139   3220690  
  5050.000000   3214161   3207561   3200910   3194223   3187517  
  5040.000000   3180797   3174067   3167330   3160593   3153869  
  5030.000000   3147174   3140527   3133940   3127426   3120986  
  5020.000000   3114633   3108369   3102211   3096164   3090248  
  5010.000000   3084460   3078811   3073288   3067897   3062621  
  5000.000000   3057473   3052439   3047538   3042759   3038129  
  4990.000000   3033641   3029334   3025210   3021319   3017663  
  4980.000000   3014283   3011162   3008323   3005732   3003412  
  4970.000000   3001336   2999545   2998030   2996842   2995969  
  4960.000000   2995453   2995262   2995430   2995924   2996784  
  4950.000000   2997985   2999570   3001505   3003810   3006424  
  4940.000000   3009350   3012519   3015943   3019579   3023469  
  4930.000000   3027597   3032019   3036723   3041760   3047111  
  4920.000000   3052813   3058840   3065216   3071906   3078920  
  4910.000000   3086211   3093778   3101576   3109600   3117815  
  4900.000000   3126217   3134774   3143474   3152285   3161185  
  4890.000000   3170147   3179143   3188152   3197137   3206070  
  4880.000000   3214894   3223573   3232037   3240253   3248158  
  4870.000000   3255735   3262937   3269768   3276194   3282235  
  4860.000000   3287871   3293136   3298024   3302584   3306815  
  4850.000000   3310768   3314443   3317886   3321092   3324107  
  4840.000000   3326926   3329595   3332116   3334535   3336857  
  4830.000000   3339123   3341333   3343513   3345655   3347765  
  4820.000000   3349831   3351855   3353832   3355774   3357687  
  4810.000000   3359589   3361485   3363378   3365257   3367112  
  4800.000000   3368925   3370688   3372397   3374062   3375696  
  4790.000000   3377317   3378937   3380567   3382208   3383865  
  4780.000000   3385534   3387218   3388908   3390598   3392263  
  4770.000000   3393883   3395419   3396852   3398154   3399324  
  4760.000000   3400360   3401283   3402097   3402822   3403450  
  4750.000000   3403987   3404411   3404721   3404898   3404949  
  4740.000000   3404866   3404668   3404358   3403955   3403465  
  4730.000000   3402900   3402258   3401543   3400746   3399867  
  4720.000000   3398905   3397871   3396782   3395664   3394544  
  4710.000000   3393451   3392408   3391432   3390535   3389725  
  4700.000000   3389009   3388392   3387886   3387494   3387225  
  4690.000000   3387075   3387046   3387127   3387311   3387576  
  4680.000000   3387907   3388268   3388633   3388959   3389224  
  4670.000000   3389401   3389499   3389530   3389540   3389569  
  4660.000000   3389676   3389896   3390269   3390809   3391532  
  4650.000000   3392437   3393528   3394799   3396248   3397861  
  4640.000000   3399625   3401516   3403508   3405569   3407670  
  4630.000000   3409777   3411864   3413901   3415867   3417747  
  4620.000000   3419527   3421204   3422767   3424212   3425523  
  4610.000000   3426691   3427697   3428544   3429234   3429798  
  4600.000000   3430261   3430670   3431045   3431416   3431777  
  4590.000000   3432128   3432441   3432705   3432895   3433007  
  4580.000000   3433022   3432941   3432747   3432440   3432010  
  4570.000000   3431464   3430803   3430046   3429200   3428282  
  4560.000000   3427291   3426237   3425116   3423937   3422704  
  4550.000000   3421434   3420135   3418817   3417482   3416127  
  4540.000000   3414752   3413357   3411960   3410578   3409249  
  4530.000000   3407996   3406856   3405832   3404948   3404188  
  4520.000000   3403574   3403086   3402753   3402560   3402549  
  4510.000000   3402707   3403094   3403710   3404641   3405903  
  4500.000000   3407602   3409751   3412449   3415683   3419528  
  4490.000000   3423950   3429013   3434682   3441027   3448015  
  4480.000000   3455712   3464072   3473137   3482840   3493198  
  4470.000000   3504127   3515628   3527608   3540058   3552884  
  4460.000000   3566069   3579527   3593237   3607123   3621164  
  4450.000000   3635294   3649494   3663717   3677954   3692188  
  4440.000000   3706413   3720630   3734813   3748955   3763001  
  4430.000000   3776932   3790680   3804239   3817544   3830608  
  4420.000000   3843355   3855787   3867796   3879354   3890324  
  4410.000000   3900667   3910250   3919056   3926994   3934090  
  4400.000000   3940309   3945727   3950360   3954322   3957665  
  4390.000000   3960523   3962965   3965123   3967065   3968906  
  4380.000000   3970702   3972541   3974467   3976546   3978815  
  4370.000000   3981325   3984113   3987216   3990661   3994466  
  4360.000000   3998632   4003145   4007970   4013064   4018350  
  4350.000000   4023768   4029220   4034667   4040035   4045339  
  4340.000000   4050556   4055724   4060792   4065693   4070207  
  4330.000000   4074053   4076832   4078175   4077765   4075493  
  4320.000000   4071454   4066016   4059694   4053119   4046842  
  4310.000000   4041314   4036752   4033217   4030584   4028686  
  4300.000000   4027315   4026325   4025609   4025110   4024799  
  4290.000000   4024638   4024611   4024675   4024829   4025061  
  4280.000000   4025402   4025875   4026505   4027308   4028270  
  4270.000000   4029380   4030586   4031843   4033044   4034069  
  4260.000000   4034727   4034817   4034122   4032483   4029815  
  4250.000000   4026169   4021695   4016659   4011351   4006081  
  4240.000000   4001077   3996514   3992446   3988877   3985726  
  4230.000000   3982904   3980292   3977784   3975288   3972730  
  4220.000000   3970081   3967327   3964519   3961707   3958994  
  4210.000000   3956444   3954144   3952118   3950397   3948954  
  4200.000000   3947775   3946812   3946048   3945436   3944969  
  4190.000000   3944606   3944354   3944177   3944099   3944094  
  4180.000000   3944200   3944400   3944740   3945211   3945878  
  4170.000000   3946755   3947939   3949471   3951463   3953944  
  4160.000000   3956990   3960573   3964712   3969330   3974426  
  4150.000000   3979927   3985858   3992177   3998940   4006119  
  4140.000000   4013775   4021873   4030463   4039497   4049012  
  4130.000000   4058947   4069324   4080078   4091226   4102717  
  4120.000000   4114587   4126812   4139449   4152492   4165994  
  4110.000000   4179937   4194340   4209157   4224373   4239915  
  4100.000000   4255746   4271788   4288001   4304322   4320727  
  4090.000000   4337183   4353685   4370226   4386808   4403443  
  4080.000000   4420132   4436898   4453728   4470639   4487579  
  4070.000000   4504525   4521369   4538050   4554436   4570483  
  4060.000000   4586086   4601249   4615903   4630079   4643706  
  4050.000000   4656823   4669360   4681375   4692812   4703748  
  4040.000000   4714114   4723966   4733194   4741828   4749750  
  4030.000000   4757004   4763492   4769270   4774252   4778470  
  4020.000000   4781807   4784313   4785963   4786857   4786975  
  4010.000000   4786481   4785470   4783970   4781756   4778882  
  4000.000000   4775669  
##END= 
