##TITLE= Sample 017 By ssteindl date Dienstag, November 20 2018
##JCAMP-DX= 4.24
##DATA TYPE= INFRARED SPECTRUM
##ORIGIN= Exported PE Spectrum Data File
##OWNER= Sandra Steindl
##DATE= 18/11/20
##TIME= 14:39:19.00
##SPECTROMETER/DATA SYSTEM= PERKIN-ELMER Frontier FT-IR/NIR IR
##INSTRUMENT PARAMETERS=
  APODIZATION=stark
  DETECTOR=INGAAS
##RESOLUTION= 16.000000
##DELTAX= -2.000000
##XUNITS= 1/CM
##YUNITS= A
##XFACTOR= 1.00
##YFACTOR= 0.00000011920928955078
##FIRSTX= 10000.00
##LASTX= 4000.00
##NPOINTS= 3001
##FIRSTY= 0.234415
##MAXY= 0.571772
##MINY= 0.209100
##XYDATA= (X++(Y..Y))
 10000.000000   1966417   1967013   1968512   1971448   1974502  
  9990.000000   1975567   1973567   1968979   1963057   1957439  
  9980.000000   1953827   1953443   1956412   1961820   1968172  
  9970.000000   1973845   1977477   1978217   1975899   1970903  
  9960.000000   1964109   1956655   1949792   1944647   1941988  
  9950.000000   1942068   1944492   1948417   1952741   1956609  
  9940.000000   1959566   1961780   1963749   1966019   1968794  
  9930.000000   1971697   1973936   1974479   1972620   1968146  
  9920.000000   1961544   1953765   1945885   1938840   1933135  
  9910.000000   1929036   1926570   1925847   1926933   1929838  
  9900.000000   1934218   1939302   1943946   1946887   1947180  
  9890.000000   1944429   1939015   1931823   1924064   1916791  
  9880.000000   1910755   1906268   1903335   1901842   1901648  
  9870.000000   1902697   1904831   1907798   1911097   1914147  
  9860.000000   1916415   1917611   1917807   1917278   1916426  
  9850.000000   1915445   1914334   1912847   1910726   1907866  
  9840.000000   1904457   1900973   1898034   1896184   1895713  
  9830.000000   1896569   1898405   1900704   1902901   1904534  
  9820.000000   1905286   1905078   1904077   1902715   1901631  
  9810.000000   1901535   1903012   1906277   1911011   1916345  
  9800.000000   1921038   1923861   1923962   1921208   1916229  
  9790.000000   1910246   1904705   1900772   1899055   1899369  
  9780.000000   1900929   1902571   1903186   1902011   1898862  
  9770.000000   1894168   1888868   1884198   1881399   1881420  
  9760.000000   1884681   1890921   1899250   1908323   1916693  
  9750.000000   1923192   1927225   1928924   1928996   1928480  
  9740.000000   1928331   1929150   1931028   1933607   1936249  
  9730.000000   1938269   1939097   1938402   1936084   1932292  
  9720.000000   1927336   1921695   1915881   1910429   1905705  
  9710.000000   1901918   1899027   1896882   1895307   1894266  
  9700.000000   1893898   1894456   1896113   1898738   1901767  
  9690.000000   1904257   1905198   1903879   1900268   1895076  
  9680.000000   1889608   1885297   1883231   1883758   1886381  
  9670.000000   1889960   1893099   1894638   1893955   1891114  
  9660.000000   1886725   1881693   1876923   1873076   1870504  
  9650.000000   1869206   1868940   1869247   1869581   1869395  
  9640.000000   1868296   1866200   1863396   1860531   1858418  
  9630.000000   1857738   1858824   1861429   1864869   1868160  
  9620.000000   1870434   1871168   1870375   1868537   1866413  
  9610.000000   1864774   1864191   1864918   1866931   1869984  
  9600.000000   1873727   1877737   1881542   1884670   1886669  
  9590.000000   1887305   1886590   1884921   1882935   1881388  
  9580.000000   1880882   1881679   1883615   1886118   1888403  
  9570.000000   1889655   1889264   1886931   1882743   1877103  
  9560.000000   1870677   1864258   1858690   1854715   1852864  
  9550.000000   1853322   1855868   1859922   1864694   1869430  
  9540.000000   1873600   1877024   1879837   1882344   1884860  
  9530.000000   1887528   1890306   1892975   1895281   1897033  
  9520.000000   1898160   1898729   1898841   1898618   1898106  
  9510.000000   1897341   1896309   1895030   1893475   1891616  
  9500.000000   1889335   1886534   1883129   1879231   1875102  
  9490.000000   1871217   1868063   1866017   1865157   1865206  
  9480.000000   1865607   1865678   1864856   1862822   1859602  
  9470.000000   1855469   1850904   1846406   1842503   1839617  
  9460.000000   1838094   1838087   1839523   1842052   1845086  
  9450.000000   1847939   1850034   1851116   1851392   1851456  
  9440.000000   1852069   1853772   1856621   1860059   1863152  
  9430.000000   1864936   1864864   1863008   1860068   1857086  
  9420.000000   1855057   1854541   1855459   1857173   1858772  
  9410.000000   1859492   1858983   1857450   1855439   1853671  
  9400.000000   1852678   1852766   1853906   1855898   1858435  
  9390.000000   1861180   1863786   1865817   1866804   1866253  
  9380.000000   1863837   1859483   1853522   1846623   1839716  
  9370.000000   1833723   1829369   1827019   1826629   1827873  
  9360.000000   1830209   1833109   1836092   1838879   1841340  
  9350.000000   1843501   1845448   1847233   1848867   1850221  
  9340.000000   1851154   1851429   1850899   1849459   1847181  
  9330.000000   1844268   1841026   1837824   1834954   1832680  
  9320.000000   1831137   1830463   1830732   1832018   1834274  
  9310.000000   1837292   1840658   1843769   1846004   1846817  
  9300.000000   1845942   1843407   1839568   1835003   1830374  
  9290.000000   1826308   1823279   1821612   1821470   1822896  
  9280.000000   1825742   1829622   1833859   1837590   1839929  
  9270.000000   1840202   1838155   1834069   1828779   1823428  
  9260.000000   1819208   1816921   1816845   1818650   1821579  
  9250.000000   1824654   1826920   1827745   1826949   1824884  
  9240.000000   1822236   1819869   1818568   1818878   1820954  
  9230.000000   1824453   1828617   1832448   1835033   1835773  
  9220.000000   1834541   1831698   1827967   1824205   1821129  
  9210.000000   1819104   1818124   1817883   1817994   1818118  
  9200.000000   1818079   1817871   1817595   1817399   1817365  
  9190.000000   1817537   1817911   1818544   1819522   1820958  
  9180.000000   1822885   1825241   1827835   1830408   1832671  
  9170.000000   1834371   1835324   1835391   1834489   1832509  
  9160.000000   1829421   1825260   1820280   1814901   1809698  
  9150.000000   1805251   1801993   1800123   1799527   1799951  
  9140.000000   1801064   1802700   1804835   1807610   1811158  
  9130.000000   1815444   1820171   1824755   1828530   1830836  
  9120.000000   1831319   1829939   1827092   1823379   1819491  
  9110.000000   1815996   1813261   1811448   1810503   1810305  
  9100.000000   1810667   1811487   1812672   1814203   1816019  
  9090.000000   1818049   1820153   1822135   1823770   1824809  
  9080.000000   1825074   1824457   1822999   1820867   1818365  
  9070.000000   1815863   1813734   1812261   1811571   1811614  
  9060.000000   1812159   1812853   1813288   1813141   1812272  
  9050.000000   1810781   1808984   1807341   1806319   1806250  
  9040.000000   1807199   1808956   1811113   1813195   1814827  
  9030.000000   1815838   1816312   1816469   1816534   1816580  
  9020.000000   1816496   1816008   1814820   1812805   1810130  
  9010.000000   1807267   1804834   1803437   1803438   1804844  
  9000.000000   1807270   1810077   1812577   1814182   1814528  
  8990.000000   1813515   1811317   1808276   1804833   1801494  
  8980.000000   1798785   1797182   1796960   1798163   1800532  
  8970.000000   1803570   1806603   1808997   1810344   1810528  
  8960.000000   1809732   1808268   1806484   1804546   1802461  
  8950.000000   1800103   1797427   1794563   1791866   1789870  
  8940.000000   1789080   1789830   1792073   1795462   1799411  
  8930.000000   1803303   1806628   1809077   1810588   1811213  
  8920.000000   1811062   1810196   1808694   1806657   1804296  
  8910.000000   1801935   1799966   1798754   1798474   1799081  
  8900.000000   1800266   1801612   1802696   1803246   1803210  
  8890.000000   1802717   1802015   1801301   1800659   1800023  
  8880.000000   1799258   1798260   1797054   1795848   1794995  
  8870.000000   1794886   1795789   1797737   1800462   1803455  
  8860.000000   1806094   1807797   1808203   1807244   1805203  
  8850.000000   1802591   1800030   1798074   1797077   1797140  
  8840.000000   1798084   1799572   1801194   1802623   1803667  
  8830.000000   1804312   1804671   1804914   1805174   1805455  
  8820.000000   1805636   1805478   1804780   1803431   1801548  
  8810.000000   1799434   1797541   1796339   1796148   1797069  
  8800.000000   1798902   1801273   1803727   1805925   1807716  
  8790.000000   1809177   1810510   1811915   1813460   1815004  
  8780.000000   1816257   1816855   1816552   1815284   1813257  
  8770.000000   1810831   1808426   1806372   1804824   1803792  
  8760.000000   1803172   1802880   1802874   1803226   1804032  
  8750.000000   1805384   1807259   1809520   1811935   1814231  
  8740.000000   1816182   1817614   1818463   1818701   1818379  
  8730.000000   1817555   1816349   1814916   1813482   1812296  
  8720.000000   1811587   1811500   1812047   1813124   1814530  
  8710.000000   1816057   1817529   1818867   1820072   1821212  
  8700.000000   1822363   1823573   1824847   1826147   1827416  
  8690.000000   1828588   1829612   1830439   1831049   1831431  
  8680.000000   1831608   1831623   1831533   1831398   1831255  
  8670.000000   1831127   1831027   1830993   1831092   1831459  
  8660.000000   1832227   1833512   1835305   1837483   1839797  
  8650.000000   1841947   1843678   1844839   1845455   1845637  
  8640.000000   1845562   1845316   1844921   1844292   1843369  
  8630.000000   1842171   1840871   1839802   1839344   1839850  
  8620.000000   1841464   1844147   1847636   1851585   1855623  
  8610.000000   1859459   1862908   1865828   1868096   1869533  
  8600.000000   1869994   1869358   1867664   1865120   1862141  
  8590.000000   1859238   1856901   1855498   1855180   1855926  
  8580.000000   1857525   1859730   1862272   1864955   1867609  
  8570.000000   1870100   1872310   1874127   1875482   1876339  
  8560.000000   1876753   1876816   1876666   1876429   1876212  
  8550.000000   1876091   1876102   1876277   1876617   1877123  
  8540.000000   1877734   1878369   1878899   1879211   1879235  
  8530.000000   1878982   1878555   1878102   1877787   1877705  
  8520.000000   1877868   1878185   1878510   1878714   1878740  
  8510.000000   1878653   1878607   1878828   1879517   1880791  
  8500.000000   1882617   1884825   1887140   1889255   1890905  
  8490.000000   1891916   1892263   1892028   1891383   1890508  
  8480.000000   1889571   1888671   1887858   1887137   1886504  
  8470.000000   1885988   1885650   1885592   1885918   1886723  
  8460.000000   1888055   1889890   1892126   1894578   1897026  
  8450.000000   1899227   1900975   1902134   1902702   1902806  
  8440.000000   1902691   1902660   1903003   1903909   1905390  
  8430.000000   1907291   1909317   1911147   1912493   1913220  
  8420.000000   1913338   1913013   1912466   1911914   1911490  
  8410.000000   1911244   1911134   1911089   1911021   1910887  
  8400.000000   1910660   1910354   1909987   1909582   1909165  
  8390.000000   1908754   1908365   1907966   1907488   1906814  
  8380.000000   1905843   1904526   1902926   1901254   1899837  
  8370.000000   1899055   1899193   1900353   1902380   1904907  
  8360.000000   1907434   1909477   1910710   1911030   1910578  
  8350.000000   1909626   1908496   1907416   1906506   1905757  
  8340.000000   1905094   1904446   1903799   1903224   1902833  
  8330.000000   1902761   1903084   1903823   1904897   1906166  
  8320.000000   1907450   1908561   1909351   1909716   1909638  
  8310.000000   1909164   1908416   1907543   1906694   1905981  
  8300.000000   1905446   1905079   1904812   1904591   1904370  
  8290.000000   1904164   1903997   1903912   1903909   1903943  
  8280.000000   1903914   1903691   1903161   1902249   1900962  
  8270.000000   1899364   1897576   1895737   1893976   1892403  
  8260.000000   1891093   1890098   1889440   1889125   1889130  
  8250.000000   1889408   1889879   1890440   1890964   1891329  
  8240.000000   1891434   1891222   1890701   1889943   1889088  
  8230.000000   1888299   1887733   1887472   1887499   1887675  
  8220.000000   1887782   1887589   1886917   1885722   1884100  
  8210.000000   1882297   1880610   1879332   1878643   1878584  
  8200.000000   1879044   1879814   1880633   1881259   1881504  
  8190.000000   1881259   1880487   1879226   1877576   1875689  
  8180.000000   1873750   1871952   1870449   1869326   1868568  
  8170.000000   1868073   1867667   1867177   1866464   1865474  
  8160.000000   1864238   1862843   1861407   1860011   1858711  
  8150.000000   1857501   1856353   1855220   1854067   1852890  
  8140.000000   1851720   1850637   1849751   1849198   1849088  
  8130.000000   1849474   1850305   1851405   1852493   1853224  
  8120.000000   1853292   1852505   1850874   1848605   1846055  
  8110.000000   1843624   1841636   1840265   1839505   1839215  
  8100.000000   1839189   1839250   1839284   1839266   1839201  
  8090.000000   1839087   1838871   1838455   1837743   1836692  
  8080.000000   1835367   1833920   1832564   1831485   1830780  
  8070.000000   1830430   1830303   1830230   1830055   1829702  
  8060.000000   1829183   1828580   1827990   1827467   1827005  
  8050.000000   1826523   1825915   1825082   1823988   1822666  
  8040.000000   1821222   1819802   1818559   1817619   1817053  
  8030.000000   1816870   1817007   1817354   1817762   1818090  
  8020.000000   1818221   1818115   1817800   1817383   1817002  
  8010.000000   1816785   1816793   1816989   1817239   1817347  
  8000.000000   1817122   1816428   1815237   1813621   1811731  
  7990.000000   1809734   1807765   1805901   1804155   1802520  
  7980.000000   1801004   1799671   1798636   1798042   1797995  
  7970.000000   1798512   1799482   1800675   1801797   1802554  
  7960.000000   1802755   1802336   1801411   1800198   1798981  
  7950.000000   1797997   1797391   1797168   1797214   1797350  
  7940.000000   1797394   1797233   1796848   1796323   1795791  
  7930.000000   1795396   1795220   1795273   1795482   1795728  
  7920.000000   1795899   1795918   1795775   1795511   1795191  
  7910.000000   1794859   1794524   1794146   1793671   1793058  
  7900.000000   1792319   1791519   1790764   1790156   1789755  
  7890.000000   1789557   1789501   1789505   1789512   1789525  
  7880.000000   1789611   1789866   1790374   1791147   1792107  
  7870.000000   1793101   1793947   1794497   1794694   1794580  
  7860.000000   1794289   1793976   1793768   1793713   1793771  
  7850.000000   1793837   1793788   1793538   1793064   1792425  
  7840.000000   1791732   1791126   1790727   1790627   1790852  
  7830.000000   1791379   1792128   1792986   1793820   1794497  
  7820.000000   1794916   1795011   1794774   1794242   1793489  
  7810.000000   1792598   1791648   1790697   1789787   1788953  
  7800.000000   1788225   1787642   1787225   1786988   1786900  
  7790.000000   1786908   1786932   1786900   1786767   1786522  
  7780.000000   1786191   1785807   1785391   1784931   1784382  
  7770.000000   1783693   1782833   1781823   1780746   1779731  
  7760.000000   1778919   1778412   1778237   1778335   1778565  
  7750.000000   1778748   1778718   1778368   1777680   1776726  
  7740.000000   1775650   1774620   1773783   1773222   1772940  
  7730.000000   1772858   1772848   1772768   1772509   1772019  
  7720.000000   1771317   1770476   1769594   1768766   1768058  
  7710.000000   1767502   1767106   1766863   1766770   1766827  
  7700.000000   1767025   1767339   1767710   1768063   1768311  
  7690.000000   1768392   1768283   1768007   1767621   1767185  
  7680.000000   1766737   1766274   1765760   1765146   1764401  
  7670.000000   1763532   1762591   1761660   1760819   1760126  
  7660.000000   1759593   1759201   1758907   1758677   1758494  
  7650.000000   1758372   1758334   1758397   1758552   1758758  
  7640.000000   1758948   1759041   1758977   1758722   1758293  
  7630.000000   1757738   1757140   1756579   1756119   1755783  
  7620.000000   1755555   1755385   1755208   1754978   1754686  
  7610.000000   1754375   1754131   1754056   1754225   1754657  
  7600.000000   1755298   1756039   1756751   1757325   1757715  
  7590.000000   1757933   1758044   1758118   1758193   1758251  
  7580.000000   1758229   1758051   1757674   1757117   1756467  
  7570.000000   1755847   1755370   1755094   1754992   1754979  
  7560.000000   1754951   1754838   1754647   1754452   1754384  
  7550.000000   1754555   1755021   1755740   1756594   1757423  
  7540.000000   1758097   1758550   1758814   1758994   1759235  
  7530.000000   1759661   1760333   1761230   1762271   1763336  
  7520.000000   1764320   1765149   1765799   1766286   1766646  
  7510.000000   1766917   1767135   1767327   1767533   1767799  
  7500.000000   1768182   1768728   1769451   1770318   1771245  
  7490.000000   1772124   1772854   1773380   1773723   1773970  
  7480.000000   1774262   1774723   1775433   1776382   1777484  
  7470.000000   1778600   1779602   1780403   1781006   1781481  
  7460.000000   1781946   1782519   1783288   1784284   1785492  
  7450.000000   1786858   1788327   1789837   1791341   1792777  
  7440.000000   1794090   1795221   1796139   1796843   1797384  
  7430.000000   1797854   1798378   1799075   1800031   1801287  
  7420.000000   1802832   1804622   1806587   1808644   1810699  
  7410.000000   1812649   1814390   1815830   1816914   1817657  
  7400.000000   1818146   1818534   1818999   1819691   1820689  
  7390.000000   1821974   1823440   1824927   1826279   1827387  
  7380.000000   1828212   1828790   1829205   1829563   1829964  
  7370.000000   1830489   1831201   1832139   1833318   1834714  
  7360.000000   1836269   1837894   1839486   1840966   1842305  
  7350.000000   1843537   1844750   1846041   1847482   1849074  
  7340.000000   1850749   1852392   1853888   1855168   1856236  
  7330.000000   1857165   1858059   1859021   1860112   1861343  
  7320.000000   1862676   1864051   1865410   1866710   1867922  
  7310.000000   1869022   1869982   1870784   1871419   1871920  
  7300.000000   1872353   1872826   1873455   1874336   1875502  
  7290.000000   1876915   1878466   1880004   1881371   1882442  
  7280.000000   1883148   1883493   1883539   1883402   1883224  
  7270.000000   1883148   1883289   1883705   1884389   1885257  
  7260.000000   1886179   1887003   1887604   1887912   1887948  
  7250.000000   1887803   1887637   1887613   1887883   1888526  
  7240.000000   1889568   1890957   1892612   1894420   1896291  
  7230.000000   1898142   1899932   1901637   1903268   1904845  
  7220.000000   1906414   1908010   1909677   1911428   1913277  
  7210.000000   1915209   1917218   1919289   1921425   1923623  
  7200.000000   1925889   1928204   1930546   1932875   1935166  
  7190.000000   1937401   1939603   1941811   1944095   1946506  
  7180.000000   1949086   1951840   1954750   1957777   1960896  
  7170.000000   1964073   1967302   1970553   1973806   1977005  
  7160.000000   1980113   1983085   1985929   1988681   1991437  
  7150.000000   1994304   1997402   2000812   2004573   2008659  
  7140.000000   2013006   2017512   2022091   2026661   2031191  
  7130.000000   2035654   2040061   2044409   2048727   2053023  
  7120.000000   2057346   2061728   2066227   2070876   2075704  
  7110.000000   2080701   2085842   2091081   2096387   2101731  
  7100.000000   2107125   2112582   2118133   2123777   2129498  
  7090.000000   2135235   2140928   2146510   2151963   2157303  
  7080.000000   2162601   2167946   2173429   2179100   2184961  
  7070.000000   2190960   2197015   2203035   2208957   2214749  
  7060.000000   2220424   2226012   2231559   2237101   2242657  
  7050.000000   2248230   2253806   2259360   2264862   2270286  
  7040.000000   2275613   2280843   2285994   2291112   2296247  
  7030.000000   2301455   2306761   2312166   2317628   2323095  
  7020.000000   2328507   2333833   2339062   2344213   2349298  
  7010.000000   2354320   2359240   2364009   2368562   2372875  
  7000.000000   2376959   2380887   2384744   2388625   2392568  
  6990.000000   2396574   2400577   2404506   2408285   2411895  
  6980.000000   2415348   2418705   2422022   2425350   2428696  
  6970.000000   2432043   2435341   2438548   2441623   2444560  
  6960.000000   2447364   2450072   2452716   2455347   2457990  
  6950.000000   2460674   2463382   2466086   2468722   2471228  
  6940.000000   2473538   2475627   2477492   2479177   2480729  
  6930.000000   2482199   2483608   2484961   2486235   2487421  
  6920.000000   2488515   2489555   2490584   2491662   2492820  
  6910.000000   2494072   2495392   2496744   2498076   2499345  
  6900.000000   2500515   2501563   2502471   2503236   2503871  
  6890.000000   2504410   2504904   2505417   2506003   2506690  
  6880.000000   2507465   2508288   2509100   2509854   2510529  
  6870.000000   2511143   2511739   2512364   2513046   2513783  
  6860.000000   2514548   2515303   2516019   2516695   2517347  
  6850.000000   2518013   2518718   2519473   2520254   2521025  
  6840.000000   2521733   2522336   2522803   2523120   2523290  
  6830.000000   2523328   2523260   2523123   2522954   2522792  
  6820.000000   2522664   2522589   2522563   2522585   2522647  
  6810.000000   2522759   2522931   2523177   2523488   2523827  
  6800.000000   2524122   2524291   2524259   2523994   2523516  
  6790.000000   2522902   2522246   2521643   2521144   2520757  
  6780.000000   2520446   2520164   2519868   2519539   2519175  
  6770.000000   2518785   2518362   2517888   2517331   2516669  
  6760.000000   2515902   2515062   2514206   2513401   2512696  
  6750.000000   2512114   2511641   2511243   2510871   2510483  
  6740.000000   2510043   2509530   2508933   2508250   2507500  
  6730.000000   2506717   2505947   2505237   2504618   2504083  
  6720.000000   2503594   2503087   2502502   2501817   2501050  
  6710.000000   2500266   2499539   2498927   2498437   2498025  
  6700.000000   2497613   2497118   2496487   2495709   2494807  
  6690.000000   2493816   2492754   2491624   2490409   2489109  
  6680.000000   2487751   2486410   2485176   2484132   2483307  
  6670.000000   2482660   2482081   2481433   2480591   2479496  
  6660.000000   2478162   2476674   2475147   2473691   2472378  
  6650.000000   2471227   2470210   2469276   2468355   2467390  
  6640.000000   2466326   2465134   2463798   2462334   2460779  
  6630.000000   2459193   2457642   2456179   2454822   2453557  
  6620.000000   2452333   2451091   2449779   2448373   2446873  
  6610.000000   2445304   2443692   2442060   2440417   2438771  
  6600.000000   2437134   2435526   2433974   2432492   2431074  
  6590.000000   2429688   2428282   2426809   2425243   2423598  
  6580.000000   2421921   2420274   2418712   2417261   2415908  
  6570.000000   2414611   2413321   2411996   2410617   2409190  
  6560.000000   2407733   2406270   2404822   2403405   2402037  
  6550.000000   2400739   2399535   2398438   2397443   2396516  
  6540.000000   2395604   2394643   2393583   2392402   2391115  
  6530.000000   2389766   2388416   2387121   2385921   2384833  
  6520.000000   2383852   2382953   2382102   2381255   2380367  
  6510.000000   2379393   2378305   2377096   2375789   2374438  
  6500.000000   2373112   2371879   2370784   2369838   2369018  
  6490.000000   2368280   2367572   2366859   2366120   2365355  
  6480.000000   2364563   2363745   2362890   2361983   2361014  
  6470.000000   2359983   2358903   2357797   2356684   2355575  
  6460.000000   2354467   2353349   2352212   2351055   2349892  
  6450.000000   2348745   2347638   2346584   2345590   2344648  
  6440.000000   2343753   2342902   2342108   2341386   2340756  
  6430.000000   2340225   2339787   2339414   2339069   2338702  
  6420.000000   2338276   2337758   2337145   2336448   2335706  
  6410.000000   2334965   2334281   2333694   2333225   2332867  
  6400.000000   2332586   2332334   2332065   2331752   2331393  
  6390.000000   2331010   2330634   2330289   2329977   2329675  
  6380.000000   2329345   2328943   2328443   2327844   2327171  
  6370.000000   2326469   2325785   2325160   2324615   2324157  
  6360.000000   2323775   2323452   2323157   2322855   2322503  
  6350.000000   2322063   2321507   2320829   2320047   2319202  
  6340.000000   2318344   2317517   2316744   2316024   2315333  
  6330.000000   2314643   2313928   2313182   2312408   2311626  
  6320.000000   2310846   2310075   2309300   2308509   2307680  
  6310.000000   2306803   2305868   2304876   2303821   2302705  
  6300.000000   2301524   2300291   2299023   2297753   2296511  
  6290.000000   2295325   2294192   2293095   2291990   2290831  
  6280.000000   2289574   2288199   2286704   2285114   2283461  
  6270.000000   2281785   2280113   2278469   2276858   2275278  
  6260.000000   2273707   2272122   2270490   2268786   2266993  
  6250.000000   2265118   2263184   2261232   2259302   2257428  
  6240.000000   2255625   2253890   2252204   2250547   2248896  
  6230.000000   2247240   2245569   2243873   2242141   2240364  
  6220.000000   2238536   2236661   2234760   2232860   2230993  
  6210.000000   2229176   2227415   2225697   2224000   2222305  
  6200.000000   2220599   2218886   2217176   2215483   2213817  
  6190.000000   2212183   2210583   2209018   2207493   2206012  
  6180.000000   2204575   2203171   2201784   2200390   2198973  
  6170.000000   2197531   2196076   2194629   2193212   2191832  
  6160.000000   2190480   2189132   2187767   2186372   2184957  
  6150.000000   2183544   2182161   2180820   2179517   2178226  
  6140.000000   2176917   2175569   2174191   2172810   2171474  
  6130.000000   2170221   2169073   2168023   2167040   2166088  
  6120.000000   2165138   2164172   2163195   2162211   2161228  
  6110.000000   2160240   2159240   2158217   2157173   2156115  
  6100.000000   2155063   2154032   2153032   2152061   2151114  
  6090.000000   2150193   2149314   2148504   2147802   2147229  
  6080.000000   2146792   2146465   2146209   2145971   2145719  
  6070.000000   2145431   2145121   2144801   2144503   2144235  
  6060.000000   2144014   2143838   2143729   2143704   2143803  
  6050.000000   2144050   2144472   2145061   2145800   2146650  
  6040.000000   2147580   2148558   2149582   2150645   2151756  
  6030.000000   2152907   2154091   2155281   2156463   2157618  
  6020.000000   2158754   2159881   2161031   2162230   2163507  
  6010.000000   2164875   2166344   2167903   2169542   2171234  
  6000.000000   2172961   2174698   2176443   2178191   2179966  
  5990.000000   2181780   2183660   2185608   2187627   2189697  
  5980.000000   2191810   2193953   2196141   2198391   2200739  
  5970.000000   2203203   2205798   2208504   2211299   2214135  
  5960.000000   2216980   2219796   2222572   2225293   2227964  
  5950.000000   2230589   2233187   2235779   2238407   2241107  
  5940.000000   2243920   2246867   2249951   2253152   2256433  
  5930.000000   2259755   2263083   2266396   2269680   2272931  
  5920.000000   2276137   2279280   2282340   2285293   2288127  
  5910.000000   2290838   2293429   2295911   2298288   2300570  
  5900.000000   2302766   2304907   2307027   2309186   2311430  
  5890.000000   2313801   2316298   2318899   2321543   2324172  
  5880.000000   2326726   2329173   2331498   2333708   2335811  
  5870.000000   2337811   2339706   2341494   2343184   2344797  
  5860.000000   2346370   2347946   2349564   2351246   2353004  
  5850.000000   2354836   2356741   2358718   2360769   2362896  
  5840.000000   2365092   2367337   2369606   2371871   2374120  
  5830.000000   2376348   2378569   2380796   2383032   2385270  
  5820.000000   2387485   2389652   2391748   2393770   2395728  
  5810.000000   2397644   2399528   2401387   2403198   2404947  
  5800.000000   2406600   2408162   2409624   2411024   2412369  
  5790.000000   2413689   2414963   2416178   2417265   2418164  
  5780.000000   2418776   2419023   2418815   2418111   2416894  
  5770.000000   2415220   2413182   2410932   2408616   2406381  
  5760.000000   2404314   2402460   2400807   2399325   2397970  
  5750.000000   2396725   2395583   2394555   2393651   2392867  
  5740.000000   2392191   2391593   2391053   2390547   2390074  
  5730.000000   2389622   2389194   2388775   2388362   2387942  
  5720.000000   2387528   2387136   2386797   2386530   2386343  
  5710.000000   2386216   2386119   2386011   2385870   2385691  
  5700.000000   2385497   2385318   2385187   2385121   2385117  
  5690.000000   2385165   2385247   2385357   2385487   2385644  
  5680.000000   2385814   2385985   2386115   2386168   2386098  
  5670.000000   2385878   2385481   2384898   2384115   2383130  
  5660.000000   2381937   2380553   2379010   2377367   2375688  
  5650.000000   2374043   2372471   2370995   2369603   2368275  
  5640.000000   2366988   2365734   2364516   2363344   2362223  
  5630.000000   2361145   2360093   2359046   2357995   2356946  
  5620.000000   2355923   2354952   2354054   2353228   2352455  
  5610.000000   2351704   2350950   2350179   2349397   2348623  
  5600.000000   2347874   2347155   2346455   2345751   2345018  
  5590.000000   2344244   2343430   2342590   2341743   2340903  
  5580.000000   2340073   2339248   2338416   2337569   2336702  
  5570.000000   2335812   2334894   2333941   2332940   2331889  
  5560.000000   2330792   2329672   2328558   2327484   2326469  
  5550.000000   2325514   2324599   2323691   2322758   2321783  
  5540.000000   2320762   2319711   2318646   2317586   2316536  
  5530.000000   2315500   2314477   2313473   2312493   2311545  
  5520.000000   2310628   2309734   2308841   2307923   2306958  
  5510.000000   2305934   2304849   2303715   2302543   2301347  
  5500.000000   2300137   2298927   2297734   2296578   2295473  
  5490.000000   2294426   2293423   2292434   2291417   2290338  
  5480.000000   2289177   2287939   2286648   2285338   2284032  
  5470.000000   2282742   2281453   2280142   2278780   2277354  
  5460.000000   2275856   2274296   2272677   2271009   2269289  
  5450.000000   2267520   2265704   2263855   2261993   2260135  
  5440.000000   2258294   2256471   2254667   2252881   2251127  
  5430.000000   2249422   2247794   2246252   2244797   2243406  
  5420.000000   2242059   2240737   2239453   2238233   2237131  
  5410.000000   2236178   2235395   2234756   2234230   2233762  
  5400.000000   2233335   2232938   2232604   2232354   2232225  
  5390.000000   2232212   2232313   2232499   2232773   2233138  
  5380.000000   2233645   2234324   2235219   2236317   2237603  
  5370.000000   2239007   2240494   2242004   2243548   2245117  
  5360.000000   2246772   2248530   2250466   2252596   2254999  
  5350.000000   2257686   2260728   2264119   2267904   2272037  
  5340.000000   2276537   2281344   2286498   2291968   2297824  
  5330.000000   2304047   2310706   2317755   2325246   2333122  
  5320.000000   2341456   2350221   2359528   2369369   2379852  
  5310.000000   2390937   2402693   2415045   2428049   2441643  
  5300.000000   2455914   2470839   2486537   2502997   2520326  
  5290.000000   2538481   2557507   2577290   2597801   2618882  
  5280.000000   2640499   2662551   2685090   2708124   2731774  
  5270.000000   2756066   2781035   2806573   2832540   2858724  
  5260.000000   2884949   2911097   2937134   2963092   2989000  
  5250.000000   3014871   3040602   3066071   3091051   3115414  
  5240.000000   3139006   3161859   3183970   3205492   3226453  
  5230.000000   3246971   3266975   3286470   3305289   3323398  
  5220.000000   3340651   3357093   3372678   3387549   3401720  
  5210.000000   3415338   3428367   3440863   3452687   3463831  
  5200.000000   3474150   3483693   3492412   3500449   3507812  
  5190.000000   3514640   3520896   3526645   3531794   3536382  
  5180.000000   3540332   3543718   3546502   3548768   3550470  
  5170.000000   3551664   3552287   3552393   3551943   3551019  
  5160.000000   3549614   3547814   3545600   3543033   3540075  
  5150.000000   3536780   3533125   3529176   3524926   3520430  
  5140.000000   3515661   3510649   3505358   3499824   3494043  
  5130.000000   3488079   3481959   3475748   3469461   3463134  
  5120.000000   3456761   3450359   3443920   3437465   3430989  
  5110.000000   3424506   3418005   3411489   3404952   3398409  
  5100.000000   3391876   3385385   3378957   3372610   3366333  
  5090.000000   3360108   3353901   3347685   3341445   3335182  
  5080.000000   3328907   3322639   3316388   3310162   3303954  
  5070.000000   3297763   3291579   3285403   3279231   3273060  
  5060.000000   3266877   3260667   3254409   3248091   3241707  
  5050.000000   3235268   3228791   3222302   3215822   3209365  
  5040.000000   3202937   3196535   3190157   3183797   3177459  
  5030.000000   3171142   3164856   3158603   3152393   3146229  
  5020.000000   3140124   3134082   3128121   3122241   3116456  
  5010.000000   3110760   3105164   3099662   3094275   3089004  
  5000.000000   3083883   3078915   3074133   3069526   3065117  
  4990.000000   3060886   3056855   3053008   3049383   3045972  
  4980.000000   3042816   3039902   3037263   3034874   3032766  
  4970.000000   3030915   3029364   3028098   3027166   3026550  
  4960.000000   3026289   3026350   3026759   3027474   3028524  
  4950.000000   3029872   3031553   3033530   3035837   3038434  
  4940.000000   3041351   3044546   3048055   3051843   3055950  
  4930.000000   3060344   3065061   3070069   3075400   3081027  
  4920.000000   3086984   3093246   3099844   3106746   3113962  
  4910.000000   3121447   3129195   3137158   3145326   3153661  
  4900.000000   3162157   3170786   3179539   3188394   3197338  
  4890.000000   3206350   3215406   3224478   3233522   3242498  
  4880.000000   3251342   3260015   3268457   3276648   3284549  
  4870.000000   3292164   3299461   3306449   3313092   3319400  
  4860.000000   3325341   3330939   3336181   3341112   3345731  
  4850.000000   3350089   3354183   3358056   3361700   3365157  
  4840.000000   3368423   3371541   3374515   3377386   3380155  
  4830.000000   3382852   3385472   3388034   3390524   3392953  
  4820.000000   3395306   3397590   3399797   3401942   3404026  
  4810.000000   3406073   3408088   3410088   3412069   3414028  
  4800.000000   3415948   3417825   3419648   3421427   3423169  
  4790.000000   3424894   3426610   3428328   3430035   3431726  
  4780.000000   3433379   3434992   3436556   3438083   3439571  
  4770.000000   3441032   3442451   3443819   3445105   3446293  
  4760.000000   3447354   3448288   3449086   3449762   3450315  
  4750.000000   3450759   3451083   3451294   3451380   3451350  
  4740.000000   3451198   3450943   3450585   3450142   3449611  
  4730.000000   3449003   3448314   3447555   3446728   3445851  
  4720.000000   3444933   3443987   3443021   3442041   3441046  
  4710.000000   3440042   3439034   3438032   3437047   3436093  
  4700.000000   3435183   3434325   3433532   3432815   3432189  
  4690.000000   3431667   3431262   3430971   3430786   3430675  
  4680.000000   3430604   3430526   3430412   3430232   3429991  
  4670.000000   3429693   3429371   3429045   3428753   3428507  
  4660.000000   3428336   3428245   3428263   3428399   3428684  
  4650.000000   3429129   3429755   3430562   3431552   3432710  
  4640.000000   3434024   3435469   3437027   3438672   3440383  
  4630.000000   3442130   3443887   3445628   3447329   3448971  
  4620.000000   3450539   3452021   3453404   3454678   3455825  
  4610.000000   3456834   3457690   3458397   3458959   3459407  
  4600.000000   3459762   3460068   3460348   3460633   3460928  
  4590.000000   3461243   3461559   3461872   3462150   3462379  
  4580.000000   3462526   3462575   3462497   3462285   3461925  
  4570.000000   3461426   3460794   3460051   3459212   3458302  
  4560.000000   3457329   3456310   3455248   3454153   3453028  
  4550.000000   3451884   3450724   3449552   3448366   3447160  
  4540.000000   3445927   3444663   3443373   3442068   3440776  
  4530.000000   3439517   3438324   3437207   3436187   3435253  
  4520.000000   3434419   3433662   3433012   3432456   3432048  
  4510.000000   3431793   3431770   3431994   3432557   3433474  
  4500.000000   3434836   3436642   3438969   3441795   3445183  
  4490.000000   3449101   3453612   3458687   3464397   3470712  
  4480.000000   3477693   3485290   3493543   3502379   3511823  
  4470.000000   3521802   3532339   3543368   3554909   3566891  
  4460.000000   3579312   3592084   3605175   3618491   3631987  
  4450.000000   3645580   3659237   3672907   3686576   3700226  
  4440.000000   3713851   3727451   3741014   3754540   3767996  
  4430.000000   3781376   3794620   3807715   3820576   3833181  
  4420.000000   3845431   3857307   3868714   3879649   3890029  
  4410.000000   3899863   3909075   3917675   3925587   3932828  
  4400.000000   3939337   3945158   3950273   3954765   3958658  
  4390.000000   3962065   3965039   3967701   3970114   3972391  
  4380.000000   3974592   3976806   3979074   3981457   3983980  
  4370.000000   3986681   3989579   3992699   3996056   3999660  
  4360.000000   4003516   4007623   4011966   4016536   4021296  
  4350.000000   4026230   4031273   4036411   4041578   4046781  
  4340.000000   4051977   4057187   4062339   4067358   4072020  
  4330.000000   4076043   4079030   4080605   4080443   4078417  
  4320.000000   4074607   4069361   4063182   4056685   4050414  
  4310.000000   4044816   4040109   4036367   4033485   4031323  
  4300.000000   4029703   4028501   4027622   4027005   4026609  
  4290.000000   4026378   4026278   4026261   4026327   4026476  
  4280.000000   4026750   4027179   4027786   4028576   4029523  
  4270.000000   4030602   4031758   4032945   4034067   4035006  
  4260.000000   4035572   4035556   4034721   4032892   4029973  
  4250.000000   4026013   4021183   4015778   4010130   4004586  
  4240.000000   3999406   3994774   3990741   3987285   3984296  
  4230.000000   3981651   3979212   3976859   3974504   3972079  
  4220.000000   3969567   3966958   3964306   3961650   3959088  
  4210.000000   3956683   3954528   3952663   3951136   3949937  
  4200.000000   3949062   3948456   3948083   3947869   3947778  
  4190.000000   3947741   3947745   3947747   3947775   3947820  
  4180.000000   3947948   3948176   3948591   3949219   3950156  
  4170.000000   3951428   3953127   3955267   3957921   3961073  
  4160.000000   3964762   3968936   3973609   3978715   3984274  
  4150.000000   3990236   3996644   4003463   4010744   4018447  
  4140.000000   4026615   4035191   4044207   4053601   4063397  
  4130.000000   4073534   4084034   4094843   4105992   4117449  
  4120.000000   4129261   4141422   4153994   4166978   4180424  
  4110.000000   4194314   4208661   4223409   4238526   4253923  
  4100.000000   4269542   4285291   4301126   4316995   4332900  
  4090.000000   4348847   4364867   4380989   4397234   4413616  
  4080.000000   4430125   4446762   4463495   4480319   4497175  
  4070.000000   4514033   4530786   4547369   4563650   4579575  
  4060.000000   4595040   4610048   4624538   4638556   4652053  
  4050.000000   4665083   4677592   4689641   4701166   4712224  
  4040.000000   4722725   4732697   4742015   4750698   4758630  
  4030.000000   4765867   4772331   4778096   4783091   4787354  
  4020.000000   4790773   4793384   4795146   4796148   4796370  
  4010.000000   4795977   4795059   4793676   4791666   4789104  
  4000.000000   4786259  
##END= 
