##TITLE= Sample 025 By ssteindl date Dienstag, November 20 2018
##JCAMP-DX= 4.24
##DATA TYPE= INFRARED SPECTRUM
##ORIGIN= Exported PE Spectrum Data File
##OWNER= Sandra Steindl
##DATE= 18/11/20
##TIME= 14:49:13.00
##SPECTROMETER/DATA SYSTEM= PERKIN-ELMER Frontier FT-IR/NIR IR
##INSTRUMENT PARAMETERS=
  APODIZATION=stark
  DETECTOR=INGAAS
##RESOLUTION= 16.000000
##DELTAX= -2.000000
##XUNITS= 1/CM
##YUNITS= A
##XFACTOR= 1.00
##YFACTOR= 0.00000011920928955078
##FIRSTX= 10000.00
##LASTX= 4000.00
##NPOINTS= 3001
##FIRSTY= 0.191060
##MAXY= 0.619100
##MINY= 0.167401
##XYDATA= (X++(Y..Y))
 10000.000000   1602726   1601406   1601460   1604520   1610331  
  9990.000000   1617111   1623209   1627520   1629268   1628004  
  9980.000000   1623974   1617929   1610775   1603492   1597193  
  9970.000000   1593058   1592027   1594622   1600603   1608966  
  9960.000000   1618047   1626035   1631419   1633453   1632290  
  9950.000000   1628809   1624290   1619904   1616435   1614101  
  9940.000000   1612661   1611660   1610647   1609409   1607955  
  9930.000000   1606523   1605407   1604889   1605073   1605844  
  9920.000000   1606791   1607249   1606486   1603891   1599354  
  9910.000000   1593350   1587010   1581784   1578997   1579371  
  9900.000000   1582668   1587786   1593094   1597113   1599022  
  9890.000000   1598970   1597904   1597123   1597648   1599796  
  9880.000000   1603024   1606211   1608099   1607827   1605187  
  9870.000000   1600664   1595165   1589678   1584945   1581298  
  9860.000000   1578647   1576556   1574411   1571531   1567371  
  9850.000000   1561642   1554502   1546637   1539194   1533581  
  9840.000000   1531015   1532131   1536691   1543596   1551279  
  9830.000000   1558180   1563281   1566298   1567617   1567909  
  9820.000000   1567792   1567496   1566993   1566073   1564763  
  9810.000000   1563337   1562302   1562072   1562639   1563519  
  9800.000000   1563853   1562958   1560685   1557721   1555337  
  9790.000000   1554895   1557152   1561869   1567747   1572956  
  9780.000000   1575783   1575370   1571971   1566836   1561664  
  9770.000000   1557908   1556291   1556583   1557866   1558904  
  9760.000000   1558635   1556411   1552127   1546113   1539048  
  9750.000000   1531830   1525504   1521112   1519521   1521117  
  9740.000000   1525635   1532070   1538955   1544775   1548492  
  9730.000000   1549925   1549770   1549329   1549954   1552497  
  9720.000000   1557033   1562842   1568812   1573813   1577113  
  9710.000000   1578462   1578008   1576096   1573030   1569078  
  9700.000000   1564488   1559682   1555262   1551944   1550275  
  9690.000000   1550420   1551976   1554147   1555957   1556706  
  9680.000000   1556127   1554515   1552475   1550677   1549563  
  9670.000000   1549235   1549494   1550006   1550455   1550625  
  9660.000000   1550393   1549645   1548262   1546109   1543154  
  9650.000000   1539506   1535478   1531450   1527763   1524540  
  9640.000000   1521666   1518904   1516066   1513278   1510968  
  9630.000000   1509831   1510474   1513176   1517659   1523126  
  9620.000000   1528498   1532695   1534990   1535062   1533081  
  9610.000000   1529469   1524834   1519755   1514797   1510451  
  9600.000000   1507131   1505135   1504524   1505126   1506493  
  9590.000000   1508119   1509559   1510662   1511536   1512465  
  9580.000000   1513660   1515064   1516327   1516881   1516272  
  9570.000000   1514344   1511441   1508266   1505643   1504160  
  9560.000000   1503917   1504511   1505223   1505376   1504637  
  9550.000000   1503143   1501409   1500040   1499449   1499676  
  9540.000000   1500407   1501163   1501532   1501372   1500846  
  9530.000000   1500348   1500298   1500996   1502474   1504541  
  9520.000000   1506826   1508910   1510405   1511001   1510519  
  9510.000000   1508893   1506224   1502752   1498844   1494923  
  9500.000000   1491361   1488401   1486112   1484440   1483274  
  9490.000000   1482571   1482342   1482668   1483560   1484922  
  9480.000000   1486494   1487924   1488888   1489198   1488893  
  9470.000000   1488182   1487370   1486675   1486161   1485692  
  9460.000000   1485052   1484055   1482660   1480983   1479230  
  9450.000000   1477586   1476131   1474830   1473591   1472363  
  9440.000000   1471189   1470228   1469648   1469568   1469945  
  9430.000000   1470615   1471360   1472021   1472594   1473178  
  9420.000000   1473941   1474893   1475855   1476388   1476006  
  9410.000000   1474342   1471396   1467586   1463661   1460514  
  9400.000000   1458854   1459091   1461154   1464657   1468968  
  9390.000000   1473470   1477628   1481055   1483473   1484651  
  9380.000000   1484435   1482722   1479593   1475262   1470161  
  9370.000000   1464787   1459676   1455256   1451787   1449399  
  9360.000000   1448050   1447693   1448201   1449516   1451509  
  9350.000000   1454061   1456964   1459965   1462790   1465150  
  9340.000000   1466823   1467591   1467328   1465924   1463417  
  9330.000000   1459940   1455824   1451500   1447469   1444174  
  9320.000000   1441882   1440644   1440247   1440379   1440698  
  9310.000000   1441046   1441449   1442120   1443319   1445216  
  9300.000000   1447762   1450636   1453314   1455206   1455892  
  9290.000000   1455240   1453479   1451107   1448722   1446838  
  9280.000000   1445700   1445233   1445084   1444786   1443964  
  9270.000000   1442443   1440304   1437790   1435212   1432807  
  9260.000000   1430683   1428836   1427225   1425870   1424896  
  9250.000000   1424549   1425102   1426751   1429479   1433036  
  9240.000000   1436959   1440709   1443780   1445804   1446611  
  9230.000000   1446225   1444856   1442829   1440505   1438234  
  9220.000000   1436270   1434768   1433724   1432987   1432297  
  9210.000000   1431364   1429981   1428055   1425628   1422809  
  9200.000000   1419738   1416542   1413350   1410325   1407732  
  9190.000000   1405970   1405529   1406848   1410084   1415000  
  9180.000000   1420910   1426853   1431858   1435199   1436654  
  9170.000000   1436472   1435289   1433771   1432380   1431199  
  9160.000000   1430013   1428525   1426580   1424352   1422289  
  9150.000000   1421004   1420940   1422195   1424369   1426743  
  9140.000000   1428532   1429155   1428425   1426543   1424015  
  9130.000000   1421419   1419208   1417626   1416727   1416506  
  9120.000000   1416987   1418222   1420218   1422832   1425704  
  9110.000000   1428277   1429907   1430080   1428636   1425823  
  9100.000000   1422283   1418812   1416168   1414805   1414776  
  9090.000000   1415757   1417211   1418600   1419555   1419985  
  9080.000000   1420053   1420085   1420406   1421217   1422511  
  9070.000000   1424090   1425665   1426951   1427799   1428234  
  9060.000000   1428432   1428652   1429081   1429794   1430677  
  9050.000000   1431512   1432046   1432102   1431651   1430804  
  9040.000000   1429762   1428690   1427647   1426556   1425270  
  9030.000000   1423660   1421708   1419581   1417591   1416126  
  9020.000000   1415469   1415767   1416950   1418803   1421015  
  9010.000000   1423271   1425328   1426976   1428058   1428400  
  9000.000000   1427883   1426443   1424155   1421248   1418107  
  8990.000000   1415199   1412961   1411725   1411634   1412657  
  8980.000000   1414575   1417065   1419710   1422061   1423673  
  8970.000000   1424188   1423452   1421550   1418879   1416035  
  8960.000000   1413703   1412407   1412322   1413230   1414591  
  8950.000000   1415796   1416381   1416250   1415675   1415161  
  8940.000000   1415153   1415806   1416865   1417747   1417807  
  8930.000000   1416610   1414185   1411003   1407839   1405441  
  8920.000000   1404264   1404309   1405156   1406181   1406825  
  8910.000000   1406809   1406219   1405398   1404781   1404694  
  8900.000000   1405257   1406374   1407819   1409347   1410786  
  8890.000000   1412055   1413145   1414071   1414860   1415552  
  8880.000000   1416219   1416958   1417859   1418924   1420020  
  8870.000000   1420871   1421146   1420591   1419167   1417125  
  8860.000000   1414962   1413290   1412609   1413144   1414722  
  8850.000000   1416885   1419030   1420665   1421543   1421726  
  8840.000000   1421534   1421352   1421503   1422061   1422899  
  8830.000000   1423681   1424067   1423776   1422752   1421157  
  8820.000000   1419369   1417896   1417261   1417922   1420125  
  8810.000000   1423874   1428854   1434511   1440155   1445127  
  8800.000000   1448965   1451492   1452849   1453389   1453555  
  8790.000000   1453695   1453974   1454346   1454638   1454677  
  8780.000000   1454398   1453905   1453419   1453202   1453404  
  8770.000000   1454034   1454913   1455780   1456378   1456575  
  8760.000000   1456412   1456085   1455883   1456079   1456863  
  8750.000000   1458277   1460223   1462475   1464761   1466795  
  8740.000000   1468366   1469359   1469798   1469838   1469731  
  8730.000000   1469775   1470213   1471187   1472684   1474563  
  8720.000000   1476606   1478598   1480390   1481912   1483154  
  8710.000000   1484105   1484722   1484900   1484537   1483598  
  8700.000000   1482218   1480701   1479484   1479014   1479605  
  8690.000000   1481332   1483989   1487164   1490372   1493209  
  8680.000000   1495468   1497150   1498438   1499563   1500727  
  8670.000000   1502010   1503397   1504800   1506165   1507500  
  8660.000000   1508900   1510491   1512372   1514558   1516944  
  8650.000000   1519349   1521540   1523335   1524631   1525459  
  8640.000000   1525954   1526330   1526827   1527648   1528917  
  8630.000000   1530628   1532646   1534711   1536495   1537695  
  8620.000000   1538103   1537710   1536711   1535510   1534614  
  8610.000000   1534513   1535530   1537719   1540825   1544337  
  8600.000000   1547610   1550044   1551240   1551125   1549978  
  8590.000000   1548330   1546836   1546054   1546320   1547621  
  8580.000000   1549637   1551835   1553671   1554774   1555067  
  8570.000000   1554799   1554446   1554560   1555570   1557640  
  8560.000000   1560619   1564086   1567515   1570408   1572483  
  8550.000000   1573695   1574257   1574513   1574834   1575478  
  8540.000000   1576546   1577977   1579615   1581293   1582895  
  8530.000000   1584418   1585940   1587622   1589595   1591947  
  8520.000000   1594624   1597466   1600217   1602584   1604321  
  8510.000000   1605275   1605460   1605007   1604140   1603091  
  8500.000000   1602055   1601146   1600393   1599803   1599399  
  8490.000000   1599278   1599572   1600437   1601953   1604079  
  8480.000000   1606608   1609214   1611553   1613338   1614452  
  8470.000000   1614949   1615069   1615114   1615384   1616058  
  8460.000000   1617195   1618723   1620495   1622350   1624150  
  8450.000000   1625824   1627339   1628713   1629975   1631174  
  8440.000000   1632353   1633555   1634807   1636097   1637379  
  8430.000000   1638562   1639550   1640264   1640677   1640834  
  8420.000000   1640838   1640828   1640924   1641210   1641701  
  8410.000000   1642362   1643127   1643932   1644733   1645518  
  8400.000000   1646284   1647043   1647789   1648525   1649241  
  8390.000000   1649952   1650684   1651479   1652364   1653336  
  8380.000000   1654329   1655234   1655908   1656222   1656096  
  8370.000000   1655538   1654650   1653614   1652631   1651886  
  8360.000000   1651475   1651400   1651551   1651767   1651882  
  8350.000000   1651795   1651493   1651058   1650625   1650322  
  8340.000000   1650212   1650260   1650355   1650346   1650120  
  8330.000000   1649650   1649019   1648393   1647954   1647840  
  8320.000000   1648077   1648586   1649203   1649746   1650080  
  8310.000000   1650152   1650001   1649721   1649414   1649146  
  8300.000000   1648929   1648736   1648516   1648251   1647949  
  8290.000000   1647670   1647477   1647429   1647533   1647758  
  8280.000000   1648010   1648184   1648163   1647863   1647235  
  8270.000000   1646273   1645013   1643518   1641867   1640145  
  8260.000000   1638436   1636810   1635327   1634029   1632939  
  8250.000000   1632063   1631380   1630863   1630467   1630165  
  8240.000000   1629939   1629802   1629778   1629900   1630178  
  8230.000000   1630575   1630994   1631288   1631294   1630881  
  8220.000000   1629994   1628676   1627058   1625329   1623677  
  8210.000000   1622244   1621085   1620168   1619390   1618615  
  8200.000000   1617712   1616586   1615191   1613537   1611695  
  8190.000000   1609782   1607947   1606343   1605093   1604261  
  8180.000000   1603829   1603713   1603774   1603880   1603931  
  8170.000000   1603893   1603772   1603587   1603317   1602878  
  8160.000000   1602142   1600978   1599327   1597234   1594871  
  8150.000000   1592481   1590302   1588493   1587066   1585915  
  8140.000000   1584857   1583734   1582472   1581110   1579763  
  8130.000000   1578567   1577601   1576860   1576257   1575671  
  8120.000000   1575012   1574252   1573449   1572681   1572021  
  8110.000000   1571458   1570905   1570211   1569222   1567844  
  8100.000000   1566080   1564056   1561977   1560099   1558644  
  8090.000000   1557766   1557488   1557714   1558224   1558731  
  8080.000000   1558940   1558605   1557602   1555935   1553759  
  8070.000000   1551303   1548837   1546579   1544672   1543162  
  8060.000000   1542025   1541205   1540644   1540307   1540160  
  8050.000000   1540169   1540267   1540364   1540366   1540192  
  8040.000000   1539817   1539247   1538535   1537721   1536842  
  8030.000000   1535899   1534905   1533882   1532897   1532043  
  8020.000000   1531407   1531033   1530883   1530850   1530793  
  8010.000000   1530603   1530255   1529824   1529459   1529313  
  8000.000000   1529476   1529919   1530507   1531031   1531294  
  7990.000000   1531163   1530614   1529721   1528615   1527448  
  7980.000000   1526344   1525403   1524688   1524245   1524085  
  7970.000000   1524182   1524435   1524689   1524748   1524442  
  7960.000000   1523681   1522506   1521078   1519632   1518395  
  7950.000000   1517500   1516955   1516639   1516376   1516000  
  7940.000000   1515431   1514686   1513864   1513078   1512409  
  7930.000000   1511859   1511374   1510879   1510338   1509781  
  7920.000000   1509314   1509075   1509186   1509693   1510543  
  7910.000000   1511592   1512641   1513496   1514018   1514150  
  7900.000000   1513933   1513467   1512898   1512358   1511947  
  7890.000000   1511702   1511604   1511588   1511569   1511484  
  7880.000000   1511309   1511083   1510891   1510848   1511047  
  7870.000000   1511530   1512258   1513108   1513905   1514472  
  7860.000000   1514682   1514502   1514006   1513355   1512750  
  7850.000000   1512371   1512323   1512606   1513116   1513681  
  7840.000000   1514109   1514249   1514023   1513449   1512622  
  7830.000000   1511687   1510794   1510062   1509559   1509292  
  7820.000000   1509220   1509277   1509380   1509468   1509492  
  7810.000000   1509440   1509320   1509165   1509013   1508902  
  7800.000000   1508846   1508826   1508788   1508649   1508327  
  7790.000000   1507762   1506939   1505900   1504732   1503548  
  7780.000000   1502459   1501546   1500850   1500369   1500067  
  7770.000000   1499889   1499767   1499633   1499424   1499100  
  7760.000000   1498649   1498108   1497554   1497094   1496827  
  7750.000000   1496806   1497008   1497327   1497601   1497663  
  7740.000000   1497404   1496807   1495953   1494990   1494069  
  7730.000000   1493288   1492658   1492118   1491568   1490932  
  7720.000000   1490198   1489422   1488700   1488115   1487687  
  7710.000000   1487361   1487020   1486534   1485827   1484894  
  7700.000000   1483831   1482778   1481889   1481266   1480940  
  7690.000000   1480861   1480930   1481035   1481090   1481059  
  7680.000000   1480960   1480851   1480807   1480895   1481149  
  7670.000000   1481561   1482081   1482619   1483078   1483367  
  7660.000000   1483436   1483282   1482954   1482526   1482081  
  7650.000000   1481673   1481324   1481025   1480757   1480515  
  7640.000000   1480316   1480207   1480236   1480435   1480795  
  7630.000000   1481264   1481761   1482200   1482522   1482700  
  7620.000000   1482745   1482689   1482570   1482424   1482288  
  7610.000000   1482200   1482207   1482350   1482647   1483073  
  7600.000000   1483556   1483983   1484242   1484257   1484025  
  7590.000000   1483627   1483211   1482942   1482953   1483292  
  7580.000000   1483917   1484707   1485509   1486182   1486641  
  7570.000000   1486869   1486922   1486898   1486917   1487081  
  7560.000000   1487460   1488072   1488892   1489842   1490830  
  7550.000000   1491747   1492522   1493122   1493581   1493980  
  7540.000000   1494431   1495033   1495856   1496914   1498173  
  7530.000000   1499562   1501003   1502430   1503809   1505131  
  7520.000000   1506409   1507652   1508871   1510052   1511177  
  7510.000000   1512217   1513150   1513965   1514674   1515315  
  7500.000000   1515960   1516694   1517607   1518756   1520153  
  7490.000000   1521742   1523418   1525040   1526496   1527713  
  7480.000000   1528718   1529598   1530501   1531555   1532859  
  7470.000000   1534428   1536222   1538156   1540157   1542181  
  7460.000000   1544241   1546384   1548668   1551127   1553748  
  7450.000000   1556464   1559176   1561776   1564181   1566345  
  7440.000000   1568286   1570057   1571742   1573419   1575147  
  7430.000000   1576947   1578805   1580680   1582527   1584313  
  7420.000000   1586038   1587740   1589480   1591329   1593339  
  7410.000000   1595531   1597895   1600386   1602954   1605549  
  7400.000000   1608140   1610706   1613238   1615733   1618188  
  7390.000000   1620611   1623021   1625449   1627925   1630461  
  7380.000000   1633037   1635586   1638014   1640226   1642157  
  7370.000000   1643803   1645220   1646522   1647828   1649253  
  7360.000000   1650865   1652699   1654751   1657006   1659432  
  7350.000000   1661986   1664592   1667148   1669528   1671624  
  7340.000000   1673388   1674858   1676162   1677472   1678951  
  7330.000000   1680693   1682686   1684828   1686958   1688937  
  7320.000000   1690696   1692264   1693738   1695243   1696870  
  7310.000000   1698648   1700529   1702425   1704246   1705941  
  7300.000000   1707506   1708978   1710403   1711815   1713222  
  7290.000000   1714619   1715994   1717351   1718697   1720049  
  7280.000000   1721404   1722747   1724041   1725258   1726391  
  7270.000000   1727464   1728525   1729624   1730791   1732018  
  7260.000000   1733265   1734470   1735588   1736598   1737528  
  7250.000000   1738428   1739370   1740409   1741588   1742923  
  7240.000000   1744424   1746085   1747905   1749857   1751913  
  7230.000000   1754012   1756105   1758136   1760100   1762010  
  7220.000000   1763931   1765925   1768067   1770393   1772937  
  7210.000000   1775696   1778678   1781869   1785261   1788810  
  7200.000000   1792462   1796126   1799723   1803190   1806528  
  7190.000000   1809790   1813095   1816559   1820281   1824275  
  7180.000000   1828483   1832765   1836969   1840949   1844635  
  7170.000000   1848020   1851188   1854258   1857382   1860672  
  7160.000000   1864217   1868035   1872115   1876408   1880875  
  7150.000000   1885473   1890200   1895060   1900083   1905272  
  7140.000000   1910624   1916076   1921568   1927012   1932382  
  7130.000000   1937675   1942974   1948371   1953988   1959881  
  7120.000000   1966065   1972466   1978995   1985550   1992093  
  7110.000000   1998628   2005227   2011955   2018867   2025952  
  7100.000000   2033162   2040404   2047604   2054708   2061715  
  7090.000000   2068643   2075537   2082424   2089329   2096261  
  7080.000000   2103235   2110262   2117359   2124518   2131720  
  7070.000000   2138910   2146039   2153067   2160001   2166881  
  7060.000000   2173782   2180770   2187887   2195132   2202475  
  7050.000000   2209876   2217312   2224787   2232322   2239933  
  7040.000000   2247597   2255254   2262810   2270178   2277301  
  7030.000000   2284182   2290867   2297427   2303908   2310331  
  7020.000000   2316666   2322887   2328973   2334962   2340912  
  7010.000000   2346909   2352989   2359154   2365327   2371415  
  7000.000000   2377312   2382970   2388372   2393557   2398556  
  6990.000000   2403401   2408083   2412602   2416953   2421184  
  6980.000000   2425361   2429577   2433881   2438285   2442715  
  6970.000000   2447074   2451237   2455144   2458779   2462219  
  6960.000000   2465556   2468904   2472321   2475828   2479372  
  6950.000000   2482877   2486237   2489370   2492199   2494701  
  6940.000000   2496878   2498795   2500542   2502249   2504024  
  6930.000000   2505958   2508060   2510294   2512555   2514740  
  6920.000000   2516757   2518581   2520232   2521781   2523289  
  6910.000000   2524800   2526302   2527755   2529098   2530290  
  6900.000000   2531322   2532224   2533050   2533860   2534694  
  6890.000000   2535575   2536491   2537422   2538337   2539216  
  6880.000000   2540046   2540840   2541624   2542448   2543363  
  6870.000000   2544418   2545625   2546957   2548336   2549659  
  6860.000000   2550822   2551758   2552459   2552984   2553428  
  6850.000000   2553900   2554475   2555180   2555989   2556849  
  6840.000000   2557700   2558506   2559244   2559913   2560501  
  6830.000000   2560999   2561382   2561644   2561798   2561891  
  6820.000000   2561985   2562142   2562387   2562706   2563046  
  6810.000000   2563345   2563549   2563649   2563664   2563643  
  6800.000000   2563625   2563638   2563674   2563715   2563741  
  6790.000000   2563746   2563738   2563729   2563718   2563685  
  6780.000000   2563589   2563395   2563082   2562667   2562193  
  6770.000000   2561721   2561295   2560935   2560623   2560324  
  6760.000000   2560000   2559635   2559231   2558808   2558386  
  6750.000000   2557976   2557571   2557165   2556756   2556363  
  6740.000000   2556013   2555737   2555544   2555418   2555314  
  6730.000000   2555178   2554962   2554646   2554236   2553758  
  6720.000000   2553235   2552679   2552083   2551437   2550736  
  6710.000000   2549996   2549248   2548537   2547895   2547335  
  6700.000000   2546844   2546397   2545960   2545518   2545059  
  6690.000000   2544588   2544099   2543582   2543015   2542383  
  6680.000000   2541673   2540895   2540061   2539186   2538265  
  6670.000000   2537281   2536201   2535004   2533690   2532298  
  6660.000000   2530883   2529516   2528239   2527071   2525986  
  6650.000000   2524947   2523906   2522841   2521740   2520609  
  6640.000000   2519447   2518240   2516960   2515574   2514063  
  6630.000000   2512434   2510718   2508968   2507231   2505547  
  6620.000000   2503931   2502389   2500912   2499498   2498140  
  6610.000000   2496830   2495540   2494228   2492841   2491331  
  6600.000000   2489673   2487881   2486004   2484110   2482272  
  6590.000000   2480541   2478939   2477459   2476072   2474742  
  6580.000000   2473429   2472097   2470717   2469269   2467744  
  6570.000000   2466151   2464519   2462891   2461313   2459821  
  6560.000000   2458430   2457128   2455885   2454664   2453437  
  6550.000000   2452187   2450907   2449596   2448248   2446854  
  6540.000000   2445410   2443921   2442414   2440926   2439496  
  6530.000000   2438145   2436868   2435630   2434388   2433109  
  6520.000000   2431786   2430443   2429126   2427876   2426714  
  6510.000000   2425630   2424595   2423571   2422542   2421512  
  6500.000000   2420507   2419549   2418645   2417767   2416871  
  6490.000000   2415908   2414855   2413725   2412567   2411448  
  6480.000000   2410423   2409518   2408722   2407997   2407298  
  6470.000000   2406592   2405863   2405109   2404329   2403511  
  6460.000000   2402632   2401663   2400587   2399406   2398149  
  6450.000000   2396858   2395580   2394348   2393179   2392078  
  6440.000000   2391045   2390087   2389211   2388425   2387728  
  6430.000000   2387097   2386500   2385896   2385260   2384578  
  6420.000000   2383862   2383128   2382400   2381687   2380994  
  6410.000000   2380322   2379680   2379089   2378582   2378184  
  6400.000000   2377905   2377726   2377607   2377493   2377336  
  6390.000000   2377104   2376794   2376415   2375988   2375525  
  6380.000000   2375032   2374507   2373950   2373365   2372768  
  6370.000000   2372178   2371609   2371069   2370556   2370070  
  6360.000000   2369611   2369185   2368797   2368442   2368099  
  6350.000000   2367733   2367300   2366768   2366129   2365408  
  6340.000000   2364647   2363898   2363196   2362551   2361944  
  6330.000000   2361348   2360730   2360082   2359401   2358701  
  6320.000000   2357981   2357231   2356418   2355514   2354496  
  6310.000000   2353376   2352181   2350960   2349748   2348562  
  6300.000000   2347383   2346180   2344908   2343548   2342097  
  6290.000000   2340584   2339036   2337486   2335939   2334392  
  6280.000000   2332821   2331217   2329572   2327898   2326206  
  6270.000000   2324512   2322811   2321095   2319341   2317534  
  6260.000000   2315662   2313735   2311767   2309780   2307793  
  6250.000000   2305823   2303874   2301951   2300052   2298174  
  6240.000000   2296310   2294454   2292592   2290712   2288802  
  6230.000000   2286853   2284859   2282822   2280749   2278653  
  6220.000000   2276552   2274471   2272435   2270464   2268566  
  6210.000000   2266735   2264948   2263175   2261390   2259577  
  6200.000000   2257738   2255887   2254044   2252219   2250410  
  6190.000000   2248595   2246752   2244861   2242925   2240967  
  6180.000000   2239027   2237151   2235375   2233714   2232165  
  6170.000000   2230705   2229304   2227932   2226568   2225193  
  6160.000000   2223797   2222376   2220933   2219477   2218025  
  6150.000000   2216594   2215202   2213850   2212527   2211207  
  6140.000000   2209865   2208479   2207049   2205588   2204126  
  6130.000000   2202693   2201308   2199977   2198692   2197438  
  6120.000000   2196207   2194998   2193823   2192691   2191614  
  6110.000000   2190585   2189595   2188621   2187649   2186665  
  6100.000000   2185676   2184686   2183719   2182787   2181912  
  6090.000000   2181104   2180381   2179746   2179207   2178755  
  6080.000000   2178382   2178068   2177805   2177583   2177411  
  6070.000000   2177292   2177245   2177263   2177347   2177468  
  6060.000000   2177614   2177759   2177914   2178087   2178319  
  6050.000000   2178634   2179069   2179630   2180328   2181147  
  6040.000000   2182087   2183136   2184302   2185579   2186980  
  6030.000000   2188495   2190126   2191857   2193686   2195594  
  6020.000000   2197576   2199608   2201677   2203754   2205830  
  6010.000000   2207889   2209939   2211985   2214050   2216138  
  6000.000000   2218261   2220407   2222577   2224759   2226965  
  5990.000000   2229205   2231508   2233892   2236382   2238979  
  5980.000000   2241688   2244498   2247411   2250422   2253538  
  5970.000000   2256755   2260077   2263483   2266965   2270495  
  5960.000000   2274065   2277653   2281261   2284873   2288490  
  5950.000000   2292101   2295712   2299328   2302973   2306674  
  5940.000000   2310466   2314376   2318420   2322597   2326889  
  5930.000000   2331267   2335694   2340126   2344519   2348827  
  5920.000000   2353006   2357017   2360840   2364467   2367916  
  5910.000000   2371216   2374403   2377513   2380573   2383610  
  5900.000000   2386643   2389706   2392825   2396031   2399329  
  5890.000000   2402709   2406121   2409507   2412800   2415960  
  5880.000000   2418972   2421854   2424633   2427337   2429966  
  5870.000000   2432503   2434914   2437177   2439297   2441314  
  5860.000000   2443294   2445308   2447406   2449611   2451905  
  5850.000000   2454260   2456642   2459035   2461443   2463882  
  5840.000000   2466365   2468897   2471466   2474053   2476643  
  5830.000000   2479228   2481814   2484409   2487013   2489610  
  5820.000000   2492170   2494661   2497052   2499340   2501532  
  5810.000000   2503655   2505725   2507758   2509741   2511675  
  5800.000000   2513536   2515345   2517104   2518853   2520584  
  5790.000000   2522306   2523960   2525497   2526813   2527834  
  5780.000000   2528458   2528626   2528274   2527390   2525979  
  5770.000000   2524109   2521872   2519412   2516862   2514356  
  5760.000000   2511971   2509755   2507695   2505778   2503975  
  5750.000000   2502291   2500742   2499356   2498151   2497119  
  5740.000000   2496231   2495432   2494679   2493929   2493177  
  5730.000000   2492419   2491677   2490955   2490263   2489594  
  5720.000000   2488952   2488339   2487773   2487267   2486832  
  5710.000000   2486461   2486139   2485838   2485540   2485234  
  5700.000000   2484926   2484629   2484357   2484118   2483907  
  5690.000000   2483724   2483557   2483414   2483292   2483198  
  5680.000000   2483110   2483003   2482821   2482515   2482030  
  5670.000000   2481337   2480417   2479273   2477908   2476338  
  5660.000000   2474572   2472639   2470577   2468450   2466321  
  5650.000000   2464260   2462310   2460491   2458790   2457183  
  5640.000000   2455635   2454129   2452656   2451221   2449829  
  5630.000000   2448478   2447163   2445872   2444602   2443354  
  5620.000000   2442142   2440975   2439859   2438780   2437717  
  5610.000000   2436643   2435540   2434410   2433271   2432156  
  5600.000000   2431094   2430105   2429192   2428341   2427533  
  5590.000000   2426747   2425961   2425160   2424323   2423428  
  5580.000000   2422453   2421385   2420221   2418982   2417696  
  5570.000000   2416399   2415116   2413856   2412611   2411362  
  5560.000000   2410091   2408789   2407457   2406107   2404752  
  5550.000000   2403404   2402065   2400740   2399430   2398143  
  5540.000000   2396889   2395675   2394503   2393364   2392250  
  5530.000000   2391149   2390059   2388985   2387935   2386911  
  5520.000000   2385905   2384898   2383866   2382793   2381676  
  5510.000000   2380533   2379387   2378260   2377157   2376064  
  5500.000000   2374948   2373781   2372541   2371236   2369885  
  5490.000000   2368517   2367146   2365766   2364349   2362862  
  5480.000000   2361275   2359585   2357807   2355981   2354143  
  5470.000000   2352323   2350527   2348753   2346980   2345200  
  5460.000000   2343401   2341582   2339736   2337855   2335926  
  5450.000000   2333941   2331899   2329813   2327706   2325606  
  5440.000000   2323534   2321504   2319524   2317596   2315734  
  5430.000000   2313945   2312242   2310612   2309036   2307469  
  5420.000000   2305879   2304242   2302581   2300942   2299407  
  5410.000000   2298038   2296883   2295930   2295150   2294480  
  5400.000000   2293894   2293365   2292921   2292578   2292378  
  5390.000000   2292320   2292409   2292616   2292946   2293393  
  5380.000000   2293999   2294781   2295780   2296976   2298365  
  5370.000000   2299886   2301521   2303223   2305017   2306894  
  5360.000000   2308916   2311087   2313479   2316095   2319014  
  5350.000000   2322246   2325875   2329899   2334378   2339269  
  5340.000000   2344602   2350311   2356439   2362941   2369886  
  5330.000000   2377236   2385056   2393287   2401985   2411091  
  5320.000000   2420694   2430779   2441483   2452809   2464890  
  5310.000000   2477690   2491293   2505613   2520706   2536493  
  5300.000000   2553056   2570359   2588526   2607549   2627552  
  5290.000000   2648494   2670429   2693226   2716833   2741061  
  5280.000000   2765846   2791071   2816790   2843027   2869925  
  5270.000000   2897522   2925852   2954781   2984127   3013637  
  5260.000000   3043104   3072408   3101528   3130536   3159486  
  5250.000000   3188409   3217190   3245684   3273618   3300838  
  5240.000000   3327165   3352642   3377274   3401250   3424609  
  5230.000000   3447490   3469813   3491580   3512598   3532825  
  5220.000000   3552094   3570460   3587878   3604519   3620407  
  5210.000000   3635720   3650422   3664576   3678024   3690741  
  5200.000000   3702551   3713490   3723486   3732680   3741071  
  5190.000000   3748809   3755858   3762308   3768084   3773260  
  5180.000000   3777782   3781754   3785138   3788018   3790316  
  5170.000000   3792067   3793174   3793682   3793550   3792885  
  5160.000000   3791694   3790091   3788056   3785648   3782808  
  5150.000000   3779574   3775907   3771873   3767469   3762767  
  5140.000000   3757754   3752477   3746907   3741090   3735023  
  5130.000000   3728773   3722359   3715840   3709217   3702518  
  5120.000000   3695727   3688866   3681938   3674985   3668021  
  5110.000000   3661071   3654123   3647168   3640179   3633153  
  5100.000000   3626095   3619041   3612028   3605097   3598263  
  5090.000000   3591525   3584860   3578245   3571655   3565084  
  5080.000000   3558527   3551990   3545467   3538951   3532423  
  5070.000000   3525873   3519289   3512677   3506037   3499377  
  5060.000000   3492693   3485977   3479212   3472393   3465511  
  5050.000000   3458576   3451595   3444579   3437529   3430443  
  5040.000000   3423312   3416138   3408934   3401728   3394555  
  5030.000000   3387452   3380446   3373550   3366769   3360095  
  5020.000000   3353530   3347072   3340740   3334536   3328475  
  5010.000000   3322546   3316752   3311067   3305501   3300040  
  5000.000000   3294717   3289534   3284533   3279711   3275105  
  4990.000000   3270699   3266530   3262588   3258918   3255509  
  4980.000000   3252402   3249569   3247035   3244760   3242774  
  4970.000000   3241057   3239666   3238602   3237931   3237640  
  4960.000000   3237769   3238273   3239171   3240410   3242020  
  4950.000000   3243962   3246282   3248947   3251998   3255389  
  4940.000000   3259154   3263247   3267708   3272506   3277689  
  4930.000000   3283225   3289149   3295414   3302038   3308969  
  4920.000000   3316229   3323779   3331653   3339827   3348330  
  4910.000000   3357134   3366253   3375647   3385311   3395199  
  4900.000000   3405289   3415537   3425917   3436396   3446954  
  4890.000000   3457574   3468228   3478894   3489513   3500034  
  4880.000000   3510363   3520437   3530162   3539500   3548384  
  4870.000000   3556815   3564749   3572205   3579149   3585615  
  4860.000000   3591581   3597102   3602172   3606857   3611152  
  4850.000000   3615114   3618729   3622050   3625070   3627854  
  4840.000000   3630414   3632825   3635103   3637307   3639436  
  4830.000000   3641522   3643551   3645538   3647470   3649353  
  4820.000000   3651172   3652928   3654605   3656207   3657732  
  4810.000000   3659202   3660640   3662077   3663540   3665047  
  4800.000000   3666606   3668213   3669857   3671526   3673208  
  4790.000000   3674897   3676586   3678275   3679960   3681647  
  4780.000000   3683335   3685035   3686746   3688471   3690192  
  4770.000000   3691894   3693541   3695109   3696565   3697901  
  4760.000000   3699106   3700191   3701155   3702007   3702738  
  4750.000000   3703347   3703819   3704161   3704369   3704465  
  4740.000000   3704456   3704368   3704207   3703991   3703718  
  4730.000000   3703398   3703026   3702605   3702128   3701589  
  4720.000000   3700978   3700289   3699522   3698688   3697813  
  4710.000000   3696931   3696085   3695313   3694649   3694114  
  4700.000000   3693723   3693479   3693383   3693428   3693609  
  4690.000000   3693913   3694329   3694840   3695438   3696104  
  4680.000000   3696837   3697617   3698440   3699274   3700101  
  4670.000000   3700876   3701579   3702178   3702682   3703102  
  4660.000000   3703492   3703903   3704412   3705080   3705967  
  4650.000000   3707102   3708502   3710153   3712028   3714086  
  4640.000000   3716284   3718578   3720939   3723344   3725777  
  4630.000000   3728228   3730680   3733113   3735495   3737792  
  4620.000000   3739964   3741978   3743802   3745418   3746804  
  4610.000000   3747961   3748876   3749570   3750050   3750360  
  4600.000000   3750526   3750604   3750617   3750610   3750580  
  4590.000000   3750541   3750464   3750340   3750127   3749805  
  4580.000000   3749332   3748691   3747850   3746809   3745565  
  4570.000000   3744148   3742586   3740931   3739213   3737471  
  4560.000000   3735710   3733937   3732135   3730297   3728413  
  4550.000000   3726488   3724530   3722555   3720575   3718598  
  4540.000000   3716635   3714687   3712769   3710890   3709075  
  4530.000000   3707335   3705698   3704165   3702764   3701485  
  4520.000000   3700362   3699380   3698578   3697938   3697506  
  4510.000000   3697266   3697285   3697570   3698227   3699285  
  4500.000000   3700867   3702989   3705746   3709106   3713128  
  4490.000000   3717754   3723045   3728962   3735592   3742914  
  4480.000000   3751016   3759859   3769496   3779854   3790955  
  4470.000000   3802709   3815124   3828104   3841639   3855623  
  4460.000000   3870030   3884751   3899758   3914959   3930335  
  4450.000000   3945821   3961400   3977026   3992684   4008352  
  4440.000000   4024024   4039706   4055391   4071095   4086780  
  4430.000000   4102437   4117982   4133377   4148506   4163333  
  4420.000000   4177741   4191715   4205150   4218043   4230292  
  4410.000000   4241891   4252731   4262808   4272025   4280400  
  4400.000000   4287880   4294533   4300366   4305502   4310001  
  4390.000000   4314017   4317634   4321007   4324206   4327346  
  4380.000000   4330461   4333615   4336816   4340106   4343501  
  4370.000000   4347055   4350807   4354812   4359103   4363699  
  4360.000000   4368588   4373743   4379104   4384624   4390218  
  4350.000000   4395848   4401427   4406943   4412329   4417615  
  4340.000000   4422769   4427833   4432741   4437425   4441649  
  4330.000000   4445126   4447440   4448216   4447131   4444087  
  4320.000000   4439200   4432871   4425653   4418212   4411128  
  4310.000000   4404871   4399666   4395579   4392486   4390215  
  4300.000000   4388553   4387333   4386430   4385757   4385270  
  4290.000000   4384918   4384699   4384594   4384647   4384887  
  4280.000000   4385381   4386168   4387268   4388672   4390327  
  4270.000000   4392173   4394110   4396040   4397811   4399260  
  4260.000000   4400161   4400295   4399439   4397453   4394289  
  4250.000000   4390048   4384933   4379263   4373361   4367561  
  4240.000000   4362094   4357131   4352707   4348814   4345352  
  4230.000000   4342225   4339311   4336508   4333730   4330911  
  4220.000000   4328026   4325055   4322045   4319029   4316105  
  4210.000000   4313335   4310819   4308600   4306733   4305205  
  4200.000000   4304011   4303088   4302395   4301853   4301430  
  4190.000000   4301067   4300771   4300522   4300372   4300321  
  4180.000000   4300442   4300736   4301270   4302041   4303115  
  4170.000000   4304497   4306269   4308444   4311107   4314257  
  4160.000000   4317956   4322167   4326918   4332148   4337874  
  4150.000000   4344032   4350650   4357672   4365141   4373009  
  4140.000000   4381333   4390075   4399298   4408967   4419134  
  4130.000000   4429744   4440822   4452296   4464179   4476409  
  4120.000000   4489018   4501977   4515345   4529118   4543357  
  4110.000000   4558058   4573262   4588942   4605102   4621682  
  4100.000000   4638642   4655892   4673372   4690998   4708727  
  4090.000000   4726517   4744352   4762223   4780119   4798037  
  4080.000000   4815952   4833865   4851743   4869593   4887364  
  4070.000000   4905045   4922543   4939815   4956736   4973274  
  4060.000000   4989323   5004895   5019918   5034434   5048372  
  4050.000000   5061779   5074580   5086842   5098501   5109636  
  4040.000000   5120171   5130158   5139481   5148164   5156085  
  4030.000000   5163290   5169688   5175353   5180219   5184348  
  4020.000000   5187645   5190180   5191937   5193016   5193383  
  4010.000000   5193186   5192501   5191337   5189452   5186897  
  4000.000000   5184000  
##END= 
