##TITLE= Sample 023 By ssteindl date Dienstag, November 20 2018
##JCAMP-DX= 4.24
##DATA TYPE= INFRARED SPECTRUM
##ORIGIN= Exported PE Spectrum Data File
##OWNER= Sandra Steindl
##DATE= 18/11/20
##TIME= 14:46:36.00
##SPECTROMETER/DATA SYSTEM= PERKIN-ELMER Frontier FT-IR/NIR IR
##INSTRUMENT PARAMETERS=
  APODIZATION=stark
  DETECTOR=INGAAS
##RESOLUTION= 16.000000
##DELTAX= -2.000000
##XUNITS= 1/CM
##YUNITS= A
##XFACTOR= 1.00
##YFACTOR= 0.00000011920928955078
##FIRSTX= 10000.00
##LASTX= 4000.00
##NPOINTS= 3001
##FIRSTY= 0.197493
##MAXY= 0.579953
##MINY= 0.172910
##XYDATA= (X++(Y..Y))
 10000.000000   1656690   1659945   1662255   1662613   1661224  
  9990.000000   1658925   1656010   1652460   1648695   1645683  
  9980.000000   1644266   1644936   1647662   1651883   1656403  
  9970.000000   1659841   1661126   1659857   1656459   1651949  
  9960.000000   1647584   1644318   1642484   1641722   1641168  
  9950.000000   1639946   1637543   1634201   1630781   1628583  
  9940.000000   1628667   1631526   1636667   1642804   1648198  
  9930.000000   1651215   1650864   1646965   1640162   1631534  
  9920.000000   1622256   1613217   1604945   1597614   1591293  
  9910.000000   1586067   1582111   1579588   1578444   1578365  
  9900.000000   1578761   1579045   1578876   1578354   1578014  
  9890.000000   1578537   1580450   1583728   1587819   1591695  
  9880.000000   1594403   1595315   1594531   1592659   1590618  
  9870.000000   1589120   1588390   1588122   1587690   1586635  
  9860.000000   1584962   1583331   1582765   1584275   1588299  
  9850.000000   1594497   1601734   1608482   1613320   1615348  
  9840.000000   1614460   1611187   1606502   1601395   1596660  
  9830.000000   1592769   1589920   1588162   1587464   1587774  
  9820.000000   1588956   1590799   1592958   1595112   1596933  
  9810.000000   1598297   1599161   1599618   1599758   1599669  
  9800.000000   1599458   1599263   1599289   1599681   1600425  
  9790.000000   1601184   1601323   1600008   1596554   1590673  
  9780.000000   1582778   1573892   1565472   1558906   1555128  
  9770.000000   1554298   1555862   1558834   1562223   1565439  
  9760.000000   1568377   1571398   1574964   1579437   1584841  
  9750.000000   1590921   1597251   1603379   1608927   1613526  
  9740.000000   1616787   1618236   1617440   1614132   1608459  
  9730.000000   1601009   1592792   1584906   1578219   1573082  
  9720.000000   1569218   1565990   1562678   1559018   1555314  
  9710.000000   1552497   1551692   1553785   1558971   1566599  
  9700.000000   1575327   1583484   1589608   1592799   1592969  
  9690.000000   1590746   1587228   1583613   1580878   1579577  
  9680.000000   1579784   1581124   1582936   1584398   1584710  
  9670.000000   1583261   1579707   1574141   1567023   1559209  
  9660.000000   1551744   1545689   1541905   1540837   1542439  
  9650.000000   1546137   1550936   1555643   1559102   1560532  
  9640.000000   1559693   1556992   1553377   1550039   1548103  
  9630.000000   1548204   1550355   1553849   1557558   1560227  
  9620.000000   1560911   1559218   1555406   1550260   1544824  
  9610.000000   1540116   1536881   1535461   1535792   1537505  
  9600.000000   1540029   1542785   1545227   1547030   1548049  
  9590.000000   1548432   1548492   1548645   1549225   1550304  
  9580.000000   1551644   1552662   1552669   1551034   1547494  
  9570.000000   1542224   1535862   1529291   1523409   1518876  
  9560.000000   1515990   1514688   1514645   1515441   1516664  
  9550.000000   1518037   1519403   1520765   1522221   1523956  
  9540.000000   1526184   1529058   1532616   1536642   1540686  
  9530.000000   1544059   1546050   1546105   1544086   1540339  
  9520.000000   1535646   1530992   1527258   1524976   1524190  
  9510.000000   1524520   1525338   1526034   1526198   1525753  
  9500.000000   1524873   1523919   1523230   1523063   1523524  
  9490.000000   1524603   1526230   1528273   1530580   1532916  
  9480.000000   1535000   1536507   1537145   1536746   1535295  
  9470.000000   1532994   1530175   1527277   1524723   1522870  
  9460.000000   1521941   1521971   1522794   1524026   1525137  
  9450.000000   1525531   1524696   1522325   1518459   1513509  
  9440.000000   1508253   1503663   1500684   1499974   1501700  
  9430.000000   1505524   1510660   1516158   1521088   1524819  
  9420.000000   1527110   1528131   1528344   1528255   1528225  
  9410.000000   1528275   1528126   1527282   1525297   1521962  
  9400.000000   1517460   1512389   1507559   1503820   1501698  
  9390.000000   1501308   1502264   1503881   1505406   1506248  
  9380.000000   1506152   1505171   1503586   1501711   1499773  
  9370.000000   1497859   1496003   1494277   1492897   1492170  
  9360.000000   1492415   1493774   1496108   1498951   1501628  
  9350.000000   1503431   1503898   1502901   1500753   1497999  
  9340.000000   1495313   1493233   1492071   1491881   1492507  
  9330.000000   1493763   1495483   1497642   1500248   1503348  
  9320.000000   1506904   1510801   1514789   1518490   1521427  
  9310.000000   1523091   1523095   1521249   1517685   1512841  
  9300.000000   1507419   1502253   1498077   1495371   1494177  
  9290.000000   1494180   1494777   1495357   1495437   1494841  
  9280.000000   1493674   1492241   1490880   1489799   1489035  
  9270.000000   1488448   1487877   1487185   1486373   1485547  
  9260.000000   1484886   1484577   1484708   1485288   1486199  
  9250.000000   1487293   1488410   1489410   1490199   1490667  
  9240.000000   1490733   1490290   1489257   1487558   1485166  
  9230.000000   1482144   1478691   1475155   1472004   1469745  
  9220.000000   1468797   1469363   1471299   1474114   1477079  
  9210.000000   1479435   1480666   1480615   1479557   1478053  
  9200.000000   1476776   1476228   1476576   1477640   1479037  
  9190.000000   1480407   1481578   1482634   1483827   1485400  
  9180.000000   1487392   1489560   1491412   1492376   1492020  
  9170.000000   1490257   1487387   1483996   1480716   1478104  
  9160.000000   1476488   1475980   1476444   1477615   1479143  
  9150.000000   1480645   1481710   1481904   1480868   1478418  
  9140.000000   1474684   1470085   1465303   1461083   1458079  
  9130.000000   1456634   1456720   1458000   1459994   1462257  
  9120.000000   1464461   1466470   1468263   1469875   1471290  
  9110.000000   1472431   1473223   1473629   1473729   1473642  
  9100.000000   1473517   1473390   1473193   1472723   1471746  
  9090.000000   1470108   1467836   1465167   1462468   1460165  
  9080.000000   1458582   1457906   1458106   1459038   1460492  
  9070.000000   1462271   1464201   1466123   1467884   1469286  
  9060.000000   1470103   1470123   1469250   1467547   1465278  
  9050.000000   1462849   1460734   1459333   1458860   1459289  
  9040.000000   1460358   1461646   1462695   1463138   1462818  
  9030.000000   1461803   1460350   1458781   1457392   1456360  
  9020.000000   1455750   1455520   1455626   1456055   1456865  
  9010.000000   1458128   1459847   1461914   1464073   1466013  
  9000.000000   1467450   1468280   1468617   1468781   1469158  
  8990.000000   1470034   1471465   1473230   1474918   1476047  
  8980.000000   1476253   1475393   1473578   1471107   1468312  
  8970.000000   1465518   1462943   1460785   1459203   1458410  
  8960.000000   1458604   1459882   1462113   1464881   1467552  
  8950.000000   1469396   1469818   1468521   1465656   1461755  
  8940.000000   1457597   1453969   1451486   1450470   1450946  
  8930.000000   1452701   1455368   1458525   1461737   1464568  
  8920.000000   1466605   1467512   1467158   1465638   1463354  
  8910.000000   1460873   1458854   1457789   1457887   1458995  
  8900.000000   1460692   1462491   1464013   1465169   1466132  
  8890.000000   1467268   1468900   1471160   1473869   1476580  
  8880.000000   1478760   1479966   1480065   1479220   1477863  
  8870.000000   1476479   1475434   1474860   1474618   1474441  
  8860.000000   1474067   1473430   1472698   1472232   1472425  
  8850.000000   1473528   1475518   1478055   1480582   1482479  
  8840.000000   1483304   1482899   1481471   1479497   1477593  
  8830.000000   1476338   1476109   1477034   1478958   1481562  
  8820.000000   1484426   1487167   1489475   1491172   1492206  
  8810.000000   1492628   1492570   1492163   1491539   1490743  
  8800.000000   1489792   1488627   1487222   1485593   1483871  
  8790.000000   1482297   1481169   1480790   1481351   1482890  
  8780.000000   1485242   1488110   1491136   1494014   1496566  
  8770.000000   1498744   1500625   1502308   1503890   1505372  
  8760.000000   1506698   1507755   1508465   1508805   1508850  
  8750.000000   1508749   1508690   1508863   1509393   1510340  
  8740.000000   1511657   1513225   1514861   1516372   1517587  
  8730.000000   1518400   1518798   1518861   1518753   1518674  
  8720.000000   1518817   1519307   1520196   1521443   1522957  
  8710.000000   1524610   1526272   1527820   1529148   1530180  
  8700.000000   1530886   1531310   1531587   1531929   1532599  
  8690.000000   1533808   1535654   1538041   1540703   1543261  
  8680.000000   1545347   1546724   1547377   1547527   1547555  
  8670.000000   1547876   1548796   1550418   1552625   1555133  
  8660.000000   1557601   1559728   1561346   1562438   1563120  
  8650.000000   1563591   1564063   1564720   1565674   1566968  
  8640.000000   1568580   1570432   1572428   1574446   1576387  
  8630.000000   1578167   1579733   1581059   1582122   1582928  
  8620.000000   1583497   1583914   1584328   1584963   1586070  
  8610.000000   1587862   1590410   1593583   1597013   1600186  
  8600.000000   1602563   1603750   1603637   1602444   1600679  
  8590.000000   1598967   1597868   1597699   1598463   1599882  
  8580.000000   1601507   1602916   1603835   1604255   1604368  
  8570.000000   1604517   1605021   1606076   1607680   1609630  
  8560.000000   1611618   1613285   1614367   1614715   1614370  
  8550.000000   1613503   1612387   1611327   1610604   1610432  
  8540.000000   1610920   1612084   1613862   1616135   1618736  
  8530.000000   1621479   1624162   1626607   1628655   1630211  
  8520.000000   1631261   1631873   1632202   1632426   1632726  
  8510.000000   1633206   1633883   1634668   1635414   1635963  
  8500.000000   1636205   1636122   1635786   1635347   1634979  
  8490.000000   1634839   1635026   1635583   1636486   1637686  
  8480.000000   1639108   1640681   1642338   1644020   1645687  
  8470.000000   1647297   1648824   1650230   1651484   1652524  
  8460.000000   1653295   1653737   1653845   1653671   1653350  
  8450.000000   1653075   1653060   1653482   1654421   1655843  
  8440.000000   1657600   1659493   1661313   1662925   1664280  
  8430.000000   1665424   1666449   1667456   1668503   1669597  
  8420.000000   1670694   1671719   1672607   1673315   1673838  
  8410.000000   1674190   1674398   1674487   1674476   1674386  
  8400.000000   1674226   1674027   1673826   1673695   1673712  
  8390.000000   1673974   1674559   1675525   1676855   1678460  
  8380.000000   1680154   1681708   1682887   1683519   1683550  
  8370.000000   1683059   1682249   1681364   1680622   1680137  
  8360.000000   1679893   1679769   1679587   1679221   1678636  
  8350.000000   1677933   1677296   1676939   1677019   1677574  
  8340.000000   1678492   1679542   1680449   1680964   1680939  
  8330.000000   1680361   1679362   1678187   1677124   1676443  
  8320.000000   1676316   1676800   1677812   1679163   1680594  
  8310.000000   1681848   1682726   1683124   1683036   1682531  
  8300.000000   1681711   1680680   1679523   1678311   1677116  
  8290.000000   1676028   1675154   1674601   1674425   1674603  
  8280.000000   1674996   1675397   1675578   1675374   1674742  
  8270.000000   1673777   1672692   1671737   1671118   1670928  
  8260.000000   1671126   1671573   1672095   1672551   1672863  
  8250.000000   1673031   1673089   1673078   1673007   1672849  
  8240.000000   1672556   1672090   1671438   1670614   1669638  
  8230.000000   1668521   1667257   1665857   1664365   1662883  
  8220.000000   1661556   1660531   1659895   1659628   1659571  
  8210.000000   1659478   1659092   1658270   1657037   1655607  
  8200.000000   1654292   1653398   1653096   1653356   1653950  
  8190.000000   1654529   1654753   1654393   1653391   1651848  
  8180.000000   1649951   1647897   1645828   1643820   1641907  
  8170.000000   1640122   1638518   1637174   1636141   1635430  
  8160.000000   1634964   1634618   1634244   1633743   1633087  
  8150.000000   1632324   1631539   1630786   1630056   1629265  
  8140.000000   1628300   1627076   1625596   1623960   1622339  
  8130.000000   1620903   1619755   1618882   1618168   1617434  
  8120.000000   1616512   1615309   1613837   1612209   1610595  
  8110.000000   1609175   1608086   1607404   1607130   1607200  
  8100.000000   1607493   1607845   1608074   1608002   1607499  
  8090.000000   1606513   1605100   1603398   1601600   1599875  
  8080.000000   1598326   1596958   1595695   1594435   1593111  
  8070.000000   1591745   1590446   1589376   1588671   1588382  
  8060.000000   1588426   1588609   1588681   1588418   1587707  
  8050.000000   1586574   1585180   1583751   1582503   1581569  
  8040.000000   1580965   1580587   1580270   1579820   1579102  
  8030.000000   1578045   1576678   1575090   1573420   1571804  
  8020.000000   1570359   1569165   1568267   1567685   1567423  
  8010.000000   1567479   1567836   1568462   1569293   1570228  
  8000.000000   1571136   1571867   1572295   1572319   1571916  
  7990.000000   1571110   1569995   1568685   1567309   1565984  
  7980.000000   1564801   1563842   1563160   1562799   1562766  
  7970.000000   1563032   1563513   1564078   1564563   1564804  
  7960.000000   1564674   1564108   1563132   1561842   1560400  
  7950.000000   1558983   1557768   1556882   1556393   1556296  
  7940.000000   1556508   1556901   1557312   1557599   1557667  
  7930.000000   1557496   1557155   1556758   1556442   1556286  
  7920.000000   1556301   1556395   1556428   1556253   1555791  
  7910.000000   1555073   1554239   1553502   1553070   1553078  
  7900.000000   1553536   1554331   1555268   1556134   1556765  
  7890.000000   1557077   1557079   1556835   1556434   1555952  
  7880.000000   1555445   1554946   1554488   1554112   1553867  
  7870.000000   1553789   1553884   1554114   1554397   1554639  
  7860.000000   1554753   1554702   1554505   1554232   1553975  
  7850.000000   1553813   1553790   1553892   1554064   1554222  
  7840.000000   1554283   1554188   1553908   1553455   1552868  
  7830.000000   1552216   1551574   1551028   1550644   1550462  
  7820.000000   1550477   1550630   1550811   1550882   1550706  
  7810.000000   1550189   1549304   1548115   1546752   1545396  
  7800.000000   1544219   1543360   1542878   1542758   1542902  
  7790.000000   1543170   1543396   1543428   1543146   1542481  
  7780.000000   1541431   1540041   1538417   1536680   1534963  
  7770.000000   1533365   1531953   1530739   1529710   1528841  
  7760.000000   1528123   1527582   1527265   1527234   1527518  
  7750.000000   1528097   1528887   1529753   1530550   1531148  
  7740.000000   1531484   1531549   1531394   1531079   1530664  
  7730.000000   1530172   1529605   1528955   1528226   1527456  
  7720.000000   1526700   1526031   1525496   1525120   1524879  
  7710.000000   1524732   1524625   1524517   1524376   1524182  
  7700.000000   1523914   1523540   1523024   1522344   1521505  
  7690.000000   1520559   1519598   1518741   1518094   1517723  
  7680.000000   1517633   1517758   1517987   1518184   1518228  
  7670.000000   1518023   1517528   1516751   1515753   1514636  
  7660.000000   1513530   1512572   1511877   1511522   1511519  
  7650.000000   1511823   1512342   1512965   1513593   1514146  
  7640.000000   1514579   1514857   1514962   1514859   1514537  
  7630.000000   1513992   1513278   1512489   1511767   1511248  
  7620.000000   1511030   1511145   1511540   1512117   1512760  
  7610.000000   1513395   1514003   1514628   1515334   1516163  
  7600.000000   1517101   1518063   1518923   1519538   1519811  
  7590.000000   1519702   1519261   1518594   1517847   1517166  
  7580.000000   1516671   1516441   1516506   1516856   1517441  
  7570.000000   1518184   1518992   1519774   1520464   1521033  
  7560.000000   1521495   1521892   1522288   1522734   1523273  
  7550.000000   1523906   1524629   1525412   1526232   1527064  
  7540.000000   1527894   1528712   1529519   1530323   1531150  
  7530.000000   1532032   1533006   1534087   1535260   1536472  
  7520.000000   1537646   1538709   1539624   1540412   1541157  
  7510.000000   1541973   1542962   1544170   1545569   1547055  
  7500.000000   1548496   1549768   1550814   1551649   1552358  
  7490.000000   1553047   1553819   1554733   1555812   1557040  
  7480.000000   1558398   1559867   1561446   1563124   1564882  
  7470.000000   1566672   1568441   1570137   1571751   1573304  
  7460.000000   1574871   1576524   1578327   1580287   1582366  
  7450.000000   1584479   1586545   1588514   1590393   1592236  
  7440.000000   1594137   1596173   1598382   1600729   1603128  
  7430.000000   1605454   1607594   1609475   1611108   1612575  
  7420.000000   1614009   1615563   1617358   1619464   1621868  
  7410.000000   1624505   1627267   1630056   1632788   1635418  
  7400.000000   1637924   1640298   1642521   1644558   1646366  
  7390.000000   1647918   1649222   1650332   1651346   1652382  
  7380.000000   1653552   1654934   1656548   1658373   1660350  
  7370.000000   1662416   1664506   1666572   1668569   1670470  
  7360.000000   1672259   1673946   1675579   1677228   1678986  
  7350.000000   1680919   1683050   1685322   1687615   1689780  
  7340.000000   1691689   1693292   1694630   1695825   1697032  
  7330.000000   1698393   1699984   1701807   1703789   1705830  
  7320.000000   1707830   1709725   1711482   1713102   1714592  
  7310.000000   1715968   1717238   1718426   1719566   1720706  
  7300.000000   1721891   1723148   1724475   1725836   1727178  
  7290.000000   1728453   1729635   1730735   1731782   1732819  
  7280.000000   1733869   1734940   1736020   1737094   1738154  
  7270.000000   1739212   1740287   1741392   1742520   1743636  
  7260.000000   1744687   1745619   1746402   1747036   1747569  
  7250.000000   1748061   1748591   1749211   1749963   1750858  
  7240.000000   1751904   1753097   1754447   1755953   1757628  
  7230.000000   1759457   1761432   1763518   1765692   1767918  
  7220.000000   1770180   1772456   1774751   1777066   1779432  
  7210.000000   1781868   1784413   1787075   1789853   1792708  
  7200.000000   1795599   1798473   1801317   1804140   1807000  
  7190.000000   1809955   1813062   1816318   1819686   1823069  
  7180.000000   1826378   1829540   1832557   1835482   1838424  
  7170.000000   1841490   1844770   1848292   1852052   1855995  
  7160.000000   1860074   1864230   1868435   1872650   1876858  
  7150.000000   1881025   1885152   1889251   1893394   1897658  
  7140.000000   1902149   1906917   1911974   1917250   1922655  
  7130.000000   1928076   1933458   1938779   1944089   1949435  
  7120.000000   1954879   1960419   1966039   1971683   1977328  
  7110.000000   1982972   1988673   1994501   2000540   2006821  
  7100.000000   2013344   2020046   2026849   2033660   2040412  
  7090.000000   2047046   2053541   2059884   2066096   2072216  
  7080.000000   2078323   2084508   2090877   2097489   2104355  
  7070.000000   2111398   2118488   2125467   2132213   2138673  
  7060.000000   2144887   2150971   2157077   2163346   2169864  
  7050.000000   2176639   2183609   2190659   2197658   2204490  
  7040.000000   2211074   2217379   2223420   2229263   2234999  
  7030.000000   2240744   2246595   2252620   2258830   2265184  
  7020.000000   2271586   2277923   2284074   2289962   2295539  
  7010.000000   2300816   2305822   2310631   2315313   2319960  
  7000.000000   2324648   2329447   2334382   2339447   2344565  
  6990.000000   2349640   2354533   2359150   2363423   2367372  
  6980.000000   2371055   2374580   2378031   2381477   2384920  
  6970.000000   2388338   2391671   2394884   2397947   2400878  
  6960.000000   2403697   2406449   2409151   2411825   2414455  
  6950.000000   2417036   2419537   2421951   2424260   2426475  
  6940.000000   2428603   2430673   2432700   2434700   2436657  
  6930.000000   2438541   2440297   2441878   2443252   2444439  
  6920.000000   2445493   2446507   2447568   2448746   2450047  
  6910.000000   2451438   2452845   2454198   2455443   2456571  
  6900.000000   2457602   2458583   2459550   2460533   2461535  
  6890.000000   2462554   2463577   2464596   2465594   2466545  
  6880.000000   2467414   2468159   2468752   2469195   2469531  
  6870.000000   2469846   2470236   2470788   2471545   2472500  
  6860.000000   2473599   2474765   2475922   2477015   2478013  
  6850.000000   2478905   2479689   2480361   2480918   2481367  
  6840.000000   2481734   2482059   2482393   2482779   2483235  
  6830.000000   2483753   2484299   2484837   2485331   2485769  
  6820.000000   2486148   2486475   2486747   2486959   2487098  
  6810.000000   2487169   2487189   2487202   2487253   2487383  
  6800.000000   2487599   2487879   2488171   2488417   2488564  
  6790.000000   2488591   2488493   2488292   2488006   2487661  
  6780.000000   2487273   2486862   2486451   2486069   2485732  
  6770.000000   2485447   2485194   2484935   2484627   2484236  
  6760.000000   2483748   2483177   2482547   2481887   2481214  
  6750.000000   2480537   2479864   2479215   2478622   2478130  
  6740.000000   2477768   2477535   2477385   2477235   2476986  
  6730.000000   2476558   2475921   2475102   2474176   2473241  
  6720.000000   2472381   2471649   2471058   2470590   2470212  
  6710.000000   2469893   2469600   2469311   2468992   2468615  
  6700.000000   2468153   2467597   2466955   2466263   2465554  
  6690.000000   2464858   2464176   2463489   2462762   2461971  
  6680.000000   2461103   2460182   2459232   2458280   2457327  
  6670.000000   2456355   2455328   2454225   2453038   2451796  
  6660.000000   2450535   2449290   2448061   2446822   2445520  
  6650.000000   2444111   2442575   2440940   2439267   2437634  
  6640.000000   2436101   2434702   2433424   2432238   2431099  
  6630.000000   2429978   2428853   2427717   2426554   2425347  
  6620.000000   2424063   2422678   2421176   2419565   2417872  
  6610.000000   2416132   2414377   2412624   2410878   2409140  
  6600.000000   2407411   2405704   2404030   2402404   2400825  
  6590.000000   2399285   2397766   2396258   2394762   2393295  
  6580.000000   2391874   2390510   2389193   2387890   2386561  
  6570.000000   2385173   2383713   2382197   2380656   2379124  
  6560.000000   2377620   2376140   2374668   2373181   2371673  
  6550.000000   2370155   2368655   2367196   2365790   2364423  
  6540.000000   2363069   2361699   2360303   2358896   2357513  
  6530.000000   2356196   2354977   2353858   2352821   2351829  
  6520.000000   2350846   2349846   2348823   2347778   2346723  
  6510.000000   2345662   2344600   2343541   2342496   2341481  
  6500.000000   2340516   2339615   2338777   2337984   2337204  
  6490.000000   2336402   2335547   2334620   2333616   2332538  
  6480.000000   2331398   2330217   2329023   2327853   2326747  
  6470.000000   2325736   2324829   2324003   2323205   2322370  
  6460.000000   2321442   2320401   2319269   2318106   2316985  
  6450.000000   2315963   2315060   2314255   2313502   2312750  
  6440.000000   2311971   2311163   2310348   2309549   2308774  
  6430.000000   2308007   2307221   2306389   2305511   2304616  
  6420.000000   2303757   2302986   2302334   2301794   2301331  
  6410.000000   2300888   2300422   2299910   2299357   2298785  
  6400.000000   2298215   2297657   2297105   2296546   2295973  
  6390.000000   2295394   2294831   2294307   2293840   2293426  
  6380.000000   2293043   2292661   2292252   2291804   2291324  
  6370.000000   2290832   2290351   2289893   2289462   2289052  
  6360.000000   2288651   2288250   2287842   2287417   2286959  
  6350.000000   2286448   2285861   2285186   2284424   2283596  
  6340.000000   2282730   2281863   2281013   2280194   2279400  
  6330.000000   2278627   2277867   2277122   2276390   2275669  
  6320.000000   2274939   2274178   2273354   2272454   2271474  
  6310.000000   2270441   2269385   2268341   2267321   2266322  
  6300.000000   2265316   2264275   2263165   2261974   2260688  
  6290.000000   2259310   2257833   2256257   2254580   2252822  
  6280.000000   2251009   2249194   2247421   2245730   2244125  
  6270.000000   2242590   2241080   2239555   2237976   2236332  
  6260.000000   2234623   2232868   2231073   2229241   2227362  
  6250.000000   2225427   2223428   2221373   2219278   2217166  
  6240.000000   2215053   2212954   2210879   2208841   2206854  
  6230.000000   2204939   2203104   2201345   2199635   2197930  
  6220.000000   2196183   2194354   2192425   2190405   2188323  
  6210.000000   2186215   2184118   2182055   2180044   2178100  
  6200.000000   2176236   2174464   2172788   2171199   2169669  
  6190.000000   2168157   2166626   2165052   2163435   2161792  
  6180.000000   2160150   2158524   2156916   2155308   2153681  
  6170.000000   2152024   2150352   2148698   2147101   2145590  
  6160.000000   2144163   2142791   2141427   2140032   2138590  
  6150.000000   2137116   2135649   2134223   2132859   2131537  
  6140.000000   2130220   2128855   2127412   2125884   2124305  
  6130.000000   2122720   2121178   2119709   2118322   2117008  
  6120.000000   2115758   2114568   2113454   2112428   2111505  
  6110.000000   2110673   2109911   2109171   2108416   2107611  
  6100.000000   2106751   2105843   2104922   2104016   2103166  
  6090.000000   2102400   2101745   2101215   2100820   2100546  
  6080.000000   2100376   2100269   2100190   2100100   2099987  
  6070.000000   2099848   2099707   2099581   2099499   2099465  
  6060.000000   2099491   2099572   2099722   2099951   2100289  
  6050.000000   2100751   2101353   2102080   2102916   2103821  
  6040.000000   2104774   2105750   2106759   2107810   2108933  
  6030.000000   2110140   2111450   2112855   2114356   2115932  
  6020.000000   2117579   2119281   2121037   2122837   2124684  
  6010.000000   2126570   2128501   2130465   2132462   2134475  
  6000.000000   2136496   2138509   2140522   2142543   2144603  
  5990.000000   2146728   2148950   2151274   2153694   2156178  
  5980.000000   2158698   2161225   2163754   2166290   2168859  
  5970.000000   2171474   2174149   2176872   2179629   2182392  
  5960.000000   2185153   2187904   2190658   2193420   2196199  
  5950.000000   2198989   2201789   2204593   2207413   2210266  
  5940.000000   2213184   2216191   2219300   2222506   2225789  
  5930.000000   2229122   2232481   2235850   2239223   2242593  
  5920.000000   2245948   2249267   2252517   2255668   2258697  
  5910.000000   2261597   2264376   2267053   2269646   2272172  
  5900.000000   2274640   2277062   2279448   2281824   2284209  
  5890.000000   2286632   2289103   2291627   2294191   2296782  
  5880.000000   2299379   2301970   2304535   2307057   2309509  
  5870.000000   2311863   2314096   2316194   2318170   2320052  
  5860.000000   2321888   2323719   2325581   2327489   2329450  
  5850.000000   2331469   2333559   2335742   2338048   2340497  
  5840.000000   2343090   2345804   2348595   2351413   2354220  
  5830.000000   2356995   2359740   2362464   2365176   2367867  
  5820.000000   2370511   2373075   2375524   2377841   2380023  
  5810.000000   2382089   2384049   2385929   2387727   2389461  
  5800.000000   2391124   2392746   2394328   2395904   2397457  
  5790.000000   2398984   2400423   2401727   2402803   2403587  
  5780.000000   2403992   2403969   2403461   2402458   2400959  
  5770.000000   2399027   2396747   2394257   2391688   2389183  
  5760.000000   2386828   2384684   2382750   2381008   2379417  
  5750.000000   2377952   2376590   2375329   2374165   2373091  
  5740.000000   2372099   2371166   2370282   2369428   2368605  
  5730.000000   2367802   2367025   2366268   2365542   2364855  
  5720.000000   2364232   2363695   2363267   2362947   2362724  
  5710.000000   2362557   2362409   2362247   2362066   2361883  
  5700.000000   2361737   2361665   2361693   2361822   2362032  
  5690.000000   2362291   2362568   2362847   2363119   2363386  
  5680.000000   2363636   2363861   2364030   2364119   2364099  
  5670.000000   2363955   2363667   2363222   2362588   2361739  
  5660.000000   2360647   2359311   2357756   2356048   2354267  
  5650.000000   2352502   2350810   2349227   2347741   2346330  
  5640.000000   2344960   2343615   2342291   2340998   2339747  
  5630.000000   2338543   2337388   2336277   2335216   2334210  
  5620.000000   2333275   2332414   2331620   2330862   2330105  
  5610.000000   2329309   2328461   2327567   2326664   2325794  
  5600.000000   2324992   2324270   2323616   2322995   2322368  
  5590.000000   2321703   2320985   2320210   2319383   2318509  
  5580.000000   2317588   2316623   2315618   2314588   2313549  
  5570.000000   2312521   2311513   2310524   2309538   2308540  
  5560.000000   2307517   2306469   2305402   2304329   2303257  
  5550.000000   2302186   2301109   2300023   2298928   2297839  
  5540.000000   2296776   2295756   2294783   2293845   2292917  
  5530.000000   2291969   2290982   2289949   2288881   2287799  
  5520.000000   2286720   2285654   2284602   2283561   2282527  
  5510.000000   2281499   2280476   2279456   2278428   2277377  
  5500.000000   2276284   2275144   2273963   2272770   2271589  
  5490.000000   2270444   2269327   2268214   2267060   2265827  
  5480.000000   2264492   2263062   2261560   2260025   2258482  
  5470.000000   2256946   2255405   2253848   2252260   2250643  
  5460.000000   2249000   2247343   2245665   2243953   2242181  
  5450.000000   2240331   2238398   2236405   2234391   2232399  
  5440.000000   2230462   2228587   2226770   2224995   2223256  
  5430.000000   2221554   2219907   2218317   2216785   2215283  
  5420.000000   2213794   2212297   2210816   2209388   2208088  
  5410.000000   2206967   2206061   2205348   2204787   2204309  
  5400.000000   2203882   2203478   2203125   2202846   2202685  
  5390.000000   2202646   2202736   2202925   2203216   2203599  
  5380.000000   2204109   2204760   2205588   2206575   2207722  
  5370.000000   2208980   2210349   2211801   2213376   2215078  
  5360.000000   2216963   2219024   2221309   2223798   2226548  
  5350.000000   2229559   2232912   2236613   2240729   2245225  
  5340.000000   2250133   2255391   2261042   2267055   2273505  
  5330.000000   2280371   2287720   2295494   2303727   2312342  
  5320.000000   2321397   2330858   2340842   2351353   2362525  
  5310.000000   2374338   2386886   2400103   2414051   2428665  
  5300.000000   2444027   2460099   2476992   2494684   2513279  
  5290.000000   2532731   2553088   2574240   2596158   2618684  
  5280.000000   2641776   2665323   2689365   2713900   2739040  
  5270.000000   2764804   2791219   2818168   2845493   2872970  
  5260.000000   2900411   2927700   2954806   2981788   3008689  
  5250.000000   3035545   3062251   3088681   3114579   3139798  
  5240.000000   3164157   3187688   3210383   3232412   3253809  
  5230.000000   3274700   3295009   3314739   3333713   3351903  
  5220.000000   3369171   3385588   3401127   3415957   3430095  
  5210.000000   3443694   3456705   3469175   3480955   3492038  
  5200.000000   3502282   3511749   3520394   3528358   3535641  
  5190.000000   3542367   3548482   3554042   3558946   3563235  
  5180.000000   3566839   3569839   3572211   3574052   3575335  
  5170.000000   3576135   3576410   3576230   3575569   3574512  
  5160.000000   3573044   3571238   3569060   3566552   3563668  
  5150.000000   3560453   3556887   3553039   3548908   3544557  
  5140.000000   3539971   3535183   3530167   3524953   3519535  
  5130.000000   3513959   3508234   3502405   3496473   3490464  
  5120.000000   3484371   3478220   3472016   3465791   3459552  
  5110.000000   3453318   3447077   3440826   3434551   3428257  
  5100.000000   3421954   3415673   3409439   3403281   3397206  
  5090.000000   3391217   3385298   3379440   3373628   3367856  
  5080.000000   3362114   3356394   3350675   3344941   3339169  
  5070.000000   3333352   3327488   3321594   3315683   3309775  
  5060.000000   3303872   3297970   3292051   3286100   3280100  
  5050.000000   3274047   3267939   3261785   3255589   3249354  
  5040.000000   3243076   3236754   3230381   3223960   3217498  
  5030.000000   3211005   3204499   3197999   3191525   3185098  
  5020.000000   3178742   3172474   3166316   3160275   3154365  
  5010.000000   3148580   3142928   3137393   3131983   3126685  
  5000.000000   3121514   3116455   3111531   3106728   3102075  
  4990.000000   3097565   3093236   3089089   3085174   3081489  
  4980.000000   3078078   3074926   3072060   3069450   3067121  
  4970.000000   3065041   3063249   3061727   3060523   3059624  
  4960.000000   3059080   3058869   3059037   3059553   3060459  
  4950.000000   3061718   3063361   3065340   3067672   3070300  
  4940.000000   3073238   3076438   3079931   3083693   3087774  
  4930.000000   3092159   3096895   3101953   3107362   3113079  
  4920.000000   3119119   3125439   3132059   3138944   3146114  
  4910.000000   3153539   3161232   3169160   3177322   3185680  
  4900.000000   3194227   3202924   3211760   3220703   3229736  
  4890.000000   3238835   3247972   3257116   3266226   3275263  
  4880.000000   3284174   3292926   3301468   3309781   3317821  
  4870.000000   3325580   3333017   3340132   3346889   3353303  
  4860.000000   3359351   3365065   3370435   3375501   3380252  
  4850.000000   3384729   3388924   3392884   3396614   3400168  
  4840.000000   3403558   3406828   3409976   3413026   3415959  
  4830.000000   3418794   3421521   3424168   3426741   3429273  
  4820.000000   3431762   3434218   3436620   3438956   3441199  
  4810.000000   3443344   3445385   3447341   3449230   3451084  
  4800.000000   3452925   3454781   3456663   3458583   3460537  
  4790.000000   3462525   3464530   3466540   3468533   3470495  
  4780.000000   3472408   3474269   3476070   3477819   3479512  
  4770.000000   3481158   3482751   3484292   3485765   3487167  
  4760.000000   3488472   3489673   3490742   3491671   3492434  
  4750.000000   3493034   3493456   3493717   3493816   3493781  
  4740.000000   3493617   3493348   3492977   3492520   3491975  
  4730.000000   3491354   3490652   3489881   3489037   3488130  
  4720.000000   3487159   3486131   3485050   3483927   3482777  
  4710.000000   3481621   3480487   3479402   3478396   3477487  
  4700.000000   3476690   3476008   3475436   3474964   3474582  
  4690.000000   3474281   3474058   3473907   3473830   3473815  
  4680.000000   3473852   3473913   3473977   3474005   3473982  
  4670.000000   3473884   3473719   3473489   3473230   3472967  
  4660.000000   3472750   3472613   3472604   3472750   3473085  
  4650.000000   3473617   3474356   3475292   3476413   3477693  
  4640.000000   3479112   3480642   3482269   3483971   3485735  
  4630.000000   3487545   3489383   3491227   3493057   3494846  
  4620.000000   3496571   3498208   3499732   3501123   3502357  
  4610.000000   3503422   3504304   3505014   3505561   3505984  
  4600.000000   3506311   3506590   3506845   3507110   3507383  
  4590.000000   3507673   3507955   3508218   3508430   3508572  
  4580.000000   3508611   3508534   3508320   3507970   3507488  
  4570.000000   3506900   3506229   3505513   3504770   3504016  
  4560.000000   3503243   3502441   3501583   3500656   3499648  
  4550.000000   3498567   3497424   3496242   3495038   3493824  
  4540.000000   3492611   3491398   3490197   3489011   3487862  
  4530.000000   3486757   3485721   3484752   3483870   3483062  
  4520.000000   3482357   3481750   3481295   3481004   3480950  
  4510.000000   3481148   3481676   3482537   3483807   3485477  
  4500.000000   3487625   3490235   3493383   3497042   3501284  
  4490.000000   3506075   3511487   3517494   3524178   3531516  
  4480.000000   3539585   3548348   3557852   3568024   3578873  
  4470.000000   3590300   3602286   3614728   3627602   3640816  
  4460.000000   3654352   3668134   3682143   3696308   3710602  
  4450.000000   3724959   3739340   3753693   3767986   3782190  
  4440.000000   3796288   3810277   3824140   3837890   3851498  
  4430.000000   3864978   3878282   3891423   3904333   3917018  
  4420.000000   3929388   3941438   3953061   3964240   3974858  
  4410.000000   3984893   3994226   4002837   4010621   4017582  
  4400.000000   4023661   4028913   4033346   4037074   4040163  
  4390.000000   4042759   4044953   4046887   4048639   4050323  
  4380.000000   4051991   4053719   4055541   4057516   4059684  
  4370.000000   4062105   4064832   4067918   4071406   4075317  
  4360.000000   4079652   4084383   4089461   4094827   4100396  
  4350.000000   4106101   4111844   4117586   4123256   4128871  
  4340.000000   4134416   4139938   4145399   4150739   4155741  
  4330.000000   4160110   4163422   4165275   4165315   4163410  
  4320.000000   4159650   4154416   4148251   4141817   4135688  
  4310.000000   4130330   4125954   4122612   4120167   4118447  
  4300.000000   4117247   4116435   4115913   4115634   4115565  
  4290.000000   4115658   4115875   4116150   4116460   4116777  
  4280.000000   4117125   4117528   4118026   4118659   4119445  
  4270.000000   4120413   4121544   4122814   4124123   4125332  
  4260.000000   4126218   4126539   4126038   4124534   4121938  
  4250.000000   4118315   4113846   4108824   4103563   4098381  
  4240.000000   4093501   4089081   4085154   4081706   4078644  
  4230.000000   4075878   4073294   4070800   4068312   4065769  
  4220.000000   4063141   4060417   4057637   4054844   4052130  
  4210.000000   4049559   4047217   4045131   4043331   4041792  
  4200.000000   4040492   4039373   4038403   4037528   4036735  
  4190.000000   4035986   4035297   4034643   4034062   4033538  
  4180.000000   4033123   4032811   4032664   4032689   4032965  
  4170.000000   4033517   4034442   4035771   4037602   4039946  
  4160.000000   4042872   4046351   4050414   4054998   4060118  
  4150.000000   4065700   4071762   4078233   4085135   4092402  
  4140.000000   4100068   4108081   4116494   4125276   4134493  
  4130.000000   4144119   4154210   4164723   4175687   4187049  
  4120.000000   4198830   4210988   4223559   4236524   4249931  
  4110.000000   4263762   4278043   4292722   4307772   4323098  
  4100.000000   4338636   4354286   4370004   4385743   4401518  
  4090.000000   4417349   4433281   4449350   4465578   4481972  
  4080.000000   4498512   4515186   4531951   4548788   4565632  
  4070.000000   4582444   4599115   4615589   4631748   4647565  
  4060.000000   4662968   4677993   4692603   4706847   4720661  
  4050.000000   4734070   4746972   4759386   4771212   4782494  
  4040.000000   4793135   4803179   4812515   4821177   4829059  
  4030.000000   4836220   4842581   4848215   4853050   4857131  
  4020.000000   4860344   4862732   4864254   4864997   4864930  
  4010.000000   4864213   4862931   4861143   4858674   4855610  
  4000.000000   4852240  
##END= 
