##TITLE= Sample 031 By ssteindl date Dienstag, November 20 2018
##JCAMP-DX= 4.24
##DATA TYPE= INFRARED SPECTRUM
##ORIGIN= Exported PE Spectrum Data File
##OWNER= Sandra Steindl
##DATE= 18/11/20
##TIME= 15:03:43.00
##SPECTROMETER/DATA SYSTEM= PERKIN-ELMER Frontier FT-IR/NIR IR
##INSTRUMENT PARAMETERS=
  APODIZATION=stark
  DETECTOR=INGAAS
##RESOLUTION= 16.000000
##DELTAX= -2.000000
##XUNITS= 1/CM
##YUNITS= A
##XFACTOR= 1.00
##YFACTOR= 0.00000011920928955078
##FIRSTX= 10000.00
##LASTX= 4000.00
##NPOINTS= 3001
##FIRSTY= 0.204499
##MAXY= 0.586223
##MINY= 0.182094
##XYDATA= (X++(Y..Y))
 10000.000000   1715460   1718160   1719926   1719626   1717348  
  9990.000000   1714113   1710870   1708309   1707040   1707474  
  9980.000000   1709343   1711872   1714175   1715616   1715974  
  9970.000000   1715498   1714778   1714374   1714505   1714902  
  9960.000000   1714972   1714092   1712044   1709188   1706399  
  9950.000000   1704737   1704929   1707111   1710694   1714728  
  9940.000000   1718274   1720848   1722507   1723702   1724896  
  9930.000000   1726208   1727310   1727548   1726346   1723489  
  9920.000000   1719356   1714723   1710486   1707224   1705011  
  9910.000000   1703482   1702100   1700587   1699045   1698024  
  9900.000000   1698093   1699637   1702484   1706084   1709653  
  9890.000000   1712618   1714787   1716360   1717671   1718790  
  9880.000000   1719354   1718533   1715454   1709542   1700950  
  9870.000000   1690516   1679574   1669450   1661092   1654857  
  9860.000000   1650595   1647934   1646564   1646421   1647598  
  9850.000000   1650169   1653939   1658384   1662794   1666541  
  9840.000000   1669405   1671610   1673776   1676478   1680000  
  9830.000000   1684056   1687935   1690748   1691830   1691013  
  9820.000000   1688650   1685458   1682171   1679313   1677018  
  9810.000000   1675164   1673474   1671775   1670009   1668266  
  9800.000000   1666610   1665035   1663429   1661671   1659757  
  9790.000000   1657825   1656141   1654906   1654138   1653596  
  9780.000000   1652877   1651638   1649824   1647800   1646288  
  9770.000000   1646097   1647801   1651420   1656333   1661393  
  9760.000000   1665284   1666938   1665905   1662479   1657611  
  9750.000000   1652580   1648615   1646554   1646636   1648499  
  9740.000000   1651323   1654113   1655964   1656305   1655005  
  9730.000000   1652381   1649058   1645791   1643225   1641740  
  9720.000000   1641351   1641774   1642542   1643206   1643486  
  9710.000000   1643359   1643052   1642883   1643134   1643827  
  9700.000000   1644730   1645323   1645025   1643351   1640148  
  9690.000000   1635705   1630746   1626320   1623527   1623269  
  9680.000000   1625945   1631320   1638505   1646162   1652817  
  9670.000000   1657226   1658665   1657090   1653119   1647849  
  9660.000000   1642576   1638454   1636237   1636126   1637762  
  9650.000000   1640385   1643010   1644729   1644876   1643248  
  9640.000000   1640080   1636014   1631850   1628326   1625885  
  9630.000000   1624552   1623998   1623691   1623165   1622202  
  9620.000000   1620906   1619640   1618792   1618614   1619045  
  9610.000000   1619747   1620259   1620183   1619398   1618052  
  9600.000000   1616510   1615124   1614066   1613241   1612374  
  9590.000000   1611185   1609590   1607772   1606125   1605045  
  9580.000000   1604746   1605126   1605834   1606416   1606544  
  9570.000000   1606129   1605353   1604541   1604000   1603880  
  9560.000000   1604154   1604693   1605419   1606371   1607717  
  9550.000000   1609583   1611927   1614413   1616498   1617616  
  9540.000000   1617437   1616047   1613952   1611941   1610788  
  9530.000000   1610999   1612630   1615307   1618398   1621248  
  9520.000000   1623406   1624673   1625071   1624698   1623628  
  9510.000000   1621923   1619665   1617111   1614661   1612874  
  9500.000000   1612249   1613134   1615519   1619076   1623158  
  9490.000000   1627003   1629886   1631259   1630860   1628643  
  9480.000000   1624816   1619706   1613796   1607645   1601852  
  9470.000000   1597002   1593535   1591758   1591729   1593371  
  9460.000000   1596396   1600427   1604935   1609334   1612998  
  9450.000000   1615353   1615999   1614777   1611872   1607770  
  9440.000000   1603182   1598848   1595347   1592942   1591563  
  9430.000000   1590867   1590417   1589792   1588703   1586972  
  9420.000000   1584510   1581257   1577208   1572477   1567406  
  9410.000000   1562608   1558899   1557106   1557793   1561072  
  9400.000000   1566486   1573134   1579868   1585604   1589591  
  9390.000000   1591515   1591551   1590111   1587766   1584941  
  9380.000000   1581976   1578996   1576071   1573199   1570408  
  9370.000000   1567806   1565547   1563924   1563203   1563706  
  9360.000000   1565607   1568968   1573586   1579009   1584565  
  9350.000000   1589462   1593011   1594738   1594559   1592716  
  9340.000000   1589744   1586264   1582871   1579987   1577831  
  9330.000000   1576442   1575717   1575508   1575634   1575960  
  9320.000000   1576347   1576714   1576965   1577059   1576964  
  9310.000000   1576709   1576362   1576027   1575843   1575944  
  9300.000000   1576448   1577383   1578647   1579975   1580987  
  9290.000000   1581266   1580513   1578627   1575784   1572401  
  9280.000000   1569017   1566156   1564145   1563077   1562808  
  9270.000000   1563097   1563717   1564556   1565619   1566922  
  9260.000000   1568395   1569789   1570727   1570785   1569692  
  9250.000000   1567435   1564363   1561108   1558422   1556948  
  9240.000000   1557003   1558541   1561158   1564268   1567224  
  9230.000000   1569509   1570823   1571088   1570408   1568958  
  9220.000000   1566958   1564591   1562042   1559456   1556981  
  9210.000000   1554757   1552924   1551628   1550956   1550974  
  9200.000000   1551630   1552833   1554404   1556147   1557859  
  9190.000000   1559351   1560477   1561088   1561074   1560321  
  9180.000000   1558800   1556550   1553771   1550796   1548063  
  9170.000000   1546006   1544890   1544762   1545382   1546365  
  9160.000000   1547279   1547832   1547962   1547811   1547634  
  9150.000000   1547601   1547715   1547711   1547226   1545928  
  9140.000000   1543762   1540988   1538143   1535893   1534799  
  9130.000000   1535169   1536912   1539668   1542916   1546185  
  9120.000000   1549125   1551544   1553347   1554466   1554814  
  9110.000000   1554296   1552901   1550744   1548129   1545423  
  9100.000000   1542992   1541043   1539579   1538408   1537215  
  9090.000000   1535748   1533916   1531864   1529897   1528397  
  9080.000000   1527682   1527908   1529002   1530728   1532760  
  9070.000000   1534784   1536571   1537996   1539075   1539875  
  9060.000000   1540496   1540955   1541209   1541106   1540474  
  9050.000000   1539153   1537109   1534506   1531723   1529297  
  9040.000000   1527754   1527511   1528702   1531144   1534328  
  9030.000000   1537584   1540269   1541920   1542346   1541639  
  9020.000000   1540128   1538235   1536372   1534848   1533875  
  9010.000000   1533535   1533788   1534505   1535482   1536492  
  9000.000000   1537296   1537728   1537738   1537399   1536865  
  8990.000000   1536291   1535779   1535310   1534780   1534059  
  8980.000000   1533113   1532059   1531156   1530750   1531120  
  8970.000000   1532366   1534311   1536558   1538609   1540018  
  8960.000000   1540535   1540159   1539130   1537803   1536525  
  8950.000000   1535525   1534909   1534659   1534698   1534925  
  8940.000000   1535249   1535586   1535829   1535889   1535690  
  8930.000000   1535256   1534707   1534274   1534229   1534783  
  8920.000000   1536000   1537730   1539655   1541341   1542397  
  8910.000000   1542574   1541862   1540471   1538751   1537110  
  8900.000000   1535888   1535328   1535504   1536394   1537874  
  8890.000000   1539779   1541876   1543892   1545534   1546512  
  8880.000000   1546616   1545727   1543907   1541342   1538355  
  8870.000000   1535293   1532490   1530204   1528610   1527821  
  8860.000000   1527899   1528898   1530842   1533681   1537227  
  8850.000000   1541130   1544911   1548046   1550108   1550882  
  8840.000000   1550485   1549318   1547992   1547116   1547139  
  8830.000000   1548209   1550148   1552527   1554796   1556473  
  8820.000000   1557257   1557113   1556216   1554894   1553489  
  8810.000000   1552297   1551492   1551138   1551202   1551593  
  8800.000000   1552200   1552907   1553625   1554282   1554845  
  8790.000000   1555297   1555641   1555866   1555958   1555887  
  8780.000000   1555667   1555355   1555116   1555174   1555788  
  8770.000000   1557148   1559304   1562102   1565196   1568146  
  8760.000000   1570546   1572173   1573051   1573447   1573759  
  8750.000000   1574385   1575558   1577295   1579375   1581463  
  8740.000000   1583212   1584387   1584902   1584817   1584267  
  8730.000000   1583399   1582302   1581015   1579550   1577948  
  8720.000000   1576300   1574762   1573523   1572760   1572594  
  8710.000000   1573048   1574054   1575448   1577023   1578535  
  8700.000000   1579780   1580600   1580964   1580957   1580801  
  8690.000000   1580795   1581253   1582421   1584398   1587102  
  8680.000000   1590284   1593582   1596623   1599084   1600773  
  8670.000000   1601612   1601651   1601013   1599889   1598496  
  8660.000000   1597075   1595870   1595124   1595047   1595771  
  8650.000000   1597321   1599581   1602327   1605252   1608027  
  8640.000000   1610371   1612092   1613162   1613675   1613869  
  8630.000000   1614016   1614400   1615217   1616557   1618379  
  8620.000000   1620544   1622879   1625245   1627583   1629905  
  8610.000000   1632263   1634662   1637031   1639183   1640890  
  8600.000000   1641957   1642336   1642184   1641840   1641735  
  8590.000000   1642238   1643502   1645403   1647549   1649439  
  8580.000000   1650634   1650923   1650392   1649391   1648411  
  8570.000000   1647893   1648077   1648941   1650244   1651660  
  8560.000000   1652902   1653860   1654603   1655356   1656357  
  8550.000000   1657785   1659659   1661836   1664049   1665972  
  8540.000000   1667347   1667983   1667830   1666935   1665466  
  8530.000000   1663652   1661751   1660039   1658765   1658143  
  8520.000000   1658275   1659185   1660790   1662945   1665445  
  8510.000000   1668074   1670638   1672957   1674878   1676253  
  8500.000000   1676999   1677068   1676527   1675535   1674387  
  8490.000000   1673437   1673026   1673405   1674657   1676687  
  8480.000000   1679223   1681919   1684432   1686526   1688098  
  8470.000000   1689180   1689903   1690415   1690851   1691272  
  8460.000000   1691711   1692166   1692659   1693219   1693889  
  8450.000000   1694692   1695607   1696591   1697573   1698529  
  8440.000000   1699470   1700492   1701709   1703222   1705039  
  8430.000000   1707056   1709063   1710804   1712053   1712681  
  8420.000000   1712707   1712269   1711576   1710827   1710151  
  8410.000000   1709593   1709125   1708717   1708361   1708125  
  8400.000000   1708112   1708441   1709160   1710236   1711521  
  8390.000000   1712812   1713900   1714634   1714966   1714944  
  8380.000000   1714700   1714377   1714088   1713882   1713749  
  8370.000000   1713647   1713538   1713423   1713342   1713374  
  8360.000000   1713580   1713993   1714571   1715229   1715841  
  8350.000000   1716305   1716559   1716605   1716492   1716292  
  8340.000000   1716054   1715788   1715458   1715002   1714378  
  8330.000000   1713577   1712650   1711676   1710738   1709892  
  8320.000000   1709141   1708462   1707820   1707232   1706772  
  8310.000000   1706567   1706736   1707339   1708330   1709542  
  8300.000000   1710731   1711633   1712059   1711942   1711359  
  8290.000000   1710478   1709505   1708611   1707911   1707449  
  8280.000000   1707232   1707240   1707451   1707829   1708306  
  8270.000000   1708774   1709082   1709097   1708753   1708112  
  8260.000000   1707355   1706742   1706522   1706845   1707699  
  8250.000000   1708907   1710170   1711176   1711683   1711601  
  8240.000000   1710976   1709971   1708770   1707546   1706395  
  8230.000000   1705368   1704458   1703651   1702920   1702236  
  8220.000000   1701543   1700762   1699790   1698519   1696878  
  8210.000000   1694847   1692480   1689891   1687239   1684705  
  8200.000000   1682462   1680669   1679437   1678838   1678861  
  8190.000000   1679428   1680368   1681448   1682407   1682999  
  8180.000000   1683057   1682505   1681384   1679800   1677917  
  8170.000000   1675893   1673883   1672014   1670396   1669117  
  8160.000000   1668223   1667711   1667495   1667431   1667315  
  8150.000000   1666961   1666228   1665081   1663600   1661939  
  8140.000000   1660292   1658806   1657560   1656534   1655644  
  8130.000000   1654782   1653860   1652849   1651777   1650718  
  8120.000000   1649763   1648984   1648414   1648033   1647779  
  8110.000000   1647559   1647275   1646842   1646214   1645388  
  8100.000000   1644413   1643381   1642396   1641557   1640919  
  8090.000000   1640485   1640203   1639984   1639731   1639356  
  8080.000000   1638800   1638029   1637024   1635786   1634328  
  8070.000000   1632696   1630970   1629280   1627773   1626591  
  8060.000000   1625822   1625462   1625405   1625459   1625402  
  8050.000000   1625039   1624255   1623044   1621489   1619740  
  8040.000000   1617958   1616291   1614852   1613721   1612949  
  8030.000000   1612542   1612462   1612590   1612740   1612667  
  8020.000000   1612141   1610997   1609230   1606988   1604579  
  8010.000000   1602361   1600659   1599657   1599362   1599616  
  8000.000000   1600178   1600813   1601373   1601826   1602225  
  7990.000000   1602657   1603166   1603721   1604224   1604548  
  7980.000000   1604611   1604400   1603998   1603523   1603083  
  7970.000000   1602708   1602336   1601838   1601076   1599973  
  7960.000000   1598563   1596989   1595458   1594177   1593275  
  7950.000000   1592775   1592594   1592595   1592644   1592673  
  7940.000000   1592698   1592806   1593105   1593674   1594511  
  7930.000000   1595526   1596565   1597438   1597993   1598133  
  7920.000000   1597857   1597227   1596362   1595384   1594395  
  7910.000000   1593461   1592604   1591827   1591128   1590521  
  7900.000000   1590033   1589705   1589556   1589585   1589742  
  7890.000000   1589946   1590108   1590152   1590057   1589848  
  7880.000000   1589611   1589435   1589403   1589542   1589821  
  7870.000000   1590160   1590458   1590637   1590660   1590557  
  7860.000000   1590404   1590300   1590323   1590509   1590827  
  7850.000000   1591188   1591462   1591517   1591247   1590602  
  7840.000000   1589601   1588332   1586927   1585541   1584311  
  7830.000000   1583334   1582647   1582229   1582011   1581908  
  7820.000000   1581838   1581743   1581593   1581380   1581105  
  7810.000000   1580764   1580351   1579856   1579289   1578673  
  7800.000000   1578058   1577495   1577026   1576662   1576380  
  7790.000000   1576137   1575882   1575594   1575283   1574995  
  7780.000000   1574780   1574677   1574680   1574735   1574756  
  7770.000000   1574649   1574349   1573838   1573158   1572387  
  7760.000000   1571615   1570919   1570337   1569870   1569487  
  7750.000000   1569149   1568824   1568501   1568185   1567894  
  7740.000000   1567639   1567412   1567176   1566874   1566440  
  7730.000000   1565824   1565011   1564033   1562975   1561947  
  7720.000000   1561058   1560382   1559929   1559646   1559429  
  7710.000000   1559165   1558765   1558201   1557505   1556757  
  7700.000000   1556051   1555457   1555009   1554689   1554457  
  7690.000000   1554258   1554055   1553821   1553543   1553205  
  7680.000000   1552783   1552255   1551620   1550917   1550229  
  7670.000000   1549674   1549369   1549385   1549715   1550266  
  7660.000000   1550884   1551393   1551658   1551616   1551292  
  7650.000000   1550772   1550171   1549582   1549063   1548622  
  7640.000000   1548245   1547912   1547622   1547386   1547220  
  7630.000000   1547132   1547103   1547106   1547107   1547099  
  7620.000000   1547107   1547186   1547402   1547793   1548349  
  7610.000000   1548996   1549615   1550074   1550273   1550180  
  7600.000000   1549844   1549369   1548891   1548523   1548325  
  7590.000000   1548292   1548363   1548452   1548487   1548440  
  7580.000000   1548340   1548259   1548284   1548485   1548888  
  7570.000000   1549462   1550135   1550806   1551391   1551830  
  7560.000000   1552116   1552277   1552374   1552465   1552608  
  7550.000000   1552834   1553157   1553564   1554038   1554555  
  7540.000000   1555104   1555676   1556280   1556932   1557658  
  7530.000000   1558479   1559408   1560441   1561556   1562712  
  7520.000000   1563867   1564981   1566030   1567005   1567916  
  7510.000000   1568775   1569600   1570395   1571171   1571928  
  7500.000000   1572680   1573435   1574210   1575012   1575842  
  7490.000000   1576696   1577575   1578494   1579491   1580613  
  7480.000000   1581910   1583402   1585076   1586867   1588693  
  7470.000000   1590463   1592124   1593668   1595145   1596623  
  7460.000000   1598181   1599856   1601651   1603523   1605420  
  7450.000000   1607291   1609117   1610897   1612651   1614395  
  7440.000000   1616132   1617853   1619550   1621221   1622883  
  7430.000000   1624563   1626292   1628079   1629908   1631742  
  7420.000000   1633536   1635260   1636913   1638523   1640140  
  7410.000000   1641812   1643573   1645427   1647354   1649317  
  7400.000000   1651274   1653185   1655015   1656737   1658336  
  7390.000000   1659814   1661204   1662568   1663988   1665549  
  7380.000000   1667310   1669280   1671404   1673588   1675727  
  7370.000000   1677748   1679630   1681408   1683154   1684938  
  7360.000000   1686793   1688697   1690583   1692363   1693968  
  7350.000000   1695372   1696607   1697753   1698910   1700171  
  7340.000000   1701594   1703199   1704968   1706856   1708803  
  7330.000000   1710741   1712598   1714317   1715862   1717239  
  7320.000000   1718493   1719707   1720976   1722381   1723955  
  7310.000000   1725674   1727461   1729212   1730825   1732244  
  7300.000000   1733460   1734516   1735478   1736413   1737359  
  7290.000000   1738327   1739291   1740211   1741045   1741765  
  7280.000000   1742357   1742835   1743224   1743575   1743941  
  7270.000000   1744393   1744990   1745777   1746770   1747946  
  7260.000000   1749249   1750588   1751873   1753010   1753948  
  7250.000000   1754662   1755188   1755587   1755968   1756443  
  7240.000000   1757138   1758141   1759518   1761270   1763362  
  7230.000000   1765700   1768178   1770668   1773079   1775342  
  7220.000000   1777453   1779438   1781376   1783351   1785466  
  7210.000000   1787784   1790354   1793161   1796165   1799279  
  7200.000000   1802425   1805521   1808531   1811443   1814290  
  7190.000000   1817112   1819966   1822881   1825884   1828971  
  7180.000000   1832149   1835411   1838771   1842231   1845800  
  7170.000000   1849450   1853150   1856829   1860438   1863925  
  7160.000000   1867300   1870592   1873888   1877274   1880857  
  7150.000000   1884711   1888902   1893441   1898319   1903469  
  7140.000000   1908811   1914230   1919642   1924971   1930211  
  7130.000000   1935376   1940538   1945753   1951084   1956534  
  7120.000000   1962096   1967716   1973370   1979041   1984767  
  7110.000000   1990593   1996579   2002742   2009071   2015506  
  7100.000000   2021983   2028440   2034865   2041265   2047684  
  7090.000000   2054143   2060651   2067172   2073667   2080099  
  7080.000000   2086474   2092830   2099239   2105763   2112440  
  7070.000000   2119259   2126175   2133124   2140058   2146950  
  7060.000000   2153801   2160613   2167374   2174050   2180599  
  7050.000000   2186990   2193237   2199406   2205598   2211926  
  7040.000000   2218458   2225202   2232090   2239013   2245846  
  7030.000000   2252503   2258946   2265195   2271294   2277296  
  7020.000000   2283222   2289078   2294833   2300469   2305964  
  7010.000000   2311335   2316594   2321783   2326921   2332041  
  7000.000000   2337137   2342210   2347222   2352142   2356907  
  6990.000000   2361473   2365792   2369864   2373708   2377390  
  6980.000000   2380975   2384530   2388072   2391598   2395056  
  6970.000000   2398414   2401640   2404761   2407819   2410891  
  6960.000000   2414017   2417224   2420470   2423703   2426840  
  6950.000000   2429826   2432625   2435240   2437685   2439991  
  6940.000000   2442170   2444235   2446181   2448014   2449736  
  6930.000000   2451369   2452929   2454450   2455956   2457484  
  6920.000000   2459054   2460696   2462408   2464186   2465987  
  6910.000000   2467763   2469451   2471000   2472370   2473547  
  6900.000000   2474528   2475323   2475943   2476402   2476720  
  6890.000000   2476933   2477088   2477246   2477464   2477791  
  6880.000000   2478248   2478844   2479571   2480429   2481415  
  6870.000000   2482539   2483792   2485145   2486537   2487885  
  6860.000000   2489108   2490143   2490977   2491637   2492188  
  6850.000000   2492697   2493212   2493749   2494288   2494796  
  6840.000000   2495236   2495602   2495901   2496171   2496450  
  6830.000000   2496782   2497190   2497691   2498279   2498936  
  6820.000000   2499615   2500256   2500784   2501134   2501270  
  6810.000000   2501206   2500997   2500740   2500528   2500430  
  6800.000000   2500460   2500587   2500744   2500871   2500929  
  6790.000000   2500921   2500872   2500818   2500766   2500699  
  6780.000000   2500568   2500327   2499949   2499446   2498866  
  6770.000000   2498280   2497750   2497315   2496978   2496718  
  6760.000000   2496493   2496266   2496001   2495678   2495283  
  6750.000000   2494816   2494286   2493723   2493163   2492651  
  6740.000000   2492214   2491859   2491555   2491250   2490884  
  6730.000000   2490414   2489828   2489152   2488425   2487692  
  6720.000000   2486974   2486271   2485563   2484835   2484079  
  6710.000000   2483309   2482540   2481781   2481014   2480212  
  6700.000000   2479340   2478389   2477380   2476373   2475431  
  6690.000000   2474599   2473868   2473180   2472433   2471535  
  6680.000000   2470423   2469103   2467633   2466106   2464609  
  6670.000000   2463195   2461865   2460586   2459305   2457984  
  6660.000000   2456602   2455171   2453712   2452254   2450817  
  6650.000000   2449418   2448065   2446769   2445528   2444334  
  6640.000000   2443155   2441951   2440672   2439290   2437797  
  6630.000000   2436220   2434604   2432996   2431417   2429859  
  6620.000000   2428286   2426650   2424915   2423078   2421162  
  6610.000000   2419217   2417296   2415439   2413664   2411969  
  6600.000000   2410336   2408747   2407178   2405607   2404011  
  6590.000000   2402366   2400659   2398891   2397086   2395284  
  6580.000000   2393534   2391869   2390302   2388816   2387376  
  6570.000000   2385942   2384489   2383008   2381512   2380014  
  6560.000000   2378524   2377036   2375540   2374025   2372501  
  6550.000000   2370995   2369550   2368199   2366959   2365810  
  6540.000000   2364711   2363610   2362467   2361266   2360026  
  6530.000000   2358779   2357564   2356407   2355314   2354273  
  6520.000000   2353264   2352266   2351265   2350253   2349226  
  6510.000000   2348177   2347104   2346008   2344894   2343773  
  6500.000000   2342653   2341539   2340426   2339304   2338164  
  6490.000000   2337012   2335871   2334779   2333768   2332857  
  6480.000000   2332033   2331255   2330462   2329599   2328632  
  6470.000000   2327554   2326385   2325159   2323906   2322648  
  6460.000000   2321403   2320183   2319014   2317920   2316924  
  6450.000000   2316027   2315203   2314400   2313559   2312636  
  6440.000000   2311623   2310556   2309496   2308508   2307633  
  6430.000000   2306867   2306170   2305482   2304754   2303967  
  6420.000000   2303141   2302316   2301538   2300825   2300170  
  6410.000000   2299535   2298881   2298177   2297423   2296646  
  6400.000000   2295885   2295179   2294551   2294001   2293510  
  6390.000000   2293051   2292594   2292111   2291585   2291007  
  6380.000000   2290375   2289701   2289006   2288319   2287671  
  6370.000000   2287084   2286560   2286084   2285626   2285154  
  6360.000000   2284643   2284089   2283500   2282894   2282278  
  6350.000000   2281652   2280996   2280290   2279520   2278692  
  6340.000000   2277830   2276981   2276187   2275482   2274874  
  6330.000000   2274348   2273860   2273360   2272792   2272117  
  6320.000000   2271307   2270365   2269309   2268181   2267021  
  6310.000000   2265873   2264754   2263665   2262576   2261452  
  6300.000000   2260252   2258962   2257582   2256146   2254684  
  6290.000000   2253228   2251782   2250336   2248855   2247314  
  6280.000000   2245695   2244006   2242265   2240506   2238747  
  6270.000000   2237002   2235258   2233507   2231728   2229918  
  6260.000000   2228071   2226192   2224275   2222316   2220303  
  6250.000000   2218232   2216102   2213929   2211730   2209528  
  6240.000000   2207333   2205152   2202976   2200802   2198628  
  6230.000000   2196459   2194301   2192156   2190017   2187868  
  6220.000000   2185691   2183475   2181225   2178961   2176718  
  6210.000000   2174527   2172410   2170373   2168404   2166484  
  6200.000000   2164596   2162733   2160894   2159084   2157308  
  6190.000000   2155562   2153837   2152118   2150394   2148654  
  6180.000000   2146897   2145118   2143316   2141488   2139636  
  6170.000000   2137767   2135903   2134071   2132303   2130624  
  6160.000000   2129044   2127556   2126138   2124759   2123390  
  6150.000000   2122006   2120596   2119157   2117699   2116232  
  6140.000000   2114779   2113358   2111991   2110688   2109450  
  6130.000000   2108260   2107091   2105910   2104694   2103431  
  6120.000000   2102134   2100829   2099549   2098319   2097152  
  6110.000000   2096040   2094970   2093919   2092879   2091844  
  6100.000000   2090827   2089837   2088893   2088001   2087174  
  6090.000000   2086413   2085726   2085110   2084568   2084089  
  6080.000000   2083671   2083297   2082969   2082681   2082446  
  6070.000000   2082260   2082126   2082020   2081931   2081831  
  6060.000000   2081725   2081622   2081571   2081613   2081802  
  6050.000000   2082158   2082689   2083367   2084170   2085063  
  6040.000000   2086040   2087091   2088224   2089427   2090691  
  6030.000000   2091982   2093283   2094576   2095878   2097211  
  6020.000000   2098620   2100126   2101744   2103456   2105236  
  6010.000000   2107049   2108881   2110721   2112588   2114489  
  6000.000000   2116440   2118431   2120457   2122502   2124566  
  5990.000000   2126652   2128782   2130971   2133235   2135573  
  5980.000000   2137980   2140442   2142952   2145503   2148096  
  5970.000000   2150722   2153373   2156027   2158669   2161283  
  5960.000000   2163878   2166468   2169080   2171730   2174425  
  5950.000000   2177151   2179886   2182608   2185313   2188013  
  5940.000000   2190743   2193544   2196450   2199479   2202626  
  5930.000000   2205868   2209173   2212502   2215823   2219104  
  5920.000000   2222321   2225451   2228483   2231416   2234267  
  5910.000000   2237057   2239816   2242561   2245294   2248006  
  5900.000000   2250676   2253296   2255870   2258428   2261010  
  5890.000000   2263663   2266409   2269248   2272150   2275067  
  5880.000000   2277945   2280740   2283421   2285974   2288398  
  5870.000000   2290694   2292871   2294935   2296908   2298813  
  5860.000000   2300684   2302555   2304454   2306404   2308422  
  5850.000000   2310524   2312723   2315037   2317475   2320032  
  5840.000000   2322686   2325400   2328126   2330824   2333473  
  5830.000000   2336070   2338635   2341188   2343742   2346293  
  5820.000000   2348818   2351287   2353671   2355957   2358142  
  5810.000000   2360239   2362250   2364189   2366042   2367821  
  5800.000000   2369517   2371161   2372763   2374364   2375956  
  5790.000000   2377546   2379075   2380499   2381722   2382673  
  5780.000000   2383250   2383389   2383015   2382101   2380642  
  5770.000000   2378697   2376358   2373771   2371081   2368436  
  5760.000000   2365934   2363642   2361571   2359720   2358067  
  5750.000000   2356608   2355333   2354239   2353305   2352495  
  5740.000000   2351764   2351063   2350369   2349669   2348988  
  5730.000000   2348340   2347753   2347222   2346740   2346277  
  5720.000000   2345822   2345371   2344946   2344571   2344280  
  5710.000000   2344083   2343982   2343961   2344003   2344091  
  5700.000000   2344217   2344375   2344558   2344756   2344953  
  5690.000000   2345142   2345320   2345507   2345719   2345980  
  5680.000000   2346284   2346611   2346903   2347102   2347138  
  5670.000000   2346965   2346549   2345886   2344977   2343841  
  5660.000000   2342493   2340968   2339304   2337565   2335808  
  5650.000000   2334099   2332475   2330956   2329531   2328182  
  5640.000000   2326881   2325615   2324379   2323178   2322018  
  5630.000000   2320897   2319815   2318761   2317739   2316754  
  5620.000000   2315823   2314953   2314149   2313391   2312656  
  5610.000000   2311913   2311145   2310356   2309565   2308806  
  5600.000000   2308106   2307477   2306908   2306370   2305823  
  5590.000000   2305234   2304577   2303845   2303040   2302173  
  5580.000000   2301255   2300304   2299333   2298360   2297393  
  5570.000000   2296436   2295478   2294502   2293483   2292404  
  5560.000000   2291259   2290064   2288843   2287629   2286444  
  5550.000000   2285304   2284205   2283139   2282094   2281063  
  5540.000000   2280042   2279026   2278008   2276978   2275925  
  5530.000000   2274849   2273759   2272679   2271636   2270651  
  5520.000000   2269727   2268848   2267982   2267098   2266172  
  5510.000000   2265199   2264189   2263157   2262116   2261067  
  5500.000000   2259998   2258899   2257759   2256585   2255384  
  5490.000000   2254175   2252959   2251736   2250486   2249200  
  5480.000000   2247869   2246503   2245116   2243725   2242328  
  5470.000000   2240910   2239437   2237878   2236207   2234427  
  5460.000000   2232552   2230614   2228640   2226649   2224649  
  5450.000000   2222644   2220641   2218654   2216703   2214803  
  5440.000000   2212961   2211166   2209405   2207659   2205927  
  5430.000000   2204215   2202543   2200917   2199341   2197791  
  5420.000000   2196255   2194718   2193204   2191750   2190425  
  5410.000000   2189272   2188324   2187561   2186949   2186429  
  5400.000000   2185976   2185568   2185232   2184982   2184851  
  5390.000000   2184832   2184925   2185101   2185368   2185730  
  5380.000000   2186242   2186938   2187872   2189040   2190438  
  5370.000000   2192006   2193717   2195508   2197386   2199325  
  5360.000000   2201372   2203522   2205841   2208337   2211097  
  5350.000000   2214142   2217567   2221382   2225655   2230351  
  5340.000000   2235500   2241041   2247014   2253374   2260182  
  5330.000000   2267395   2275067   2283130   2291627   2300496  
  5320.000000   2309820   2319589   2329944   2340898   2352591  
  5310.000000   2364996   2378199   2392115   2406797   2422161  
  5300.000000   2438282   2455119   2472793   2491294   2510748  
  5290.000000   2531123   2552476   2574689   2597715   2621369  
  5280.000000   2645582   2670226   2695340   2720929   2747122  
  5270.000000   2773954   2801462   2829530   2857995   2886626  
  5260.000000   2915225   2943674   2971939   3000075   3028113  
  5250.000000   3056075   3083841   3111274   3138119   3164242  
  5240.000000   3189479   3213881   3237451   3260365   3282648  
  5230.000000   3304425   3325607   3346193   3365998   3384995  
  5220.000000   3403032   3420176   3436384   3451821   3466501  
  5210.000000   3480586   3494034   3506910   3519069   3530511  
  5200.000000   3541082   3550835   3559707   3567826   3575173  
  5190.000000   3581866   3587847   3593186   3597802   3601776  
  5180.000000   3605070   3607806   3609970   3611661   3612822  
  5170.000000   3613495   3613596   3613175   3612197   3610762  
  5160.000000   3608879   3606644   3604034   3601091   3597752  
  5150.000000   3594043   3589933   3585485   3580710   3575684  
  5140.000000   3570411   3564944   3559268   3553427   3547420  
  5130.000000   3541300   3535078   3528792   3522426   3515988  
  5120.000000   3509449   3502822   3496109   3489352   3482577  
  5110.000000   3475820   3469084   3462367   3455649   3448923  
  5100.000000   3442187   3435458   3428756   3422099   3415487  
  5090.000000   3408912   3402356   3395811   3389277   3382773  
  5080.000000   3376320   3369932   3363603   3357310   3351010  
  5070.000000   3344670   3338265   3331800   3325291   3318772  
  5060.000000   3312262   3305773   3299289   3292790   3286242  
  5050.000000   3279629   3272937   3266174   3259347   3252474  
  5040.000000   3245564   3238633   3231690   3224748   3217819  
  5030.000000   3210913   3204039   3197196   3190389   3183617  
  5020.000000   3176893   3170226   3163644   3157161   3150805  
  5010.000000   3144580   3138505   3132572   3126800   3121182  
  5000.000000   3115742   3110469   3105386   3100473   3095747  
  4990.000000   3091191   3086839   3082685   3078781   3075126  
  4980.000000   3071760   3068657   3065838   3063260   3060948  
  4970.000000   3058878   3057102   3055617   3054484   3053688  
  4960.000000   3053265   3053172   3053431   3053997   3054906  
  4950.000000   3056134   3057733   3059680   3062017   3064705  
  4940.000000   3067773   3071176   3074945   3079040   3083495  
  4930.000000   3088267   3093373   3098760   3104437   3110359  
  4920.000000   3116551   3122989   3129712   3136699   3143976  
  4910.000000   3151509   3159302   3167316   3175548   3183967  
  4900.000000   3192572   3201335   3210249   3219284   3228424  
  4890.000000   3237643   3246914   3256212   3265491   3274710  
  4880.000000   3283804   3292722   3301399   3309811   3317919  
  4870.000000   3325734   3333238   3340456   3347367   3353985  
  4860.000000   3360283   3366277   3371942   3377309   3382362  
  4850.000000   3387136   3391618   3395845   3399813   3403572  
  4840.000000   3407134   3410558   3413861   3417092   3420248  
  4830.000000   3423347   3426365   3429301   3432127   3434846  
  4820.000000   3437443   3439930   3442307   3444593   3446798  
  4810.000000   3448949   3451058   3453152   3455238   3457328  
  4800.000000   3459414   3461492   3463545   3465569   3467555  
  4790.000000   3469509   3471432   3473340   3475234   3477126  
  4780.000000   3479011   3480891   3482750   3484579   3486348  
  4770.000000   3488039   3489614   3491060   3492353   3493500  
  4760.000000   3494503   3495392   3496177   3496888   3497519  
  4750.000000   3498077   3498535   3498885   3499096   3499167  
  4740.000000   3499080   3498851   3498477   3497982   3497369  
  4730.000000   3496657   3495847   3494949   3493960   3492887  
  4720.000000   3491727   3490488   3489175   3487806   3486394  
  4710.000000   3484966   3483543   3482152   3480815   3479555  
  4700.000000   3478387   3477327   3476382   3475557   3474852  
  4690.000000   3474256   3473761   3473347   3472998   3472688  
  4680.000000   3472401   3472105   3471787   3471419   3470997  
  4670.000000   3470507   3469966   3469383   3468794   3468225  
  4660.000000   3467719   3467299   3467003   3466848   3466866  
  4650.000000   3467070   3467486   3468116   3468968   3470024  
  4640.000000   3471263   3472651   3474154   3475738   3477378  
  4630.000000   3479048   3480730   3482397   3484028   3485592  
  4620.000000   3487062   3488414   3489632   3490708   3491637  
  4610.000000   3492426   3493076   3493602   3494015   3494348  
  4600.000000   3494626   3494892   3495165   3495473   3495803  
  4590.000000   3496146   3496460   3496719   3496880   3496929  
  4580.000000   3496841   3496620   3496257   3495763   3495138  
  4570.000000   3494402   3493570   3492671   3491725   3490755  
  4560.000000   3489760   3488741   3487676   3486550   3485346  
  4550.000000   3484065   3482714   3481310   3479872   3478414  
  4540.000000   3476949   3475481   3474026   3472592   3471211  
  4530.000000   3469899   3468695   3467604   3466656   3465838  
  4520.000000   3465172   3464641   3464279   3464078   3464095  
  4510.000000   3464331   3464865   3465703   3466938   3468580  
  4500.000000   3470724   3473367   3476587   3480355   3484732  
  4490.000000   3489676   3495253   3501435   3508304   3515839  
  4480.000000   3524115   3533085   3542785   3553128   3564112  
  4470.000000   3575632   3587673   3600140   3613021   3626235  
  4460.000000   3639772   3653557   3667573   3681747   3696054  
  4450.000000   3710427   3724839   3739244   3753626   3767971  
  4440.000000   3782277   3796555   3810796   3825012   3839162  
  4430.000000   3853243   3867184   3880972   3894520   3907820  
  4420.000000   3920775   3933374   3945506   3957151   3968188  
  4410.000000   3978594   3988255   3997162   4005227   4012471  
  4400.000000   4018841   4024397   4029130   4033135   4036450  
  4390.000000   4039202   4041465   4043383   4045043   4046575  
  4380.000000   4048053   4049577   4051201   4053001   4055027  
  4370.000000   4057344   4060004   4063050   4066513   4070397  
  4360.000000   4074695   4079373   4084389   4089694   4095217  
  4350.000000   4100909   4106687   4112517   4118339   4124167  
  4340.000000   4129980   4135814   4141612   4147288   4152601  
  4330.000000   4157237   4160765   4162787   4162969   4161200  
  4320.000000   4157593   4152540   4146586   4140384   4134498  
  4310.000000   4129384   4125248   4122147   4119945   4118469  
  4300.000000   4117503   4116896   4116531   4116348   4116318  
  4290.000000   4116413   4116633   4116954   4117391   4117934  
  4280.000000   4118603   4119394   4120302   4121315   4122405  
  4270.000000   4123571   4124785   4126036   4127256   4128350  
  4260.000000   4129139   4129416   4128939   4127525   4125061  
  4250.000000   4121579   4117225   4112274   4107035   4101842  
  4240.000000   4096946   4092533   4088655   4085298   4082354  
  4230.000000   4079701   4077199   4074736   4072228   4069630  
  4220.000000   4066943   4064186   4061427   4058721   4056161  
  4210.000000   4053795   4051692   4049863   4048326   4047046  
  4200.000000   4046002   4045136   4044420   4043799   4043258  
  4190.000000   4042759   4042315   4041902   4041557   4041267  
  4180.000000   4041085   4041003   4041081   4041320   4041792  
  4170.000000   4042517   4043586   4045031   4046947   4049351  
  4160.000000   4052315   4055816   4059890   4064480   4069606  
  4150.000000   4075203   4081297   4087825   4094816   4102208  
  4140.000000   4110039   4118253   4126906   4135959   4145479  
  4130.000000   4155432   4165872   4176752   4188106   4199881  
  4120.000000   4212112   4224768   4237902   4251506   4265631  
  4110.000000   4280256   4295392   4310971   4326953   4343229  
  4100.000000   4359736   4376375   4393105   4409876   4426693  
  4090.000000   4443559   4460499   4477531   4494667   4511917  
  4080.000000   4529265   4546715   4564231   4581805   4599374  
  4070.000000   4616904   4634295   4651504   4668429   4685057  
  4060.000000   4701317   4717235   4732743   4747863   4762497  
  4050.000000   4776660   4790255   4803335   4815835   4827838  
  4040.000000   4839267   4850164   4860391   4869943   4878662  
  4030.000000   4886570   4893555   4899686   4904891   4909238  
  4020.000000   4912629   4915142   4916759   4917588   4917598  
  4010.000000   4916955   4915742   4913989   4911465   4908243  
  4000.000000   4904665  
##END= 
