##TITLE= Sample 004 By ssteindl date Montag, November 26 2018
##JCAMP-DX= 4.24
##DATA TYPE= INFRARED SPECTRUM
##ORIGIN= Exported PE Spectrum Data File
##OWNER= Sandra Steindl
##DATE= 18/11/26
##TIME= 13:31:55.00
##SPECTROMETER/DATA SYSTEM= PERKIN-ELMER Frontier FT-IR/NIR IR
##INSTRUMENT PARAMETERS=
  APODIZATION=stark
  DETECTOR=INGAAS
##RESOLUTION= 16.000000
##DELTAX= -2.000000
##XUNITS= 1/CM
##YUNITS= A
##XFACTOR= 1.00
##YFACTOR= 0.00000011920928955078
##FIRSTX= 10000.00
##LASTX= 4000.00
##NPOINTS= 3001
##FIRSTY= 0.215397
##MAXY= 0.610901
##MINY= 0.197091
##XYDATA= (X++(Y..Y))
 10000.000000   1806877   1814345   1821937   1829379   1835575  
  9990.000000   1839578   1841385   1842020   1842692   1844375  
  9980.000000   1847401   1851392   1855103   1857085   1856214  
  9970.000000   1852347   1846265   1839526   1833766   1830155  
  9960.000000   1828947   1829518   1830693   1831222   1830239  
  9950.000000   1827431   1823042   1817670   1812041   1806910  
  9940.000000   1802949   1800782   1800879   1803453   1808330  
  9930.000000   1814877   1822107   1828863   1834094   1837084  
  9920.000000   1837627   1835965   1832743   1828697   1824574  
  9910.000000   1820898   1818021   1816071   1815000   1814619  
  9900.000000   1814615   1814692   1814656   1814576   1814732  
  9890.000000   1815557   1817317   1819980   1823067   1825859  
  9880.000000   1827660   1828173   1827644   1826821   1826599  
  9870.000000   1827597   1829799   1832446   1834337   1834242  
  9860.000000   1831476   1826093   1818881   1810991   1803494  
  9850.000000   1797106   1792080   1788453   1786229   1785596  
  9840.000000   1786784   1789900   1794624   1800163   1805377  
  9830.000000   1809124   1810677   1809924   1807459   1804186  
  9820.000000   1801055   1798553   1796741   1795290   1793883  
  9810.000000   1792443   1791182   1790507   1790673   1791717  
  9800.000000   1793339   1795188   1797008   1798844   1800951  
  9790.000000   1803556   1806614   1809603   1811686   1811982  
  9780.000000   1810010   1805942   1800598   1795185   1790806  
  9770.000000   1788124   1787151   1787423   1788262   1789133  
  9760.000000   1789770   1790133   1790199   1789784   1788529  
  9750.000000   1786065   1782287   1777556   1772705   1768771  
  9740.000000   1766639   1766655   1768541   1771491   1774560  
  9730.000000   1776984   1778407   1778867   1778591   1777797  
  9720.000000   1776559   1774884   1772900   1770986   1769815  
  9710.000000   1770085   1772220   1776033   1780667   1784816  
  9700.000000   1787174   1786953   1784175   1779683   1774826  
  9690.000000   1770947   1768975   1769150   1771105   1774054  
  9680.000000   1777130   1779614   1781055   1781325   1780488  
  9670.000000   1778864   1776886   1775198   1774476   1775311  
  9660.000000   1777993   1782299   1787514   1792518   1796092  
  9650.000000   1797234   1795407   1790700   1783781   1775764  
  9640.000000   1767939   1761537   1757446   1756091   1757289  
  9630.000000   1760315   1764025   1767139   1768611   1767884  
  9620.000000   1765087   1760893   1756277   1752109   1748891  
  9610.000000   1746645   1745106   1743993   1743325   1743510  
  9600.000000   1745160   1748775   1754273   1760880   1767200  
  9590.000000   1771688   1773255   1771641   1767618   1762559  
  9580.000000   1757958   1754766   1753131   1752471   1751875  
  9570.000000   1750664   1748690   1746452   1744749   1744354  
  9560.000000   1745547   1748067   1751149   1753901   1755630  
  9550.000000   1756038   1755260   1753638   1751557   1749254  
  9540.000000   1746847   1744403   1742066   1740040   1738570  
  9530.000000   1737744   1737469   1737419   1737179   1736414  
  9520.000000   1734986   1733071   1731054   1729463   1728773  
  9510.000000   1729323   1731248   1734483   1738781   1743711  
  9500.000000   1748662   1752861   1755526   1756029   1754165  
  9490.000000   1750250   1745100   1739790   1735307   1732273  
  9480.000000   1730767   1730421   1730607   1730755   1730550  
  9470.000000   1730018   1729405   1728938   1728622   1728160  
  9460.000000   1727116   1725143   1722257   1718883   1715772  
  9450.000000   1713739   1713375   1714902   1718057   1722293  
  9440.000000   1726862   1731105   1734512   1736791   1737829  
  9430.000000   1737594   1736156   1733596   1730118   1725928  
  9420.000000   1721303   1716435   1711479   1706529   1701702  
  9410.000000   1697247   1693511   1690996   1690113   1691162  
  9400.000000   1694106   1698624   1704116   1709850   1715138  
  9390.000000   1719396   1722291   1723628   1723445   1721836  
  9380.000000   1719066   1715436   1711374   1707322   1703735  
  9370.000000   1700993   1699329   1698856   1699498   1701144  
  9360.000000   1703555   1706514   1709730   1712927   1715842  
  9350.000000   1718257   1720068   1721233   1721810   1721841  
  9340.000000   1721353   1720291   1718586   1716244   1713447  
  9330.000000   1710623   1708329   1707112   1707241   1708628  
  9320.000000   1710764   1712909   1714283   1714369   1713070  
  9310.000000   1710728   1707954   1705387   1703482   1702394  
  9300.000000   1702034   1702142   1702450   1702739   1702879  
  9290.000000   1702783   1702352   1701476   1700075   1698200  
  9280.000000   1696112   1694237   1693064   1692914   1693817  
  9270.000000   1695461   1697278   1698642   1699059   1698403  
  9260.000000   1696943   1695249   1693957   1693531   1694142  
  9250.000000   1695598   1697440   1699045   1699842   1699445  
  9240.000000   1697762   1694982   1691526   1687966   1684929  
  9230.000000   1682967   1682418   1683318   1685386   1688102  
  9220.000000   1690827   1692976   1694154   1694305   1693694  
  9210.000000   1692810   1692151   1692067   1692662   1693770  
  9200.000000   1695039   1696043   1696465   1696164   1695225  
  9190.000000   1693851   1692271   1690632   1688971   1687251  
  9180.000000   1685436   1683579   1681865   1680616   1680187  
  9170.000000   1680859   1682662   1685389   1688585   1691718  
  9160.000000   1694295   1696003   1696784   1696772   1696229  
  9150.000000   1695375   1694334   1693066   1691436   1689311  
  9140.000000   1686675   1683692   1680677   1678044   1676156  
  9130.000000   1675243   1675295   1676111   1677343   1678596  
  9120.000000   1679512   1679849   1679541   1678676   1677479  
  9110.000000   1676233   1675236   1674727   1674820   1675468  
  9100.000000   1676468   1677541   1678419   1678918   1678992  
  9090.000000   1678703   1678204   1677596   1676912   1676036  
  9080.000000   1674828   1673168   1671088   1668809   1666706  
  9070.000000   1665283   1664971   1666074   1668598   1672354  
  9060.000000   1676943   1681871   1686577   1690526   1693291  
  9050.000000   1694532   1694073   1691897   1688260   1683591  
  9040.000000   1678471   1673476   1669112   1665705   1663351  
  9030.000000   1661987   1661434   1661549   1662189   1663299  
  9020.000000   1664774   1666520   1668358   1670097   1671578  
  9010.000000   1672721   1673612   1674369   1675145   1675919  
  9000.000000   1676517   1676573   1675678   1673533   1670106  
  8990.000000   1665749   1661130   1657110   1654464   1653697  
  8980.000000   1654860   1657555   1661020   1664342   1666701  
  8970.000000   1667559   1666790   1664639   1661655   1658494  
  8960.000000   1655799   1654007   1653318   1653662   1654780  
  8950.000000   1656313   1657890   1659249   1660267   1660980  
  8940.000000   1661506   1661982   1662505   1663048   1663490  
  8930.000000   1663614   1663246   1662291   1660822   1659083  
  8920.000000   1657440   1656297   1655944   1656515   1657923  
  8910.000000   1659913   1662111   1664156   1665784   1666879  
  8900.000000   1667461   1667636   1667562   1667355   1667110  
  8890.000000   1666848   1666600   1666351   1666099   1665827  
  8880.000000   1665529   1665218   1664939   1664819   1665033  
  8870.000000   1665818   1667345   1669706   1672793   1676350  
  8860.000000   1679976   1683251   1685841   1687563   1688423  
  8850.000000   1688525   1688026   1687016   1685520   1683505  
  8840.000000   1680970   1678025   1674930   1672073   1669857  
  8830.000000   1668615   1668472   1669341   1670898   1672734  
  8820.000000   1674443   1675764   1676611   1677072   1677364  
  8810.000000   1677726   1678355   1679319   1680573   1681935  
  8800.000000   1683178   1684045   1684359   1684033   1683117  
  8790.000000   1681774   1680252   1678822   1677725   1677122  
  8780.000000   1677081   1677577   1678527   1679810   1681294  
  8770.000000   1682846   1684362   1685761   1687024   1688174  
  8760.000000   1689308   1690552   1692026   1693788   1695784  
  8750.000000   1697874   1699864   1701618   1703112   1704472  
  8740.000000   1705913   1707630   1709669   1711840   1713724  
  8730.000000   1714786   1714575   1712914   1710035   1706540  
  8720.000000   1703247   1700948   1700161   1701008   1703175  
  8710.000000   1706069   1709007   1711454   1713153   1714155  
  8700.000000   1714736   1715239   1715953   1716990   1718314  
  8690.000000   1719728   1721022   1721994   1722574   1722788  
  8680.000000   1722774   1722721   1722818   1723232   1724056  
  8670.000000   1725335   1727033   1729085   1731369   1733766  
  8660.000000   1736144   1738394   1740419   1742137   1743498  
  8650.000000   1744460   1745018   1745165   1744919   1744301  
  8640.000000   1743371   1742220   1741002   1739933   1739273  
  8630.000000   1739278   1740106   1741778   1744128   1746846  
  8620.000000   1749532   1751832   1753544   1754676   1755443  
  8610.000000   1756157   1757121   1758485   1760208   1762056  
  8600.000000   1763738   1764995   1765735   1766045   1766172  
  8590.000000   1766402   1766950   1767884   1769106   1770427  
  8580.000000   1771638   1772638   1773464   1774300   1775387  
  8570.000000   1776941   1779046   1781616   1784385   1786980  
  8560.000000   1789021   1790210   1790439   1789803   1788612  
  8550.000000   1787285   1786244   1785797   1786064   1786968  
  8540.000000   1788262   1789657   1790915   1791961   1792875  
  8530.000000   1793862   1795131   1796793   1798792   1800905  
  8520.000000   1802840   1804322   1805225   1805592   1805645  
  8510.000000   1805675   1805946   1806604   1807645   1808952  
  8500.000000   1810344   1811672   1812851   1813886   1814829  
  8490.000000   1815747   1816675   1817611   1818520   1819345  
  8480.000000   1820048   1820588   1820963   1821157   1821169  
  8470.000000   1821010   1820729   1820432   1820271   1820437  
  8460.000000   1821107   1822406   1824338   1826794   1829538  
  8450.000000   1832288   1834757   1836738   1838139   1838990  
  8440.000000   1839435   1839641   1839763   1839856   1839896  
  8430.000000   1839768   1839363   1838615   1837569   1836394  
  8420.000000   1835340   1834695   1834667   1835372   1836768  
  8410.000000   1838729   1841039   1843490   1845892   1848113  
  8400.000000   1850067   1851683   1852918   1853713   1854048  
  8390.000000   1853902   1853295   1852247   1850796   1849009  
  8380.000000   1846991   1844933   1843087   1841789   1841349  
  8370.000000   1841986   1843679   1846169   1848960   1851466  
  8360.000000   1853145   1853680   1853081   1851661   1849937  
  8350.000000   1848417   1847466   1847176   1847394   1847776  
  8340.000000   1847947   1847630   1846737   1845379   1843778  
  8330.000000   1842223   1840954   1840165   1839945   1840309  
  8320.000000   1841199   1842505   1844062   1845659   1847055  
  8310.000000   1848023   1848405   1848138   1847275   1845935  
  8300.000000   1844302   1842538   1840779   1839108   1837577  
  8290.000000   1836233   1835124   1834313   1833844   1833741  
  8280.000000   1833974   1834477   1835137   1835839   1836473  
  8270.000000   1836959   1837251   1837341   1837258   1837061  
  8260.000000   1836830   1836639   1836542   1836536   1836559  
  8250.000000   1836482   1836137   1835373   1834097   1832344  
  8240.000000   1830254   1828079   1826092   1824552   1823624  
  8230.000000   1823352   1823640   1824276   1824964   1825397  
  8220.000000   1825312   1824546   1823065   1820989   1818567  
  8210.000000   1816138   1814034   1812508   1811645   1811365  
  8200.000000   1811428   1811531   1811378   1810780   1809692  
  8190.000000   1808199   1806467   1804642   1802809   1800945  
  8180.000000   1798980   1796834   1794497   1792066   1789731  
  8170.000000   1787748   1786341   1785662   1785705   1786340  
  8160.000000   1787320   1788354   1789175   1789567   1789414  
  8150.000000   1788668   1787365   1785579   1783434   1781076  
  8140.000000   1778677   1776413   1774442   1772875   1771740  
  8130.000000   1770990   1770488   1770072   1769569   1768868  
  8120.000000   1767923   1766768   1765486   1764175   1762916  
  8110.000000   1761741   1760650   1759608   1758589   1757571  
  8100.000000   1756560   1755564   1754585   1753606   1752588  
  8090.000000   1751489   1750288   1749013   1747745   1746599  
  8080.000000   1745695   1745104   1744830   1744785   1744821  
  8070.000000   1744756   1744437   1743766   1742732   1741408  
  8060.000000   1739933   1738485   1737247   1736379   1735986  
  8050.000000   1736097   1736651   1737502   1738436   1739211  
  8040.000000   1739609   1739487   1738815   1737683   1736279  
  8030.000000   1734841   1733596   1732705   1732237   1732162  
  8020.000000   1732370   1732714   1733030   1733189   1733090  
  8010.000000   1732696   1732018   1731124   1730116   1729108  
  8000.000000   1728202   1727450   1726848   1726330   1725797  
  7990.000000   1725151   1724336   1723358   1722283   1721214  
  7980.000000   1720248   1719444   1718805   1718286   1717828  
  7970.000000   1717386   1716955   1716564   1716256   1716054  
  7960.000000   1715945   1715868   1715751   1715527   1715178  
  7950.000000   1714724   1714226   1713736   1713283   1712852  
  7940.000000   1712403   1711900   1711351   1710824   1710440  
  7930.000000   1710325   1710560   1711133   1711928   1712747  
  7920.000000   1713377   1713649   1713507   1713019   1712361  
  7910.000000   1711758   1711420   1711485   1711980   1712828  
  7900.000000   1713867   1714905   1715762   1716315   1716512  
  7890.000000   1716379   1715998   1715481   1714934   1714431  
  7880.000000   1713996   1713606   1713213   1712771   1712268  
  7870.000000   1711744   1711278   1710972   1710901   1711094  
  7860.000000   1711502   1712027   1712540   1712932   1713148  
  7850.000000   1713197   1713141   1713065   1713033   1713070  
  7840.000000   1713149   1713219   1713214   1713094   1712847  
  7830.000000   1712493   1712061   1711581   1711062   1710499  
  7820.000000   1709869   1709155   1708343   1707447   1706500  
  7810.000000   1705564   1704711   1704025   1703572   1703382  
  7800.000000   1703431   1703631   1703842   1703904   1703684  
  7790.000000   1703121   1702251   1701197   1700135   1699236  
  7780.000000   1698617   1698308   1698253   1698339   1698440  
  7770.000000   1698448   1698300   1697966   1697445   1696737  
  7760.000000   1695850   1694796   1693616   1692380   1691186  
  7750.000000   1690142   1689336   1688818   1688586   1688603  
  7740.000000   1688806   1689132   1689516   1689897   1690204  
  7730.000000   1690361   1690295   1689965   1689390   1688644  
  7720.000000   1687860   1687165   1686647   1686312   1686081  
  7710.000000   1685825   1685424   1684821   1684054   1683238  
  7700.000000   1682524   1682028   1681784   1681728   1681730  
  7690.000000   1681652   1681415   1681032   1680620   1680344  
  7680.000000   1680357   1680732   1681435   1682325   1683208  
  7670.000000   1683891   1684244   1684231   1683910   1683409  
  7660.000000   1682875   1682441   1682180   1682103   1682159  
  7650.000000   1682262   1682322   1682265   1682053   1681677  
  7640.000000   1681153   1680507   1679763   1678945   1678087  
  7630.000000   1677237   1676468   1675867   1675515   1675464  
  7620.000000   1675707   1676184   1676782   1677374   1677853  
  7610.000000   1678154   1678274   1678246   1678131   1677968  
  7600.000000   1677783   1677565   1677304   1676987   1676624  
  7590.000000   1676245   1675898   1675639   1675522   1675602  
  7580.000000   1675921   1676511   1677373   1678466   1679699  
  7570.000000   1680928   1681997   1682757   1683140   1683154  
  7560.000000   1682907   1682547   1682229   1682058   1682077  
  7550.000000   1682274   1682610   1683068   1683663   1684442  
  7540.000000   1685441   1686655   1688009   1689366   1690570  
  7530.000000   1691484   1692058   1692315   1692363   1692321  
  7520.000000   1692302   1692370   1692554   1692863   1693321  
  7510.000000   1693972   1694869   1696048   1697485   1699097  
  7500.000000   1700745   1702285   1703619   1704726   1705675  
  7490.000000   1706576   1707556   1708679   1709950   1711296  
  7480.000000   1712610   1713794   1714798   1715636   1716381  
  7470.000000   1717132   1717992   1719025   1720252   1721641  
  7460.000000   1723131   1724640   1726099   1727461   1728734  
  7450.000000   1729964   1731236   1732638   1734239   1736053  
  7440.000000   1738033   1740072   1742054   1743876   1745499  
  7430.000000   1746949   1748318   1749723   1751265   1752992  
  7420.000000   1754895   1756910   1758957   1760963   1762891  
  7410.000000   1764744   1766546   1768334   1770129   1771939  
  7400.000000   1773756   1775566   1777361   1779138   1780896  
  7390.000000   1782634   1784346   1786023   1787656   1789249  
  7380.000000   1790814   1792380   1793975   1795628   1797354  
  7370.000000   1799158   1801030   1802946   1804873   1806762  
  7360.000000   1808560   1810210   1811674   1812934   1814017  
  7350.000000   1814991   1815956   1817030   1818310   1819857  
  7340.000000   1821674   1823711   1825879   1828075   1830197  
  7330.000000   1832171   1833951   1835524   1836917   1838179  
  7320.000000   1839376   1840574   1841827   1843164   1844584  
  7310.000000   1846065   1847564   1849048   1850489   1851888  
  7300.000000   1853251   1854596   1855921   1857211   1858432  
  7290.000000   1859538   1860493   1861276   1861898   1862391  
  7280.000000   1862802   1863189   1863602   1864086   1864667  
  7270.000000   1865365   1866186   1867129   1868188   1869340  
  7260.000000   1870562   1871813   1873055   1874239   1875334  
  7250.000000   1876314   1877194   1878001   1878808   1879691  
  7240.000000   1880742   1882022   1883571   1885377   1887404  
  7230.000000   1889590   1891878   1894215   1896575   1898931  
  7220.000000   1901280   1903597   1905875   1908091   1910256  
  7210.000000   1912381   1914516   1916710   1919024   1921492  
  7200.000000   1924135   1926944   1929900   1932973   1936136  
  7190.000000   1939351   1942585   1945788   1948925   1951956  
  7180.000000   1954882   1957713   1960506   1963303   1966159  
  7170.000000   1969083   1972078   1975122   1978215   1981369  
  7160.000000   1984641   1988089   1991773   1995707   1999873  
  7150.000000   2004201   2008618   2013047   2017463   2021854  
  7140.000000   2026265   2030717   2035238   2039804   2044397  
  7130.000000   2048980   2053558   2058148   2062818   2067624  
  7120.000000   2072635   2077869   2083331   2088979   2094770  
  7110.000000   2100644   2106563   2112486   2118401   2124298  
  7100.000000   2130206   2136156   2142211   2148404   2154764  
  7090.000000   2161254   2167813   2174337   2180744   2186978  
  7080.000000   2193058   2199053   2205074   2211222   2217569  
  7070.000000   2224117   2230824   2237607   2244393   2251123  
  7060.000000   2257776   2264349   2270853   2277298   2283696  
  7050.000000   2290061   2296419   2302806   2309257   2315792  
  7040.000000   2322398   2329036   2335642   2342155   2348529  
  7030.000000   2354751   2360830   2366799   2372691   2378541  
  7020.000000   2384375   2390227   2396117   2402068   2408070  
  7010.000000   2414095   2420071   2425931   2431602   2437073  
  7000.000000   2442365   2447559   2452724   2457920   2463128  
  6990.000000   2468288   2473288   2478036   2482468   2486596  
  6980.000000   2490466   2494164   2497745   2501255   2504690  
  6970.000000   2508051   2511329   2514551   2517734   2520908  
  6960.000000   2524056   2527151   2530126   2532944   2535581  
  6950.000000   2538076   2540481   2542868   2545272   2547696  
  6940.000000   2550098   2552435   2554665   2556787   2558819  
  6930.000000   2560799   2562746   2564667   2566541   2568357  
  6920.000000   2570113   2571844   2573593   2575404   2577275  
  6910.000000   2579167   2580991   2582656   2584086   2585263  
  6900.000000   2586217   2587031   2587797   2588606   2589511  
  6890.000000   2590546   2591705   2592976   2594319   2595689  
  6880.000000   2597024   2598262   2599348   2600258   2601006  
  6870.000000   2601642   2602234   2602843   2603502   2604211  
  6860.000000   2604940   2605661   2606361   2607063   2607806  
  6850.000000   2608644   2609599   2610672   2611819   2612980  
  6840.000000   2614085   2615078   2615914   2616566   2617019  
  6830.000000   2617276   2617360   2617322   2617235   2617179  
  6820.000000   2617218   2617381   2617644   2617958   2618258  
  6810.000000   2618514   2618725   2618937   2619198   2619539  
  6800.000000   2619937   2620322   2620602   2620698   2620583  
  6790.000000   2620289   2619886   2619453   2619033   2618630  
  6780.000000   2618208   2617739   2617216   2616689   2616232  
  6770.000000   2615925   2615801   2615836   2615945   2616020  
  6760.000000   2615971   2615753   2615379   2614902   2614389  
  6750.000000   2613894   2613451   2613081   2612799   2612628  
  6740.000000   2612586   2612673   2612849   2613040   2613148  
  6730.000000   2613091   2612830   2612395   2611861   2611326  
  6720.000000   2610862   2610485   2610149   2609779   2609299  
  6710.000000   2608678   2607933   2607126   2606324   2605582  
  6700.000000   2604907   2604285   2603679   2603069   2602448  
  6690.000000   2601834   2601239   2600667   2600095   2599487  
  6680.000000   2598798   2598004   2597096   2596088   2595000  
  6670.000000   2593853   2592662   2591440   2590201   2588969  
  6660.000000   2587762   2586595   2585454   2584310   2583117  
  6650.000000   2581846   2580488   2579083   2577690   2576382  
  6640.000000   2575202   2574161   2573220   2572320   2571395  
  6630.000000   2570398   2569306   2568115   2566826   2565433  
  6620.000000   2563925   2562290   2560537   2558701   2556842  
  6610.000000   2555030   2553319   2551740   2550286   2548931  
  6600.000000   2547634   2546369   2545115   2543863   2542599  
  6590.000000   2541299   2539932   2538470   2536905   2535260  
  6580.000000   2533583   2531937   2530378   2528942   2527634  
  6570.000000   2526434   2525301   2524193   2523063   2521868  
  6560.000000   2520571   2519139   2517565   2515865   2514096  
  6550.000000   2512340   2510687   2509204   2507919   2506808  
  6540.000000   2505813   2504868   2503928   2502984   2502061  
  6530.000000   2501194   2500401   2499658   2498910   2498074  
  6520.000000   2497088   2495923   2494608   2493211   2491821  
  6510.000000   2490519   2489356   2488351   2487494   2486760  
  6500.000000   2486120   2485543   2484997   2484444   2483845  
  6490.000000   2483165   2482385   2481510   2480565   2479586  
  6480.000000   2478607   2477650   2476719   2475809   2474912  
  6470.000000   2474028   2473160   2472315   2471492   2470675  
  6460.000000   2469841   2468965   2468032   2467044   2466022  
  6450.000000   2464989   2463970   2462972   2462001   2461059  
  6440.000000   2460161   2459333   2458611   2458017   2457553  
  6430.000000   2457184   2456849   2456477   2456014   2455437  
  6420.000000   2454772   2454066   2453389   2452789   2452298  
  6410.000000   2451915   2451621   2451393   2451209   2451056  
  6400.000000   2450926   2450812   2450711   2450618   2450530  
  6390.000000   2450451   2450384   2450328   2450272   2450192  
  6380.000000   2450062   2449864   2449592   2449269   2448928  
  6370.000000   2448611   2448340   2448116   2447912   2447691  
  6360.000000   2447413   2447059   2446632   2446154   2445651  
  6350.000000   2445145   2444637   2444121   2443578   2442999  
  6340.000000   2442377   2441726   2441061   2440404   2439768  
  6330.000000   2439167   2438601   2438067   2437553   2437040  
  6320.000000   2436501   2435909   2435239   2434485   2433650  
  6310.000000   2432760   2431842   2430921   2430003   2429078  
  6300.000000   2428124   2427121   2426058   2424947   2423805  
  6290.000000   2422663   2421530   2420411   2419282   2418125  
  6280.000000   2416915   2415651   2414337   2412995   2411639  
  6270.000000   2410280   2408910   2407516   2406073   2404566  
  6260.000000   2402984   2401333   2399625   2397886   2396144  
  6250.000000   2394432   2392775   2391190   2389670   2388193  
  6240.000000   2386715   2385196   2383603   2381929   2380195  
  6230.000000   2378438   2376701   2375011   2373374   2371770  
  6220.000000   2370173   2368562   2366934   2365311   2363723  
  6210.000000   2362198   2360746   2359356   2357998   2356640  
  6200.000000   2355261   2353853   2352424   2350980   2349522  
  6190.000000   2348034   2346498   2344896   2343230   2341521  
  6180.000000   2339807   2338128   2336513   2334977   2333514  
  6170.000000   2332117   2330777   2329496   2328279   2327128  
  6160.000000   2326031   2324956   2323864   2322711   2321472  
  6150.000000   2320140   2318737   2317297   2315859   2314455  
  6140.000000   2313105   2311819   2310595   2309431   2308314  
  6130.000000   2307225   2306134   2305007   2303816   2302543  
  6120.000000   2301200   2299819   2298449   2297136   2295919  
  6110.000000   2294807   2293797   2292863   2291987   2291147  
  6100.000000   2290339   2289555   2288798   2288061   2287349  
  6090.000000   2286663   2286025   2285457   2284994   2284652  
  6080.000000   2284444   2284349   2284343   2284387   2284455  
  6070.000000   2284521   2284584   2284637   2284689   2284737  
  6060.000000   2284797   2284872   2284994   2285187   2285486  
  6050.000000   2285905   2286455   2287114   2287868   2288688  
  6040.000000   2289574   2290527   2291574   2292731   2294018  
  6030.000000   2295430   2296960   2298585   2300295   2302068  
  6020.000000   2303897   2305756   2307623   2309458   2311241  
  6010.000000   2312952   2314613   2316256   2317938   2319698  
  6000.000000   2321564   2323521   2325546   2327598   2329662  
  5990.000000   2331734   2333853   2336055   2338386   2340861  
  5980.000000   2343486   2346239   2349107   2352074   2355145  
  5970.000000   2358315   2361586   2364922   2368285   2371616  
  5960.000000   2374878   2378047   2381146   2384210   2387300  
  5950.000000   2390457   2393711   2397061   2400495   2403991  
  5940.000000   2407536   2411127   2414768   2418466   2422219  
  5930.000000   2426016   2429834   2433648   2437430   2441157  
  5920.000000   2444807   2448365   2451816   2455152   2458372  
  5910.000000   2461483   2464497   2467431   2470299   2473116  
  5900.000000   2475889   2478633   2481361   2484101   2486871  
  5890.000000   2489695   2492572   2495494   2498428   2501342  
  5880.000000   2504195   2506961   2509616   2512146   2514539  
  5870.000000   2516785   2518884   2520849   2522714   2524530  
  5860.000000   2526363   2528269   2530287   2532426   2534667  
  5850.000000   2536980   2539330   2541700   2544085   2546492  
  5840.000000   2548928   2551392   2553874   2556355   2558824  
  5830.000000   2561276   2563721   2566168   2568626   2571084  
  5820.000000   2573521   2575906   2578215   2580439   2582584  
  5810.000000   2584674   2586724   2588751   2590739   2592687  
  5800.000000   2594565   2596386   2598146   2599891   2601626  
  5790.000000   2603376   2605099   2606749   2608215   2609394  
  5780.000000   2610148   2610381   2610007   2609012   2607419  
  5770.000000   2605335   2602895   2600279   2597641   2595120  
  5760.000000   2592777   2590633   2588645   2586773   2584968  
  5750.000000   2583224   2581554   2579996   2578580   2577318  
  5740.000000   2576202   2575201   2574287   2573429   2572625  
  5730.000000   2571870   2571175   2570534   2569945   2569386  
  5720.000000   2568847   2568314   2567791   2567279   2566788  
  5710.000000   2566316   2565864   2565424   2564999   2564595  
  5700.000000   2564224   2563896   2563611   2563360   2563122  
  5690.000000   2562878   2562614   2562335   2562045   2561763  
  5680.000000   2561487   2561213   2560909   2560548   2560088  
  5670.000000   2559502   2558761   2557846   2556734   2555414  
  5660.000000   2553877   2552142   2550245   2548253   2546235  
  5650.000000   2544263   2542378   2540597   2538904   2537276  
  5640.000000   2535687   2534129   2532605   2531128   2529707  
  5630.000000   2528337   2527008   2525700   2524407   2523125  
  5620.000000   2521872   2520660   2519500   2518387   2517308  
  5610.000000   2516241   2515176   2514111   2513058   2512032  
  5600.000000   2511049   2510110   2509209   2508334   2507474  
  5590.000000   2506625   2505783   2504945   2504097   2503220  
  5580.000000   2502289   2501290   2500223   2499109   2497979  
  5570.000000   2496862   2495769   2494694   2493611   2492491  
  5560.000000   2491318   2490096   2488847   2487604   2486392  
  5550.000000   2485224   2484094   2482989   2481897   2480817  
  5540.000000   2479757   2478726   2477724   2476738   2475738  
  5530.000000   2474693   2473582   2472406   2471186   2469956  
  5520.000000   2468747   2467578   2466450   2465349   2464253  
  5510.000000   2463144   2462008   2460841   2459639   2458402  
  5500.000000   2457129   2455832   2454527   2453242   2451999  
  5490.000000   2450809   2449655   2448501   2447293   2445988  
  5480.000000   2444561   2443023   2441407   2439764   2438128  
  5470.000000   2436520   2434924   2433317   2431663   2429947  
  5460.000000   2428164   2426325   2424442   2422525   2420575  
  5450.000000   2418594   2416588   2414575   2412579   2410628  
  5440.000000   2408743   2406928   2405183   2403497   2401864  
  5430.000000   2400279   2398738   2397221   2395707   2394156  
  5420.000000   2392548   2390877   2389186   2387540   2386035  
  5410.000000   2384741   2383699   2382887   2382261   2381746  
  5400.000000   2381302   2380898   2380552   2380277   2380105  
  5390.000000   2380030   2380056   2380160   2380354   2380649  
  5380.000000   2381095   2381719   2382557   2383583   2384781  
  5370.000000   2386083   2387470   2388899   2390401   2391973  
  5360.000000   2393669   2395486   2397472   2399621   2402001  
  5350.000000   2404632   2407616   2410978   2414799   2419048  
  5340.000000   2423750   2428830   2434310   2440137   2446370  
  5330.000000   2452977   2460022   2467450   2475305   2483522  
  5320.000000   2492168   2501218   2510796   2520907   2531684  
  5310.000000   2543106   2555260   2568078   2581620   2595819  
  5300.000000   2610758   2626403   2642869   2660139   2678318  
  5290.000000   2697356   2717295   2738008   2759449   2781441  
  5280.000000   2803934   2826819   2850157   2873974   2898426  
  5270.000000   2923572   2949472   2976026   3003077   3030381  
  5260.000000   3057733   3084997   3112147   3139249   3166375  
  5250.000000   3193575   3220762   3247790   3274388   3300367  
  5240.000000   3325524   3349869   3373408   3396327   3418700  
  5230.000000   3440676   3462197   3483245   3503612   3523212  
  5220.000000   3541864   3559605   3576412   3592473   3607855  
  5210.000000   3622753   3637149   3651091   3664409   3677052  
  5200.000000   3688837   3699797   3709880   3719238   3727887  
  5190.000000   3735971   3743444   3750363   3756621   3762259  
  5180.000000   3767207   3771558   3775292   3778509   3781162  
  5170.000000   3783305   3784860   3785877   3786315   3786269  
  5160.000000   3785746   3784848   3783563   3781951   3779964  
  5150.000000   3777640   3774941   3771924   3768573   3764947  
  5140.000000   3761025   3756846   3752384   3747686   3742753  
  5130.000000   3737652   3732398   3727041   3721573   3716008  
  5120.000000   3710322   3704530   3698631   3692670   3686670  
  5110.000000   3680671   3674679   3668704   3662730   3656757  
  5100.000000   3650786   3644835   3638924   3633074   3627290  
  5090.000000   3621574   3615910   3610287   3604692   3599128  
  5080.000000   3593589   3588079   3582586   3577099   3571593  
  5070.000000   3566052   3560456   3554798   3549067   3543268  
  5060.000000   3537397   3531463   3525471   3519442   3513387  
  5050.000000   3507328   3501264   3495196   3489100   3482957  
  5040.000000   3476739   3470437   3464049   3457589   3451074  
  5030.000000   3444527   3437966   3431406   3424864   3418354  
  5020.000000   3411897   3405505   3399193   3392954   3386785  
  5010.000000   3380668   3374605   3368594   3362668   3356850  
  5000.000000   3351194   3345716   3340454   3335399   3330570  
  4990.000000   3325948   3321561   3317403   3313516   3309890  
  4980.000000   3306557   3303483   3300679   3298101   3295774  
  4970.000000   3293675   3291861   3290331   3289151   3288309  
  4960.000000   3287848   3287731   3287988   3288574   3289525  
  4950.000000   3290812   3292479   3294498   3296911   3299680  
  4940.000000   3302839   3306341   3310216   3314416   3318966  
  4930.000000   3323819   3328999   3334467   3340258   3346345  
  4920.000000   3352771   3359513   3366602   3374002   3381725  
  4910.000000   3389729   3398020   3406565   3415371   3424406  
  4900.000000   3433663   3443097   3452682   3462371   3472135  
  4890.000000   3481947   3491783   3501623   3511425   3521149  
  4880.000000   3530725   3540104   3549215   3558037   3566524  
  4870.000000   3574682   3582477   3589920   3596967   3603627  
  4860.000000   3609862   3615701   3621133   3626212   3630937  
  4850.000000   3635362   3639477   3643322   3646885   3650210  
  4840.000000   3653301   3656216   3658974   3661633   3664205  
  4830.000000   3666732   3669214   3671678   3674118   3676554  
  4820.000000   3678982   3681412   3683837   3686261   3688674  
  4810.000000   3691073   3693449   3695798   3698115   3700401  
  4800.000000   3702665   3704924   3707197   3709509   3711874  
  4790.000000   3714300   3716775   3719282   3721792   3724284  
  4780.000000   3726739   3729154   3731527   3733862   3736147  
  4770.000000   3738372   3740503   3742519   3744391   3746117  
  4760.000000   3747690   3749135   3750458   3751686   3752816  
  4750.000000   3753862   3754811   3755672   3756437   3757120  
  4740.000000   3757717   3758242   3758687   3759059   3759346  
  4730.000000   3759552   3759667   3759697   3759639   3759503  
  4720.000000   3759290   3759011   3758672   3758286   3757864  
  4710.000000   3757423   3756980   3756554   3756163   3755827  
  4700.000000   3755563   3755388   3755317   3755360   3755525  
  4690.000000   3755813   3756222   3756740   3757358   3758052  
  4680.000000   3758799   3759564   3760323   3761039   3761700  
  4670.000000   3762289   3762822   3763306   3763778   3764258  
  4660.000000   3764786   3765380   3766075   3766886   3767843  
  4650.000000   3768957   3770247   3771710   3773343   3775127  
  4640.000000   3777044   3779072   3781198   3783411   3785703  
  4630.000000   3788061   3790461   3792867   3795234   3797509  
  4620.000000   3799643   3801600   3803354   3804897   3806228  
  4610.000000   3807362   3808311   3809109   3809778   3810366  
  4600.000000   3810900   3811427   3811957   3812510   3813067  
  4590.000000   3813616   3814114   3814540   3814851   3815034  
  4580.000000   3815062   3814932   3814631   3814170   3813548  
  4570.000000   3812790   3811904   3810918   3809842   3808695  
  4560.000000   3807475   3806191   3804838   3803427   3801961  
  4550.000000   3800454   3798915   3797353   3795769   3794159  
  4540.000000   3792523   3790861   3789186   3787514   3785878  
  4530.000000   3784301   3782820   3781449   3780215   3779113  
  4520.000000   3778166   3777360   3776725   3776242   3775957  
  4510.000000   3775855   3775996   3776376   3777073   3778088  
  4500.000000   3779514   3781350   3783690   3786529   3789962  
  4490.000000   3793982   3798683   3804053   3810172   3817001  
  4480.000000   3824584   3832845   3841795   3851341   3861487  
  4470.000000   3872147   3883334   3894974   3907079   3919574  
  4460.000000   3932454   3945639   3959106   3972771   3986606  
  4450.000000   4000537   4014539   4028570   4042621   4056683  
  4440.000000   4070759   4084851   4098941   4113017   4127025  
  4430.000000   4140941   4154694   4168272   4181606   4194702  
  4420.000000   4207483   4219944   4231984   4243576   4254602  
  4410.000000   4265028   4274743   4283739   4291936   4299363  
  4400.000000   4305988   4311889   4317084   4321692   4325770  
  4390.000000   4329452   4332805   4335948   4338932   4341850  
  4380.000000   4344736   4347662   4350654   4353771   4357034  
  4370.000000   4360486   4364138   4368009   4372096   4376402  
  4360.000000   4380918   4385642   4390556   4395655   4400884  
  4350.000000   4406215   4411549   4416846   4422008   4427043  
  4340.000000   4431910   4436662   4441256   4445652   4449636  
  4330.000000   4452930   4455114   4455790   4454609   4451443  
  4320.000000   4446384   4439822   4432311   4424527   4417064  
  4310.000000   4410407   4404790   4400286   4396769   4394069  
  4300.000000   4391976   4390337   4389044   4388030   4387266  
  4290.000000   4386710   4386352   4386148   4386108   4386217  
  4280.000000   4386501   4386968   4387625   4388467   4389465  
  4270.000000   4390598   4391816   4393073   4394267   4395265  
  4260.000000   4395866   4395844   4394962   4393049   4390024  
  4250.000000   4385954   4381022   4375534   4369817   4364207  
  4240.000000   4358945   4354200   4350006   4346340   4343090  
  4230.000000   4340144   4337371   4334665   4331942   4329142  
  4220.000000   4326246   4323249   4320203   4317151   4314193  
  4210.000000   4311396   4308855   4306608   4304700   4303117  
  4200.000000   4301849   4300841   4300060   4299440   4298959  
  4190.000000   4298564   4298259   4298014   4297863   4297793  
  4180.000000   4297857   4298046   4298416   4298959   4299735  
  4170.000000   4300749   4302082   4303757   4305865   4308423  
  4160.000000   4311499   4315072   4319170   4323734   4328778  
  4150.000000   4334237   4340137   4346427   4353144   4360243  
  4140.000000   4367765   4375666   4383993   4392707   4401862  
  4130.000000   4411420   4421428   4431836   4442676   4453895  
  4120.000000   4465525   4477533   4489970   4502830   4516171  
  4110.000000   4529985   4544302   4559073   4574275   4589814  
  4100.000000   4605632   4621628   4637752   4653944   4670190  
  4090.000000   4686473   4702799   4719165   4735565   4751999  
  4080.000000   4768453   4784948   4801480   4818082   4834726  
  4070.000000   4851414   4868048   4884573   4900844   4916800  
  4060.000000   4932314   4947368   4961872   4975842   4989199  
  4050.000000   5001979   5014115   5025678   5036628   5047057  
  4040.000000   5056910   5066247   5074963   5083089   5090509  
  4030.000000   5097274   5103300   5108654   5113260   5117155  
  4020.000000   5120216   5122481   5123915   5124610   5124549  
  4010.000000   5123904   5122779   5121212   5118988   5116151  
  4000.000000   5112996  
##END= 
