##TITLE= Sample 003 By ssteindl date Montag, November 26 2018
##JCAMP-DX= 4.24
##DATA TYPE= INFRARED SPECTRUM
##ORIGIN= Exported PE Spectrum Data File
##OWNER= Sandra Steindl
##DATE= 18/11/26
##TIME= 13:30:44.00
##SPECTROMETER/DATA SYSTEM= PERKIN-ELMER Frontier FT-IR/NIR IR
##INSTRUMENT PARAMETERS=
  APODIZATION=stark
  DETECTOR=INGAAS
##RESOLUTION= 16.000000
##DELTAX= -2.000000
##XUNITS= 1/CM
##YUNITS= A
##XFACTOR= 1.00
##YFACTOR= 0.00000011920928955078
##FIRSTX= 10000.00
##LASTX= 4000.00
##NPOINTS= 3001
##FIRSTY= 0.213226
##MAXY= 0.619326
##MINY= 0.189318
##XYDATA= (X++(Y..Y))
 10000.000000   1788668   1781626   1774482   1767255   1760491  
  9990.000000   1754857   1750864   1748757   1748662   1750488  
  9980.000000   1753785   1757821   1761923   1765628   1768864  
  9970.000000   1771767   1774600   1777340   1779618   1780678  
  9960.000000   1779765   1776432   1770904   1764088   1757377  
  9950.000000   1752193   1749516   1749570   1751757   1754939  
  9940.000000   1757801   1759312   1758947   1756776   1753336  
  9930.000000   1749434   1745954   1743684   1743181   1744657  
  9920.000000   1747880   1752183   1756589   1760079   1761927  
  9910.000000   1761951   1760597   1758736   1757296   1756823  
  9900.000000   1757218   1757762   1757445   1755488   1751723  
  9890.000000   1746810   1741962   1738547   1737490   1738953  
  9880.000000   1742261   1746164   1749297   1750569   1749459  
  9870.000000   1745996   1740682   1734276   1727689   1721877  
  9860.000000   1717764   1716096   1717231   1720959   1726433  
  9850.000000   1732340   1737270   1740173   1740708   1739325  
  9840.000000   1737040   1734959   1733835   1733756   1734248  
  9830.000000   1734549   1734093   1732782   1731062   1729658  
  9820.000000   1729183   1729806   1731139   1732424   1732884  
  9810.000000   1732066   1730046   1727349   1724754   1722974  
  9800.000000   1722457   1723348   1725490   1728619   1732360  
  9790.000000   1736336   1740123   1743302   1745540   1746668  
  9780.000000   1746787   1746192   1745266   1744232   1743031  
  9770.000000   1741285   1738536   1734542   1729568   1724464  
  9760.000000   1720405   1718507   1719264   1722381   1726761  
  9750.000000   1731010   1733920   1734958   1734380   1733039  
  9740.000000   1731938   1731765   1732608   1733953   1734989  
  9730.000000   1734967   1733582   1731000   1727779   1724537  
  9720.000000   1721675   1719288   1717148   1714969   1712557  
  9710.000000   1709975   1707544   1705707   1704876   1705249  
  9700.000000   1706709   1708849   1711019   1712532   1712840  
  9690.000000   1711720   1709400   1706502   1703904   1702414  
  9680.000000   1702496   1704019   1706279   1708167   1708599  
  9670.000000   1706881   1703014   1697712   1692147   1687566  
  9660.000000   1684837   1684231   1685412   1687660   1690229  
  9650.000000   1692550   1694390   1695698   1696507   1696751  
  9640.000000   1696311   1695096   1693201   1690991   1689041  
  9630.000000   1687990   1688300   1690152   1693346   1697474  
  9620.000000   1701983   1706377   1710179   1712953   1714263  
  9610.000000   1713693   1711033   1706354   1700180   1693352  
  9600.000000   1686868   1681539   1677753   1675391   1673954  
  9590.000000   1672913   1671958   1671217   1671091   1672054  
  9580.000000   1674271   1677477   1681009   1684079   1686136  
  9570.000000   1687048   1687172   1687063   1687218   1687759  
  9560.000000   1688409   1688625   1687899   1686035   1683254  
  9550.000000   1680115   1677250   1675112   1673803   1673123  
  9540.000000   1672712   1672279   1671672   1670911   1670044  
  9530.000000   1669072   1667925   1666557   1665100   1663886  
  9520.000000   1663405   1664007   1665713   1668028   1670097  
  9510.000000   1670969   1670025   1667263   1663373   1659523  
  9500.000000   1656923   1656416   1658158   1661648   1665928  
  9490.000000   1670013   1673165   1675096   1675850   1675675  
  9480.000000   1674802   1673378   1671497   1669248   1666829  
  9470.000000   1664461   1662347   1660496   1658681   1656521  
  9460.000000   1653645   1649972   1645801   1641811   1638831  
  9450.000000   1637533   1638194   1640550   1643893   1647257  
  9440.000000   1649732   1650719   1650103   1648251   1645895  
  9430.000000   1643883   1642979   1643641   1645955   1649564  
  9420.000000   1653781   1657698   1660440   1661377   1660322  
  9410.000000   1657602   1653943   1650282   1647463   1646024  
  9400.000000   1646078   1647350   1649327   1651459   1653287  
  9390.000000   1654566   1655192   1655223   1654737   1653878  
  9380.000000   1652804   1651724   1650897   1650524   1650713  
  9370.000000   1651313   1651965   1652157   1651405   1649444  
  9360.000000   1646294   1642335   1638161   1634517   1632074  
  9350.000000   1631313   1632374   1635032   1638716   1642626  
  9340.000000   1645890   1647717   1647585   1645349   1641330  
  9330.000000   1636233   1631006   1626539   1623479   1622021  
  9320.000000   1621995   1622908   1624187   1625317   1625970  
  9310.000000   1626069   1625683   1625027   1624312   1623797  
  9300.000000   1623780   1624612   1626650   1630041   1634624  
  9290.000000   1639786   1644605   1648016   1649100   1647374  
  9280.000000   1642961   1636701   1629902   1624046   1620293  
  9270.000000   1619274   1620918   1624574   1629133   1633315  
  9260.000000   1635961   1636282   1634018   1629403   1623091  
  9250.000000   1615955   1608965   1602957   1598541   1595992  
  9240.000000   1595298   1596248   1598492   1601670   1605365  
  9230.000000   1609213   1612837   1615917   1618201   1619521  
  9220.000000   1619902   1619469   1618513   1617260   1615887  
  9210.000000   1614409   1612761   1610860   1608669   1606326  
  9200.000000   1604090   1602360   1601460   1601601   1602744  
  9190.000000   1604656   1606946   1609147   1610840   1611690  
  9180.000000   1611559   1610438   1608489   1605980   1603290  
  9170.000000   1600843   1599025   1598117   1598230   1599328  
  9160.000000   1601217   1603610   1606149   1608485   1610320  
  9150.000000   1611406   1611588   1610787   1609111   1606808  
  9140.000000   1604284   1601979   1600278   1599426   1599444  
  9130.000000   1600201   1601428   1602909   1604507   1606244  
  9120.000000   1608180   1610304   1612441   1614212   1615164  
  9110.000000   1614856   1613097   1610002   1606058   1601940  
  9100.000000   1598338   1595772   1594486   1594464   1595453  
  9090.000000   1597144   1599224   1601484   1603738   1605847  
  9080.000000   1607661   1609069   1610017   1610522   1610703  
  9070.000000   1610676   1610548   1610295   1609795   1608846  
  9060.000000   1607273   1605058   1602364   1599563   1597095  
  9050.000000   1595389   1594693   1595008   1596067   1597433  
  9040.000000   1598632   1599262   1599083   1598061   1596377  
  9030.000000   1594350   1592366   1590786   1589913   1589902  
  9020.000000   1590757   1592309   1594273   1596294   1597999  
  9010.000000   1599099   1599443   1599071   1598185   1597110  
  9000.000000   1596221   1595821   1596069   1596896   1598035  
  8990.000000   1599073   1599583   1599254   1597989   1595957  
  8980.000000   1593523   1591165   1589311   1588261   1588117  
  8970.000000   1588799   1590092   1591731   1593460   1595045  
  8960.000000   1596270   1596943   1596942   1596234   1594946  
  8950.000000   1593342   1591823   1590761   1590404   1590750  
  8940.000000   1591567   1592482   1593131   1593340   1593205  
  8930.000000   1593067   1593358   1594414   1596313   1598833  
  8920.000000   1601515   1603844   1605432   1606152   1606153  
  8910.000000   1605771   1605387   1605279   1605552   1606119  
  8900.000000   1606778   1607272   1607390   1606984   1606011  
  8890.000000   1604532   1602717   1600841   1599224   1598206  
  8880.000000   1598037   1598837   1600532   1602889   1605587  
  8870.000000   1608311   1610834   1613024   1614816   1616143  
  8860.000000   1616918   1617022   1616388   1615075   1613334  
  8850.000000   1611584   1610286   1609802   1610230   1611389  
  8840.000000   1612855   1614144   1614875   1614892   1614305  
  8830.000000   1613354   1612310   1611295   1610290   1609156  
  8820.000000   1607791   1606235   1604745   1603751   1603723  
  8810.000000   1605010   1607682   1611513   1616024   1620634  
  8800.000000   1624788   1628075   1630298   1631450   1631716  
  8790.000000   1631362   1630719   1630077   1629671   1629609  
  8780.000000   1629877   1630349   1630831   1631159   1631224  
  8770.000000   1631076   1630853   1630796   1631115   1631958  
  8760.000000   1633350   1635199   1637328   1639502   1641479  
  8750.000000   1643029   1643962   1644162   1643620   1642470  
  8740.000000   1641000   1639602   1638686   1638551   1639282  
  8730.000000   1640702   1642423   1643962   1644906   1645034  
  8720.000000   1644394   1643261   1642038   1641108   1640728  
  8710.000000   1640966   1641749   1642909   1644298   1645800  
  8700.000000   1647382   1649026   1650727   1652429   1654045  
  8690.000000   1655473   1656659   1657607   1658432   1659300  
  8680.000000   1660438   1662041   1664247   1667056   1670302  
  8670.000000   1673686   1676830   1679408   1681225   1682331  
  8660.000000   1682997   1683672   1684805   1686699   1689364  
  8650.000000   1692487   1695527   1697871   1699059   1698920  
  8640.000000   1697627   1695623   1693457   1691637   1690489  
  8630.000000   1690138   1690532   1691551   1693099   1695118  
  8620.000000   1697568   1700356   1703299   1706125   1708534  
  8610.000000   1710295   1711360   1711878   1712208   1712769  
  8600.000000   1713961   1716002   1718883   1722357   1726003  
  8590.000000   1729353   1731994   1733700   1734457   1734495  
  8580.000000   1734196   1734031   1734404   1735554   1737457  
  8570.000000   1739859   1742325   1744396   1745710   1746125  
  8560.000000   1745753   1744908   1743977   1743288   1743007  
  8550.000000   1743094   1743355   1743538   1743472   1743136  
  8540.000000   1742679   1742371   1742498   1743269   1744730  
  8530.000000   1746763   1749115   1751482   1753597   1755285  
  8520.000000   1756523   1757407   1758138   1758924   1759943  
  8510.000000   1761244   1762757   1764281   1765564   1766382  
  8500.000000   1766633   1766393   1765914   1765580   1765776  
  8490.000000   1766789   1768676   1771273   1774218   1777069  
  8480.000000   1779424   1781036   1781880   1782121   1782048  
  8470.000000   1781959   1782073   1782473   1783104   1783819  
  8460.000000   1784466   1784938   1785228   1785426   1785672  
  8450.000000   1786108   1786800   1787733   1788805   1789881  
  8440.000000   1790847   1791663   1792389   1793152   1794102  
  8430.000000   1795334   1796843   1798505   1800111   1801435  
  8420.000000   1802316   1802712   1802714   1802516   1802336  
  8410.000000   1802362   1802674   1803253   1803986   1804739  
  8400.000000   1805395   1805891   1806214   1806385   1806428  
  8390.000000   1806354   1806148   1805791   1805290   1804693  
  8380.000000   1804099   1803628   1803399   1803494   1803923  
  8370.000000   1804635   1805509   1806412   1807218   1807862  
  8360.000000   1808336   1808706   1809074   1809538   1810149  
  8350.000000   1810866   1811586   1812128   1812320   1812021  
  8340.000000   1811207   1809970   1808515   1807109   1806004  
  8330.000000   1805409   1805410   1806023   1807147   1808659  
  8320.000000   1810401   1812234   1814018   1815613   1816871  
  8310.000000   1817628   1817751   1817130   1815748   1813658  
  8300.000000   1811029   1808099   1805163   1802526   1800444  
  8290.000000   1799110   1798587   1798851   1799749   1801091  
  8280.000000   1802648   1804234   1805708   1806990   1808049  
  8270.000000   1808858   1809388   1809577   1809368   1808718  
  8260.000000   1807660   1806304   1804823   1803421   1802252  
  8250.000000   1801407   1800851   1800484   1800140   1799685  
  8240.000000   1799017   1798117   1797006   1795748   1794410  
  8230.000000   1793058   1791753   1790531   1789409   1788358  
  8220.000000   1787310   1786161   1784803   1783180   1781336  
  8210.000000   1779449   1777799   1776684   1776298   1776648  
  8200.000000   1777516   1778513   1779195   1779217   1778441  
  8190.000000   1776985   1775158   1773331   1771786   1770628  
  8180.000000   1769764   1768978   1768039   1766803   1765261  
  8170.000000   1763520   1761728   1759998   1758349   1756720  
  8160.000000   1755020   1753192   1751272   1749371   1747649  
  8150.000000   1746231   1745165   1744399   1743810   1743264  
  8140.000000   1742667   1742001   1741309   1740668   1740145  
  8130.000000   1739772   1739546   1739432   1739387   1739355  
  8120.000000   1739272   1739040   1738545   1737669   1736342  
  8110.000000   1734570   1732471   1730233   1728081   1726192  
  8100.000000   1724656   1723453   1722475   1721602   1720743  
  8090.000000   1719901   1719142   1718581   1718301   1718322  
  8080.000000   1718586   1718967   1719322   1719503   1719410  
  8070.000000   1718965   1718139   1716927   1715372   1713565  
  8060.000000   1711659   1709854   1708349   1707298   1706745  
  8050.000000   1706617   1706729   1706865   1706828   1706521  
  8040.000000   1705952   1705220   1704453   1703755   1703170  
  8030.000000   1702674   1702209   1701718   1701179   1700599  
  8020.000000   1700006   1699405   1698771   1698043   1697154  
  8010.000000   1696075   1694831   1693521   1692279   1691248  
  8000.000000   1690529   1690155   1690088   1690228   1690445  
  7990.000000   1690598   1690568   1690260   1689624   1688648  
  7980.000000   1687380   1685912   1684380   1682939   1681739  
  7970.000000   1680890   1680448   1680399   1680668   1681133  
  7960.000000   1681652   1682083   1682313   1682270   1681948  
  7950.000000   1681398   1680733   1680085   1679583   1679298  
  7940.000000   1679233   1679312   1679417   1679433   1679298  
  7930.000000   1679032   1678723   1678502   1678465   1678645  
  7920.000000   1678983   1679351   1679608   1679652   1679462  
  7910.000000   1679091   1678642   1678203   1677811   1677433  
  7900.000000   1676990   1676400   1675639   1674758   1673884  
  7890.000000   1673172   1672755   1672696   1672959   1673439  
  7880.000000   1673986   1674466   1674797   1674965   1675022  
  7870.000000   1675043   1675102   1675234   1675427   1675619  
  7860.000000   1675730   1675686   1675453   1675051   1674557  
  7850.000000   1674081   1673730   1673577   1673624   1673817  
  7840.000000   1674053   1674232   1674286   1674209   1674047  
  7830.000000   1673880   1673770   1673748   1673788   1673839  
  7820.000000   1673840   1673761   1673607   1673416   1673225  
  7810.000000   1673043   1672835   1672526   1672032   1671288  
  7800.000000   1670279   1669044   1667655   1666208   1664790  
  7790.000000   1663489   1662384   1661569   1661128   1661128  
  7780.000000   1661565   1662343   1663263   1664052   1664433  
  7770.000000   1664198   1663288   1661801   1659982   1658133  
  7760.000000   1656541   1655385   1654714   1654443   1654406  
  7750.000000   1654420   1654332   1654061   1653593   1652971  
  7740.000000   1652270   1651572   1650951   1650467   1650158  
  7730.000000   1650033   1650084   1650271   1650546   1650846  
  7720.000000   1651111   1651285   1651315   1651162   1650795  
  7710.000000   1650213   1649449   1648582   1647728   1647017  
  7700.000000   1646557   1646398   1646504   1646761   1647003  
  7690.000000   1647066   1646838   1646300   1645522   1644646  
  7680.000000   1643828   1643192   1642794   1642617   1642591  
  7670.000000   1642621   1642624   1642544   1642362   1642081  
  7660.000000   1641719   1641297   1640839   1640372   1639932  
  7650.000000   1639557   1639287   1639145   1639130   1639211  
  7640.000000   1639330   1639417   1639407   1639265   1638996  
  7630.000000   1638655   1638327   1638105   1638059   1638206  
  7620.000000   1638502   1638847   1639119   1639208   1639061  
  7610.000000   1638692   1638193   1637690   1637308   1637122  
  7600.000000   1637143   1637319   1637569   1637819   1638038  
  7590.000000   1638247   1638503   1638875   1639405   1640081  
  7580.000000   1640847   1641606   1642270   1642766   1643073  
  7570.000000   1643202   1643201   1643125   1643036   1642989  
  7560.000000   1643039   1643237   1643632   1644252   1645105  
  7550.000000   1646162   1647364   1648634   1649894   1651088  
  7540.000000   1652194   1653218   1654194   1655159   1656148  
  7530.000000   1657171   1658220   1659267   1660280   1661226  
  7520.000000   1662091   1662883   1663629   1664378   1665187  
  7510.000000   1666102   1667148   1668317   1669572   1670845  
  7500.000000   1672067   1673172   1674136   1674966   1675712  
  7490.000000   1676439   1677221   1678111   1679143   1680314  
  7480.000000   1681608   1682993   1684447   1685953   1687517  
  7470.000000   1689145   1690849   1692620   1694439   1696259  
  7460.000000   1698036   1699720   1701295   1702768   1704193  
  7450.000000   1705634   1707167   1708843   1710689   1712690  
  7440.000000   1714810   1716996   1719206   1721405   1723579  
  7430.000000   1725714   1727804   1729841   1731832   1733797  
  7420.000000   1735782   1737849   1740062   1742453   1745007  
  7410.000000   1747653   1750277   1752755   1754988   1756934  
  7400.000000   1758622   1760135   1761589   1763089   1764715  
  7390.000000   1766500   1768435   1770486   1772603   1774749  
  7380.000000   1776891   1779026   1781163   1783334   1785578  
  7370.000000   1787920   1790358   1792831   1795236   1797422  
  7360.000000   1799249   1800622   1801546   1802131   1802581  
  7350.000000   1803143   1804044   1805431   1807321   1809625  
  7340.000000   1812178   1814808   1817371   1819787   1822027  
  7330.000000   1824096   1826009   1827782   1829437   1831003  
  7320.000000   1832529   1834063   1835648   1837297   1838988  
  7310.000000   1840676   1842306   1843850   1845309   1846724  
  7300.000000   1848136   1849585   1851062   1852535   1853947  
  7290.000000   1855255   1856438   1857514   1858515   1859472  
  7280.000000   1860391   1861251   1862012   1862642   1863139  
  7270.000000   1863535   1863895   1864295   1864797   1865440  
  7260.000000   1866235   1867177   1868257   1869467   1870807  
  7250.000000   1872263   1873818   1875428   1877050   1878634  
  7240.000000   1880159   1881607   1882999   1884340   1885653  
  7230.000000   1886939   1888225   1889538   1890944   1892507  
  7220.000000   1894308   1896389   1898767   1901403   1904243  
  7210.000000   1907206   1910242   1913306   1916395   1919504  
  7200.000000   1922649   1925831   1929071   1932384   1935816  
  7190.000000   1939399   1943167   1947099   1951142   1955177  
  7180.000000   1959084   1962749   1966127   1969236   1972175  
  7170.000000   1975062   1978032   1981172   1984535   1988111  
  7160.000000   1991876   1995774   1999773   2003834   2007947  
  7150.000000   2012085   2016255   2020452   2024714   2029078  
  7140.000000   2033613   2038366   2043392   2048695   2054282  
  7130.000000   2060115   2066172   2072397   2078752   2085157  
  7120.000000   2091548   2097832   2103964   2109904   2115687  
  7110.000000   2121366   2127040   2132798   2138729   2144886  
  7100.000000   2151313   2158026   2165035   2172320   2179835  
  7090.000000   2187484   2195148   2202684   2209986   2216997  
  7080.000000   2223755   2230357   2236952   2243661   2250564  
  7070.000000   2257649   2264850   2272066   2279216   2286259  
  7060.000000   2293206   2300096   2306972   2313857   2320758  
  7050.000000   2327668   2334590   2341543   2348555   2355650  
  7040.000000   2362822   2370031   2377215   2384307   2391262  
  7030.000000   2398076   2404767   2411371   2417906   2424374  
  7020.000000   2430755   2437043   2443243   2449403   2455574  
  7010.000000   2461802   2468081   2474363   2480546   2486539  
  7000.000000   2492266   2497728   2502964   2508059   2513073  
  6990.000000   2518051   2522983   2527855   2532638   2537342  
  6980.000000   2541979   2546581   2551131   2555598   2559893  
  6970.000000   2563952   2567717   2571212   2574496   2577671  
  6960.000000   2580811   2583955   2587068   2590091   2592945  
  6950.000000   2595608   2598086   2600453   2602778   2605130  
  6940.000000   2607519   2609930   2612310   2614620   2616830  
  6930.000000   2618942   2620964   2622913   2624785   2626580  
  6920.000000   2628287   2629926   2631527   2633150   2634840  
  6910.000000   2636629   2638505   2640425   2642312   2644085  
  6900.000000   2645661   2646993   2648057   2648874   2649494  
  6890.000000   2650004   2650502   2651096   2651859   2652831  
  6880.000000   2653986   2655262   2656558   2657783   2658869  
  6870.000000   2659794   2660575   2661257   2661887   2662501  
  6860.000000   2663120   2663754   2664415   2665118   2665876  
  6850.000000   2666698   2667568   2668457   2669316   2670112  
  6840.000000   2670820   2671449   2672018   2672551   2673050  
  6830.000000   2673499   2673863   2674115   2674246   2674278  
  6820.000000   2674254   2674220   2674206   2674219   2674241  
  6810.000000   2674260   2674273   2674310   2674413   2674629  
  6800.000000   2674974   2675435   2675956   2676470   2676912  
  6790.000000   2677249   2677471   2677591   2677619   2677557  
  6780.000000   2677387   2677091   2676658   2676102   2675460  
  6770.000000   2674784   2674115   2673483   2672892   2672337  
  6760.000000   2671806   2671301   2670831   2670410   2670039  
  6750.000000   2669713   2669408   2669105   2668792   2668477  
  6740.000000   2668177   2667916   2667704   2667529   2667363  
  6730.000000   2667173   2666928   2666616   2666237   2665800  
  6720.000000   2665306   2664750   2664123   2663425   2662674  
  6710.000000   2661915   2661199   2660577   2660064   2659642  
  6700.000000   2659253   2658830   2658307   2657651   2656863  
  6690.000000   2655975   2655029   2654070   2653116   2652175  
  6680.000000   2651234   2650273   2649272   2648212   2647080  
  6670.000000   2645873   2644594   2643267   2641922   2640603  
  6660.000000   2639343   2638165   2637065   2636028   2635019  
  6650.000000   2634012   2632984   2631927   2630831   2629685  
  6640.000000   2628465   2627146   2625708   2624152   2622499  
  6630.000000   2620796   2619087   2617415   2615795   2614231  
  6620.000000   2612711   2611233   2609797   2608414   2607077  
  6610.000000   2605760   2604410   2602961   2601364   2599606  
  6600.000000   2597731   2595824   2593983   2592281   2590737  
  6590.000000   2589312   2587933   2586527   2585052   2583516  
  6580.000000   2581962   2580443   2578989   2577595   2576218  
  6570.000000   2574808   2573334   2571799   2570244   2568721  
  6560.000000   2567278   2565924   2564637   2563373   2562092  
  6550.000000   2560777   2559442   2558121   2556852   2555655  
  6540.000000   2554529   2553446   2552375   2551283   2550157  
  6530.000000   2548990   2547792   2546573   2545350   2544140  
  6520.000000   2542963   2541839   2540780   2539781   2538824  
  6510.000000   2537879   2536918   2535933   2534942   2533982  
  6500.000000   2533099   2532319   2531638   2531018   2530398  
  6490.000000   2529720   2528948   2528081   2527148   2526185  
  6480.000000   2525223   2524268   2523311   2522337   2521342  
  6470.000000   2520342   2519364   2518440   2517581   2516777  
  6460.000000   2515998   2515210   2514393   2513547   2512690  
  6450.000000   2511838   2510997   2510145   2509247   2508267  
  6440.000000   2507194   2506050   2504892   2503793   2502821  
  6430.000000   2502020   2501402   2500949   2500628   2500402  
  6420.000000   2500236   2500095   2499944   2499740   2499448  
  6410.000000   2499039   2498519   2497912   2497271   2496650  
  6400.000000   2496092   2495615   2495213   2494867   2494556  
  6390.000000   2494273   2494022   2493813   2493652   2493530  
  6380.000000   2493430   2493323   2493190   2493017   2492803  
  6370.000000   2492553   2492268   2491943   2491573   2491161  
  6360.000000   2490719   2490278   2489866   2489506   2489191  
  6350.000000   2488895   2488571   2488180   2487698   2487134  
  6340.000000   2486517   2485890   2485278   2484692   2484114  
  6330.000000   2483517   2482870   2482163   2481390   2480563  
  6320.000000   2479683   2478750   2477753   2476690   2475568  
  6310.000000   2474416   2473266   2472156   2471093   2470067  
  6300.000000   2469034   2467951   2466781   2465520   2464185  
  6290.000000   2462817   2461450   2460111   2458797   2457499  
  6280.000000   2456192   2454866   2453511   2452130   2450718  
  6270.000000   2449269   2447763   2446189   2444535   2442817  
  6260.000000   2441057   2439290   2437535   2435798   2434060  
  6250.000000   2432289   2430448   2428517   2426489   2424383  
  6240.000000   2422227   2420058   2417909   2415812   2413787  
  6230.000000   2411851   2410004   2408234   2406512   2404796  
  6220.000000   2403047   2401235   2399352   2397418   2395469  
  6210.000000   2393550   2391697   2389928   2388243   2386626  
  6200.000000   2385059   2383522   2382000   2380479   2378941  
  6190.000000   2377364   2375726   2374008   2372210   2370346  
  6180.000000   2368447   2366550   2364690   2362890   2361163  
  6170.000000   2359511   2357935   2356436   2355014   2353665  
  6160.000000   2352380   2351141   2349926   2348714   2347492  
  6150.000000   2346256   2345009   2343750   2342474   2341166  
  6140.000000   2339809   2338388   2336904   2335372   2333822  
  6130.000000   2332290   2330811   2329407   2328086   2326844  
  6120.000000   2325673   2324554   2323475   2322415   2321359  
  6110.000000   2320290   2319201   2318093   2316983   2315891  
  6100.000000   2314849   2313872   2312974   2312150   2311396  
  6090.000000   2310698   2310055   2309464   2308931   2308448  
  6080.000000   2308014   2307611   2307236   2306880   2306563  
  6070.000000   2306297   2306112   2306013   2306011   2306086  
  6060.000000   2306230   2306424   2306675   2306987   2307385  
  6050.000000   2307877   2308475   2309164   2309940   2310789  
  6040.000000   2311719   2312733   2313854   2315081   2316414  
  6030.000000   2317824   2319289   2320777   2322287   2323822  
  6020.000000   2325407   2327057   2328784   2330571   2332397  
  6010.000000   2334226   2336044   2337842   2339639   2341450  
  6000.000000   2343301   2345192   2347125   2349083   2351066  
  5990.000000   2353072   2355124   2357239   2359452   2361771  
  5980.000000   2364212   2366763   2369426   2372187   2375048  
  5970.000000   2377999   2381040   2384154   2387335   2390559  
  5960.000000   2393823   2397112   2400428   2403755   2407089  
  5950.000000   2410406   2413700   2416963   2420215   2423483  
  5940.000000   2426813   2430247   2433810   2437507   2441318  
  5930.000000   2445206   2449127   2453044   2456926   2460752  
  5920.000000   2464504   2468164   2471715   2475140   2478433  
  5910.000000   2481595   2484639   2487579   2490433   2493216  
  5900.000000   2495940   2498631   2501308   2504013   2506773  
  5890.000000   2509621   2512555   2515563   2518605   2521640  
  5880.000000   2524621   2527520   2530314   2532995   2535554  
  5870.000000   2537986   2540289   2542470   2544556   2546585  
  5860.000000   2548609   2550674   2552811   2555028   2557315  
  5850.000000   2559654   2562030   2564445   2566909   2569439  
  5840.000000   2572041   2574704   2577398   2580080   2582711  
  5830.000000   2585268   2587745   2590153   2592507   2594818  
  5820.000000   2597086   2599303   2601455   2603539   2605555  
  5810.000000   2607522   2609446   2611351   2613232   2615104  
  5800.000000   2616953   2618799   2620625   2622446   2624227  
  5790.000000   2625953   2627551   2628972   2630125   2630952  
  5780.000000   2631375   2631354   2630843   2629844   2628369  
  5770.000000   2626487   2624286   2621900   2619452   2617072  
  5760.000000   2614837   2612803   2610965   2609312   2607807  
  5750.000000   2606429   2605153   2603967   2602859   2601810  
  5740.000000   2600809   2599842   2598915   2598036   2597230  
  5730.000000   2596503   2595865   2595296   2594777   2594277  
  5720.000000   2593788   2593304   2592839   2592404   2592010  
  5710.000000   2591649   2591315   2590997   2590699   2590436  
  5700.000000   2590234   2590113   2590079   2590115   2590186  
  5690.000000   2590254   2590282   2590263   2590197   2590107  
  5680.000000   2590003   2589893   2589754   2589562   2589268  
  5670.000000   2588838   2588227   2587411   2586364   2585082  
  5660.000000   2583570   2581863   2580010   2578082   2576145  
  5650.000000   2574260   2572453   2570736   2569095   2567519  
  5640.000000   2566000   2564545   2563163   2561859   2560619  
  5630.000000   2559415   2558212   2556978   2555713   2554434  
  5620.000000   2553187   2552011   2550937   2549962   2549064  
  5610.000000   2548203   2547348   2546478   2545594   2544708  
  5600.000000   2543831   2542966   2542104   2541235   2540350  
  5590.000000   2539454   2538558   2537676   2536812   2535958  
  5580.000000   2535088   2534179   2533211   2532183   2531105  
  5570.000000   2529997   2528867   2527722   2526550   2525342  
  5560.000000   2524093   2522808   2521502   2520191   2518881  
  5550.000000   2517566   2516231   2514862   2513457   2512032  
  5540.000000   2510618   2509248   2507943   2506703   2505511  
  5530.000000   2504339   2503162   2501967   2500758   2499548  
  5520.000000   2498351   2497173   2496011   2494855   2493697  
  5510.000000   2492535   2491368   2490200   2489026   2487841  
  5500.000000   2486635   2485407   2484164   2482924   2481703  
  5490.000000   2480511   2479327   2478117   2476828   2475422  
  5480.000000   2473876   2472206   2470449   2468662   2466887  
  5470.000000   2465152   2463455   2461779   2460095   2458383  
  5460.000000   2456625   2454814   2452939   2450994   2448972  
  5450.000000   2446880   2444740   2442588   2440466   2438409  
  5440.000000   2436430   2434520   2432658   2430822   2429006  
  5430.000000   2427216   2425470   2423770   2422110   2420459  
  5420.000000   2418798   2417111   2415434   2413819   2412354  
  5410.000000   2411098   2410083   2409279   2408635   2408076  
  5400.000000   2407564   2407078   2406650   2406307   2406090  
  5390.000000   2405999   2406031   2406152   2406363   2406661  
  5380.000000   2407094   2407688   2408490   2409487   2410677  
  5370.000000   2412000   2413442   2414958   2416572   2418270  
  5360.000000   2420099   2422046   2424159   2426426   2428920  
  5350.000000   2431661   2434756   2438231   2442173   2446559  
  5340.000000   2451424   2456703   2462429   2468549   2475119  
  5330.000000   2482091   2489516   2497324   2505552   2514135  
  5320.000000   2523154   2532596   2542603   2553184   2564478  
  5310.000000   2576453   2589190   2602608   2616764   2631587  
  5300.000000   2647161   2663452   2680575   2698511   2717369  
  5290.000000   2737104   2757771   2779257   2801534   2824436  
  5280.000000   2847915   2871854   2896299   2921257   2946858  
  5270.000000   2973139   3000142   3027753   3055808   3084067  
  5260.000000   3112329   3140469   3168464   3196382   3224281  
  5250.000000   3252195   3280013   3307582   3334624   3360969  
  5240.000000   3386432   3411050   3434840   3457993   3480563  
  5230.000000   3502687   3524285   3545342   3565654   3585170  
  5220.000000   3603731   3621403   3638165   3654205   3669564  
  5210.000000   3684416   3698718   3712512   3725621   3738005  
  5200.000000   3749486   3760100   3769791   3778710   3786870  
  5190.000000   3794421   3801330   3807670   3813354   3818436  
  5180.000000   3822848   3826679   3829893   3832584   3834694  
  5170.000000   3836279   3837268   3837721   3837603   3837012  
  5160.000000   3835941   3834478   3832589   3830316   3827601  
  5150.000000   3824486   3820946   3817062   3812845   3808377  
  5140.000000   3803650   3798709   3793525   3788135   3782529  
  5130.000000   3776760   3770838   3764804   3758644   3752365  
  5120.000000   3745936   3739368   3732666   3725882   3719057  
  5110.000000   3712251   3705489   3698790   3692141   3685534  
  5100.000000   3678953   3672404   3665892   3659436   3653042  
  5090.000000   3646714   3640443   3634217   3628025   3621859  
  5080.000000   3615713   3609581   3603449   3597307   3591139  
  5070.000000   3584940   3578711   3572468   3566222   3559991  
  5060.000000   3553768   3547544   3541290   3534984   3528601  
  5050.000000   3522141   3515605   3509015   3502382   3495724  
  5040.000000   3489041   3482334   3475598   3468833   3462043  
  5030.000000   3455238   3448433   3441641   3434880   3428165  
  5020.000000   3421516   3414950   3408495   3402164   3395984  
  5010.000000   3389953   3384086   3378366   3372802   3367374  
  5000.000000   3362103   3356981   3352044   3347291   3342763  
  4990.000000   3338451   3334391   3330561   3326989   3323646  
  4980.000000   3320558   3317698   3315100   3312748   3310692  
  4970.000000   3308927   3307512   3306435   3305743   3305400  
  4960.000000   3305431   3305787   3306495   3307521   3308920  
  4950.000000   3310680   3312867   3315462   3318508   3321951  
  4940.000000   3325801   3329988   3334523   3339349   3344501  
  4930.000000   3349942   3355718   3361796   3368212   3374927  
  4920.000000   3381970   3389307   3396967   3404925   3413210  
  4910.000000   3421798   3430704   3439894   3449366   3459073  
  4900.000000   3468995   3479082   3489307   3499624   3510003  
  4890.000000   3520407   3530797   3541135   3551370   3561463  
  4880.000000   3571358   3581035   3590449   3599601   3608453  
  4870.000000   3617008   3625215   3633069   3640509   3647537  
  4860.000000   3654117   3660283   3666026   3671405   3676420  
  4850.000000   3681122   3685506   3689618   3693453   3697068  
  4840.000000   3700471   3703724   3706839   3709864   3712802  
  4830.000000   3715684   3718501   3721275   3723996   3726677  
  4820.000000   3729307   3731892   3734420   3736901   3739333  
  4810.000000   3741734   3744110   3746475   3748824   3751155  
  4800.000000   3753450   3755698   3757888   3760025   3762116  
  4790.000000   3764181   3766233   3768288   3770348   3772417  
  4780.000000   3774486   3776556   3778616   3780665   3782684  
  4770.000000   3784662   3786567   3788380   3790069   3791623  
  4760.000000   3793026   3794287   3795405   3796398   3797266  
  4750.000000   3798020   3798649   3799157   3799528   3799769  
  4740.000000   3799871   3799853   3799720   3799504   3799216  
  4730.000000   3798886   3798516   3798117   3797675   3797183  
  4720.000000   3796618   3795972   3795236   3794416   3793524  
  4710.000000   3792581   3791614   3790647   3789708   3788819  
  4700.000000   3788007   3787296   3786711   3786271   3785994  
  4690.000000   3785883   3785937   3786135   3786454   3786854  
  4680.000000   3787302   3787750   3788168   3788517   3788786  
  4670.000000   3788954   3789033   3789029   3788982   3788919  
  4660.000000   3788897   3788961   3789170   3789562   3790179  
  4650.000000   3791032   3792126   3793436   3794930   3796562  
  4640.000000   3798293   3800086   3801922   3803787   3805680  
  4630.000000   3807598   3809530   3811456   3813345   3815163  
  4620.000000   3816870   3818440   3819848   3821088   3822151  
  4610.000000   3823044   3823766   3824335   3824754   3825055  
  4600.000000   3825251   3825385   3825468   3825532   3825569  
  4590.000000   3825582   3825537   3825415   3825171   3824785  
  4580.000000   3824224   3823484   3822558   3821464   3820215  
  4570.000000   3818847   3817384   3815865   3814309   3812743  
  4560.000000   3811170   3809599   3808020   3806432   3804825  
  4550.000000   3803200   3801556   3799898   3798233   3796565  
  4540.000000   3794902   3793247   3791615   3790006   3788444  
  4530.000000   3786928   3785484   3784106   3782823   3781625  
  4520.000000   3780551   3779597   3778821   3778225   3777879  
  4510.000000   3777784   3778014   3778565   3779516   3780861  
  4500.000000   3782689   3784998   3787881   3791329   3795431  
  4490.000000   3800163   3805599   3811702   3818532   3826033  
  4480.000000   3834251   3843117   3852658   3862793   3873538  
  4470.000000   3884805   3896600   3908836   3921516   3934558  
  4460.000000   3947964   3961660   3975640   3989833   4004216  
  4450.000000   4018717   4033305   4047927   4062565   4077202  
  4440.000000   4091837   4106475   4121106   4135730   4150299  
  4430.000000   4164798   4179157   4193360   4207327   4221053  
  4420.000000   4234446   4247496   4260093   4272214   4283734  
  4410.000000   4294624   4304762   4314129   4322629   4330276  
  4400.000000   4337027   4342959   4348097   4352580   4356485  
  4390.000000   4359975   4363134   4366098   4368919   4371687  
  4380.000000   4374420   4377171   4379950   4382804   4385760  
  4370.000000   4388875   4392195   4395773   4399647   4403838  
  4360.000000   4408344   4413145   4418192   4423437   4428798  
  4350.000000   4434228   4439637   4445005   4450271   4455459  
  4340.000000   4460545   4465565   4470457   4475151   4479422  
  4330.000000   4482995   4485477   4486514   4485799   4483233  
  4320.000000   4478916   4473212   4466630   4459791   4453240  
  4310.000000   4447428   4442579   4438770   4435893   4433796  
  4300.000000   4432281   4431194   4430414   4429861   4429489  
  4290.000000   4429249   4429129   4429098   4429179   4429378  
  4280.000000   4429738   4430280   4431017   4431948   4433035  
  4270.000000   4434252   4435530   4436809   4437968   4438868  
  4260.000000   4439301   4439054   4437906   4435713   4432420  
  4250.000000   4428115   4422996   4417369   4411551   4405864  
  4240.000000   4400530   4395709   4391426   4387663   4384320  
  4230.000000   4381299   4378484   4375778   4373098   4370372  
  4220.000000   4367564   4364639   4361624   4358542   4355484  
  4210.000000   4352521   4349764   4347274   4345122   4343310  
  4200.000000   4341840   4340658   4339728   4338981   4338392  
  4190.000000   4337911   4337542   4337254   4337075   4336978  
  4180.000000   4336999   4337116   4337382   4337794   4338434  
  4170.000000   4339332   4340594   4342261   4344429   4347106  
  4160.000000   4350350   4354115   4358419   4363190   4368437  
  4150.000000   4374095   4380195   4386686   4393616   4400946  
  4140.000000   4408731   4416936   4425620   4434746   4444365  
  4130.000000   4454429   4464969   4475923   4487311   4499076  
  4120.000000   4511245   4523783   4536737   4550088   4563882  
  4110.000000   4578099   4592766   4607840   4623313   4639113  
  4100.000000   4655202   4671494   4687947   4704499   4721136  
  4090.000000   4737843   4754633   4771515   4788493   4805569  
  4080.000000   4822721   4839943   4857195   4874475   4891729  
  4070.000000   4908945   4926039   4942979   4959657   4976041  
  4060.000000   4992022   5007586   5022630   5037150   5051050  
  4050.000000   5064358   5077011   5089099   5100599   5111628  
  4040.000000   5122137   5132190   5141661   5150559   5158731  
  4030.000000   5166200   5172847   5178722   5183728   5187897  
  4020.000000   5191105   5193400   5194754   5195280   5194972  
  4010.000000   5194020   5192532   5190559   5187896   5184605  
  4000.000000   5180989  
##END= 
