##TITLE= Sample 001 By ssteindl date Montag, November 26 2018
##JCAMP-DX= 4.24
##DATA TYPE= INFRARED SPECTRUM
##ORIGIN= Exported PE Spectrum Data File
##OWNER= Sandra Steindl
##DATE= 18/11/26
##TIME= 13:28:37.00
##SPECTROMETER/DATA SYSTEM= PERKIN-ELMER Frontier FT-IR/NIR IR
##INSTRUMENT PARAMETERS=
  APODIZATION=stark
  DETECTOR=INGAAS
##RESOLUTION= 16.000000
##DELTAX= -2.000000
##XUNITS= 1/CM
##YUNITS= A
##XFACTOR= 1.00
##YFACTOR= 0.00000011920928955078
##FIRSTX= 10000.00
##LASTX= 4000.00
##NPOINTS= 3001
##FIRSTY= 0.217087
##MAXY= 0.578629
##MINY= 0.194163
##XYDATA= (X++(Y..Y))
 10000.000000   1821057   1821571   1822681   1824860   1827583  
  9990.000000   1829883   1831364   1832250   1832765   1832914  
  9980.000000   1832598   1831707   1830142   1828070   1826032  
  9970.000000   1824859   1825219   1827343   1830759   1834436  
  9960.000000   1837137   1837958   1836674   1833828   1830400  
  9950.000000   1827334   1825085   1823473   1821907   1819783  
  9940.000000   1816916   1813679   1810806   1808997   1808443  
  9930.000000   1808708   1808899   1808157   1806175   1803400  
  9920.000000   1800878   1799703   1800399   1802596   1805103  
  9910.000000   1806511   1805880   1803282   1799832   1797172  
  9900.000000   1796689   1798770   1802569   1806286   1807962  
  9890.000000   1806266   1801097   1793581   1785566   1778882  
  9880.000000   1774582   1772770   1772750   1773615   1774758  
  9870.000000   1776066   1777821   1780230   1783078   1785549  
  9860.000000   1786490   1784877   1780413   1773742   1766430  
  9850.000000   1760362   1757165   1757599   1761364   1767308  
  9840.000000   1773820   1779476   1783347   1785256   1785577  
  9830.000000   1785037   1784374   1784129   1784550   1785530  
  9820.000000   1786750   1787647   1787652   1786181   1782880  
  9810.000000   1777711   1771055   1763728   1756750   1751191  
  9800.000000   1747804   1746968   1748550   1752105   1756954  
  9790.000000   1762432   1767924   1772951   1777098   1779992  
  9780.000000   1781326   1780863   1778618   1774803   1769951  
  9770.000000   1764667   1759593   1755152   1751515   1748619  
  9760.000000   1746209   1744081   1742084   1740326   1739039  
  9750.000000   1738590   1739301   1741333   1744609   1748693  
  9740.000000   1752913   1756361   1758227   1757885   1755228  
  9730.000000   1750648   1745072   1739720   1735794   1734188  
  9720.000000   1735201   1738545   1743428   1748880   1754022  
  9710.000000   1758290   1761460   1763552   1764648   1764750  
  9700.000000   1763781   1761653   1758461   1754596   1750736  
  9690.000000   1747733   1746249   1746614   1748560   1751431  
  9680.000000   1754320   1756446   1757344   1756919   1755360  
  9670.000000   1752870   1749566   1745333   1740049   1733719  
  9660.000000   1726758   1719985   1714468   1711221   1710782  
  9650.000000   1713104   1717472   1722878   1728312   1733136  
  9640.000000   1737163   1740532   1743439   1745832   1747369  
  9630.000000   1747472   1745733   1742107   1737174   1731885  
  9620.000000   1727342   1724286   1722894   1722703   1722870  
  9610.000000   1722597   1721426   1719522   1717443   1716063  
  9600.000000   1716044   1717808   1721317   1726300   1732382  
  9590.000000   1739150   1746175   1752742   1757880   1760302  
  9580.000000   1758833   1752765   1742309   1728708   1714060  
  9570.000000   1700852   1691276   1686729   1687399   1692422  
  9560.000000   1700104   1708555   1716042   1721370   1723940  
  9550.000000   1723698   1721082   1716813   1711888   1707275  
  9540.000000   1703879   1702196   1702302   1703775   1705871  
  9530.000000   1707824   1709087   1709605   1709725   1710054  
  9520.000000   1711090   1712936   1715219   1717177   1718033  
  9510.000000   1717285   1714974   1711661   1708227   1705595  
  9500.000000   1704412   1704952   1707050   1710267   1713968  
  9490.000000   1717501   1720238   1721681   1721512   1719694  
  9480.000000   1716522   1712594   1708709   1705609   1703774  
  9470.000000   1703195   1703402   1703619   1703097   1701447  
  9460.000000   1698774   1695677   1692941   1691278   1691015  
  9450.000000   1692048   1693928   1696064   1697993   1699464  
  9440.000000   1700490   1701151   1701493   1701390   1700629  
  9430.000000   1699037   1696646   1693761   1690908   1688703  
  9420.000000   1687624   1687916   1689438   1691797   1694418  
  9410.000000   1696738   1698340   1698955   1698532   1697090  
  9400.000000   1694753   1691618   1687811   1683473   1678860  
  9390.000000   1674401   1670691   1668442   1668251   1670492  
  9380.000000   1675042   1681331   1688317   1694769   1699583  
  9370.000000   1702060   1702153   1700315   1697366   1694077  
  9360.000000   1690983   1688206   1685549   1682727   1679623  
  9350.000000   1676523   1673990   1672734   1673161   1675276  
  9340.000000   1678517   1682017   1684825   1686227   1685967  
  9330.000000   1684178   1681347   1677940   1674377   1670836  
  9320.000000   1667425   1664171   1661136   1658430   1656193  
  9310.000000   1654626   1653909   1654282   1655956   1659155  
  9300.000000   1663953   1670167   1677221   1684132   1689751  
  9290.000000   1693026   1693421   1691039   1686655   1681423  
  9280.000000   1676549   1672895   1670790   1670055   1670222  
  9270.000000   1670825   1671530   1672221   1672807   1673215  
  9260.000000   1673247   1672741   1671638   1670139   1668709  
  9250.000000   1667940   1668323   1669933   1672349   1674737  
  9240.000000   1676196   1676093   1674303   1671235   1667658  
  9230.000000   1664390   1661994   1660617   1660038   1659868  
  9220.000000   1659786   1659660   1659540   1659534   1659689  
  9210.000000   1659925   1660078   1659994   1659649   1659169  
  9200.000000   1658816   1658803   1659235   1660020   1660980  
  9190.000000   1661937   1662811   1663675   1664656   1665885  
  9180.000000   1667335   1668869   1670245   1671318   1672079  
  9170.000000   1672683   1673319   1674070   1674825   1675231  
  9160.000000   1674823   1673184   1670151   1665892   1660864  
  9150.000000   1655664   1650873   1646935   1644141   1642625  
  9140.000000   1642409   1643424   1645470   1648195   1651078  
  9130.000000   1653597   1655366   1656314   1656707   1657110  
  9120.000000   1658186   1660374   1663674   1667543   1671129  
  9110.000000   1673470   1673875   1672074   1668348   1663360  
  9100.000000   1657933   1652818   1648516   1645319   1643297  
  9090.000000   1642468   1642765   1644148   1646492   1649599  
  9080.000000   1653116   1656621   1659671   1661848   1662838  
  9070.000000   1662419   1660600   1657537   1653634   1649414  
  9060.000000   1645522   1642552   1640888   1640607   1641398  
  9050.000000   1642742   1644051   1644950   1645349   1645481  
  9040.000000   1645739   1646446   1647679   1649169   1650442  
  9030.000000   1650959   1650410   1648802   1646513   1644118  
  9020.000000   1642182   1641083   1640912   1641538   1642684  
  9010.000000   1644087   1645536   1646905   1648076   1648926  
  9000.000000   1649312   1649145   1648457   1647433   1646381  
  8990.000000   1645596   1645254   1645289   1645433   1645300  
  8980.000000   1644575   1643152   1641185   1639052   1637173  
  8970.000000   1635886   1635302   1635336   1635769   1636388  
  8960.000000   1637090   1637883   1638848   1640003   1641249  
  8950.000000   1642311   1642849   1642546   1641296   1639240  
  8940.000000   1636785   1634471   1632814   1632183   1632669  
  8930.000000   1634125   1636183   1638446   1640580   1642403  
  8920.000000   1643876   1645029   1645905   1646434   1646448  
  8910.000000   1645698   1644017   1641386   1638044   1634480  
  8900.000000   1631351   1629306   1628755   1629806   1632178  
  8890.000000   1635346   1638620   1641391   1643267   1644139  
  8880.000000   1644162   1643602   1642774   1641860   1640947  
  8870.000000   1639966   1638822   1637416   1635748   1633933  
  8860.000000   1632193   1630854   1630233   1630603   1632062  
  8850.000000   1634518   1637663   1641012   1644028   1646229  
  8840.000000   1647369   1647455   1646770   1645727   1644775  
  8830.000000   1644240   1644293   1644919   1646019   1647455  
  8820.000000   1649133   1650983   1652915   1654795   1656418  
  8810.000000   1657603   1658241   1658424   1658424   1658657  
  8800.000000   1659517   1661239   1663791   1666839   1669854  
  8790.000000   1672243   1673556   1673562   1672306   1670043  
  8780.000000   1667158   1664090   1661254   1659033   1657737  
  8770.000000   1657620   1658797   1661234   1664649   1668593  
  8760.000000   1672475   1675752   1678021   1679129   1679194  
  8750.000000   1678512   1677489   1676449   1675604   1674969  
  8740.000000   1674436   1673831   1673000   1671896   1670587  
  8730.000000   1669276   1668218   1667672   1667803   1668632  
  8720.000000   1670016   1671660   1673213   1674347   1674889  
  8710.000000   1674845   1674436   1674001   1673908   1674426  
  8700.000000   1675656   1677508   1679753   1682093   1684257  
  8690.000000   1686063   1687444   1688432   1689125   1689646  
  8680.000000   1690113   1690622   1691229   1691942   1692734  
  8670.000000   1693535   1694276   1694898   1695392   1695788  
  8660.000000   1696143   1696508   1696906   1697316   1697705  
  8650.000000   1698055   1698414   1698905   1699684   1700898  
  8640.000000   1702594   1704712   1707090   1709528   1711871  
  8630.000000   1714039   1716045   1717907   1719588   1720942  
  8620.000000   1721743   1721783   1721004   1719596   1718009  
  8610.000000   1716840   1716636   1717702   1719960   1722981  
  8600.000000   1726084   1728597   1730042   1730303   1729616  
  8590.000000   1728460   1727391   1726845   1727056   1727991  
  8580.000000   1729429   1731023   1732432   1733395   1733785  
  8570.000000   1733657   1733201   1732754   1732679   1733307  
  8560.000000   1734813   1737152   1740058   1743075   1745714  
  8550.000000   1747551   1748370   1748183   1747220   1745827  
  8540.000000   1744376   1743187   1742499   1742452   1743103  
  8530.000000   1744437   1746362   1748711   1751233   1753644  
  8520.000000   1755689   1757205   1758168   1758682   1758955  
  8510.000000   1759196   1759571   1760145   1760919   1761867  
  8500.000000   1762975   1764276   1765798   1767560   1769480  
  8490.000000   1771418   1773176   1774591   1775588   1776191  
  8480.000000   1776522   1776700   1776811   1776830   1776663  
  8470.000000   1776201   1775413   1774396   1773367   1772629  
  8460.000000   1772461   1773057   1774440   1776492   1778982  
  8450.000000   1781639   1784217   1786505   1788372   1789731  
  8440.000000   1790562   1790893   1790818   1790489   1790116  
  8430.000000   1789919   1790088   1790747   1791923   1793551  
  8420.000000   1795457   1797421   1799194   1800561   1801357  
  8410.000000   1801512   1801076   1800208   1799143   1798131  
  8400.000000   1797374   1796982   1796945   1797159   1797470  
  8390.000000   1797750   1797922   1797993   1797996   1797979  
  8380.000000   1797947   1797873   1797701   1797404   1797012  
  8370.000000   1796610   1796318   1796220   1796328   1796557  
  8360.000000   1796752   1796734   1796377   1795656   1794658  
  8350.000000   1793549   1792511   1791698   1791190   1791006  
  8340.000000   1791104   1791418   1791879   1792419   1792985  
  8330.000000   1793508   1793933   1794196   1794261   1794112  
  8320.000000   1793766   1793264   1792674   1792102   1791688  
  8310.000000   1791605   1792006   1792997   1794565   1796572  
  8300.000000   1798729   1800663   1802000   1802469   1801989  
  8290.000000   1800674   1798801   1796712   1794732   1793084  
  8280.000000   1791866   1791070   1790617   1790435   1790445  
  8270.000000   1790615   1790886   1791220   1791553   1791847  
  8260.000000   1792070   1792208   1792255   1792164   1791864  
  8250.000000   1791220   1790105   1788429   1786225   1783666  
  8240.000000   1781038   1778691   1776915   1775906   1775672  
  8230.000000   1776091   1776919   1777895   1778778   1779394  
  8220.000000   1779636   1779436   1778767   1777601   1775958  
  8210.000000   1773877   1771472   1768900   1766366   1764086  
  8200.000000   1762244   1760983   1760350   1760333   1760820  
  8190.000000   1761648   1762592   1763419   1763907   1763905  
  8180.000000   1763359   1762319   1760938   1759400   1757901  
  8170.000000   1756556   1755394   1754331   1753216   1751885  
  8160.000000   1750220   1748218   1745981   1743736   1741745  
  8150.000000   1740270   1739474   1739379   1739839   1740570  
  8140.000000   1741215   1741433   1740988   1739797   1737954  
  8130.000000   1735685   1733294   1731072   1729244   1727914  
  8120.000000   1727076   1726614   1726344   1726050   1725525  
  8110.000000   1724619   1723270   1721532   1719578   1717665  
  8100.000000   1716082   1715059   1714704   1714952   1715583  
  8090.000000   1716282   1716751   1716796   1716390   1715656  
  8080.000000   1714800   1714012   1713396   1712931   1712509  
  8070.000000   1711997   1711317   1710487   1709612   1708840  
  8060.000000   1708280   1707964   1707815   1707694   1707449  
  8050.000000   1706977   1706259   1705351   1704356   1703385  
  8040.000000   1702521   1701823   1701318   1701026   1700948  
  8030.000000   1701067   1701317   1701586   1701726   1701585  
  8020.000000   1701061   1700120   1698830   1697306   1695704  
  8010.000000   1694140   1692695   1691392   1690232   1689228  
  8000.000000   1688413   1687858   1687630   1687782   1688306  
  7990.000000   1689146   1690189   1691299   1692337   1693174  
  7980.000000   1693710   1693856   1693569   1692826   1691675  
  7970.000000   1690211   1688592   1686996   1685596   1684515  
  7960.000000   1683806   1683449   1683365   1683454   1683614  
  7950.000000   1683773   1683881   1683925   1683903   1683839  
  7940.000000   1683771   1683750   1683835   1684061   1684429  
  7930.000000   1684870   1685265   1685452   1685281   1684661  
  7920.000000   1683598   1682203   1680672   1679239   1678109  
  7910.000000   1677417   1677194   1677381   1677844   1678427  
  7900.000000   1678985   1679416   1679666   1679727   1679624  
  7890.000000   1679395   1679091   1678753   1678431   1678165  
  7880.000000   1677995   1677947   1678030   1678228   1678501  
  7870.000000   1678789   1679020   1679141   1679120   1678978  
  7860.000000   1678772   1678598   1678547   1678688   1679039  
  7850.000000   1679556   1680147   1680695   1681089   1681252  
  7840.000000   1681150   1680793   1680216   1679471   1678612  
  7830.000000   1677697   1676794   1675978   1675330   1674925  
  7820.000000   1674800   1674948   1675300   1675747   1676159  
  7810.000000   1676426   1676483   1676324   1675996   1675581  
  7800.000000   1675168   1674825   1674591   1674474   1674459  
  7790.000000   1674519   1674618   1674717   1674760   1674695  
  7780.000000   1674464   1674040   1673420   1672652   1671810  
  7770.000000   1670980   1670228   1669582   1669018   1668480  
  7760.000000   1667901   1667240   1666488   1665687   1664892  
  7750.000000   1664153   1663483   1662850   1662195   1661449  
  7740.000000   1660580   1659590   1658533   1657477   1656479  
  7730.000000   1655558   1654697   1653861   1653032   1652240  
  7720.000000   1651570   1651139   1651048   1651330   1651920  
  7710.000000   1652658   1653333   1653746   1653782   1653436  
  7700.000000   1652820   1652108   1651483   1651070   1650905  
  7690.000000   1650944   1651083   1651218   1651275   1651230  
  7680.000000   1651096   1650906   1650674   1650392   1650028  
  7670.000000   1649548   1648939   1648215   1647428   1646643  
  7660.000000   1645929   1645339   1644900   1644622   1644495  
  7650.000000   1644500   1644613   1644795   1645003   1645186  
  7640.000000   1645299   1645306   1645199   1644993   1644732  
  7630.000000   1644472   1644277   1644202   1644291   1644563  
  7620.000000   1645017   1645619   1646307   1646991   1647569  
  7610.000000   1647948   1648072   1647940   1647612   1647190  
  7600.000000   1646788   1646496   1646354   1646350   1646433  
  7590.000000   1646547   1646653   1646758   1646897   1647120  
  7580.000000   1647455   1647892   1648378   1648832   1649178  
  7570.000000   1649363   1649381   1649254   1649030   1648752  
  7560.000000   1648457   1648169   1647915   1647732   1647669  
  7550.000000   1647769   1648061   1648533   1649140   1649810  
  7540.000000   1650480   1651108   1651700   1652288   1652919  
  7530.000000   1653620   1654390   1655186   1655962   1656675  
  7520.000000   1657326   1657940   1658572   1659252   1659979  
  7510.000000   1660703   1661356   1661872   1662239   1662500  
  7500.000000   1662763   1663149   1663761   1664640   1665762  
  7490.000000   1667044   1668390   1669722   1671006   1672253  
  7480.000000   1673507   1674812   1676196   1677651   1679147  
  7470.000000   1680637   1682075   1683423   1684660   1685777  
  7460.000000   1686783   1687700   1688572   1689456   1690406  
  7450.000000   1691460   1692623   1693866   1695137   1696384  
  7440.000000   1697591   1698775   1699995   1701306   1702738  
  7430.000000   1704259   1705787   1707216   1708479   1709586  
  7420.000000   1710643   1711824   1713311   1715214   1717515  
  7410.000000   1720068   1722642   1725003   1727003   1728618  
  7400.000000   1729964   1731227   1732592   1734162   1735928  
  7390.000000   1737788   1739595   1741229   1742641   1743881  
  7380.000000   1745063   1746327   1747776   1749454   1751325  
  7370.000000   1753301   1755263   1757091   1758691   1760002  
  7360.000000   1761010   1761748   1762302   1762794   1763364  
  7350.000000   1764142   1765216   1766612   1768278   1770116  
  7340.000000   1772006   1773855   1775607   1777251   1778801  
  7330.000000   1780274   1781674   1782991   1784222   1785377  
  7320.000000   1786500   1787653   1788895   1790264   1791746  
  7310.000000   1793283   1794788   1796178   1797399   1798448  
  7300.000000   1799354   1800176   1800964   1801760   1802579  
  7290.000000   1803437   1804340   1805301   1806323   1807396  
  7280.000000   1808479   1809515   1810430   1811169   1811713  
  7270.000000   1812084   1812340   1812553   1812786   1813075  
  7260.000000   1813433   1813851   1814331   1814884   1815541  
  7250.000000   1816339   1817305   1818440   1819725   1821114  
  7240.000000   1822575   1824070   1825593   1827132   1828685  
  7230.000000   1830223   1831726   1833162   1834541   1835897  
  7220.000000   1837314   1838881   1840692   1842789   1845175  
  7210.000000   1847788   1850545   1853343   1856108   1858787  
  7200.000000   1861379   1863896   1866378   1868857   1871380  
  7190.000000   1873980   1876704   1879577   1882619   1885809  
  7180.000000   1889099   1892407   1895648   1898747   1901677  
  7170.000000   1904450   1907138   1909821   1912594   1915497  
  7160.000000   1918543   1921683   1924865   1928034   1931186  
  7150.000000   1934350   1937611   1941058   1944779   1948807  
  7140.000000   1953129   1957662   1962313   1966968   1971565  
  7130.000000   1976060   1980471   1984815   1989144   1993486  
  7120.000000   1997884   2002360   2006964   2011727   2016698  
  7110.000000   2021890   2027302   2032882   2038566   2044268  
  7100.000000   2049939   2055551   2061136   2066740   2072430  
  7090.000000   2078232   2084151   2090142   2096156   2102140  
  7080.000000   2108082   2113993   2119917   2125895   2131957  
  7070.000000   2138097   2144287   2150476   2156618   2162673  
  7060.000000   2168626   2174469   2180209   2185857   2191439  
  7050.000000   2196988   2202550   2208176   2213902   2219743  
  7040.000000   2225683   2231688   2237710   2243722   2249711  
  7030.000000   2255692   2261687   2267707   2273731   2279715  
  7020.000000   2285586   2291280   2296750   2301986   2307007  
  7010.000000   2311861   2316593   2321258   2325890   2330535  
  7000.000000   2335216   2339964   2344767   2349600   2354386  
  6990.000000   2359037   2363448   2367554   2371325   2374797  
  6980.000000   2378034   2381131   2384160   2387185   2390225  
  6970.000000   2393298   2396401   2399545   2402718   2405919  
  6960.000000   2409105   2412239   2415262   2418143   2420860  
  6950.000000   2423438   2425901   2428291   2430620   2432901  
  6940.000000   2435118   2437272   2439360   2441397   2443378  
  6930.000000   2445292   2447081   2448684   2450035   2451119  
  6920.000000   2451968   2452683   2453387   2454204   2455193  
  6910.000000   2456353   2457614   2458882   2460069   2461133  
  6900.000000   2462077   2462952   2463816   2464721   2465691  
  6890.000000   2466734   2467846   2469027   2470280   2471602  
  6880.000000   2472976   2474361   2475695   2476914   2477965  
  6870.000000   2478832   2479534   2480118   2480643   2481162  
  6860.000000   2481707   2482299   2482936   2483615   2484317  
  6850.000000   2485026   2485714   2486356   2486926   2487422  
  6840.000000   2487855   2488257   2488659   2489082   2489521  
  6830.000000   2489945   2490312   2490589   2490767   2490869  
  6820.000000   2490937   2491023   2491156   2491349   2491583  
  6810.000000   2491841   2492105   2492382   2492683   2493026  
  6800.000000   2493403   2493794   2494149   2494422   2494574  
  6790.000000   2494594   2494488   2494280   2493989   2493631  
  6780.000000   2493213   2492745   2492248   2491757   2491309  
  6770.000000   2490933   2490629   2490381   2490150   2489912  
  6760.000000   2489660   2489423   2489243   2489164   2489198  
  6750.000000   2489318   2489458   2489533   2489470   2489229  
  6740.000000   2488816   2488275   2487671   2487075   2486537  
  6730.000000   2486095   2485755   2485511   2485333   2485180  
  6720.000000   2485000   2484743   2484372   2483879   2483284  
  6710.000000   2482636   2481981   2481352   2480746   2480135  
  6700.000000   2479472   2478729   2477908   2477059   2476248  
  6690.000000   2475545   2474972   2474508   2474072   2473566  
  6680.000000   2472904   2472043   2470996   2469824   2468608  
  6670.000000   2467419   2466296   2465247   2464246   2463268  
  6660.000000   2462285   2461290   2460287   2459287   2458300  
  6650.000000   2457332   2456378   2455428   2454459   2453446  
  6640.000000   2452359   2451173   2449877   2448490   2447051  
  6630.000000   2445627   2444276   2443038   2441908   2440839  
  6620.000000   2439745   2438537   2437146   2435552   2433787  
  6610.000000   2431925   2430059   2428275   2426627   2425139  
  6600.000000   2423797   2422568   2421409   2420276   2419129  
  6590.000000   2417932   2416658   2415290   2413823   2412268  
  6580.000000   2410650   2409007   2407384   2405822   2404360  
  6570.000000   2403019   2401804   2400699   2399668   2398662  
  6560.000000   2397629   2396524   2395328   2394044   2392699  
  6550.000000   2391326   2389958   2388604   2387256   2385895  
  6540.000000   2384512   2383117   2381749   2380464   2379314  
  6530.000000   2378325   2377482   2376724   2375971   2375139  
  6520.000000   2374173   2373057   2371817   2370505   2369187  
  6510.000000   2367917   2366735   2365657   2364682   2363790  
  6500.000000   2362948   2362118   2361262   2360356   2359403  
  6490.000000   2358433   2357499   2356655   2355938   2355342  
  6480.000000   2354817   2354281   2353653   2352877   2351949  
  6470.000000   2350914   2349851   2348839   2347927   2347127  
  6460.000000   2346412   2345741   2345073   2344392   2343696  
  6450.000000   2342995   2342293   2341578   2340824   2339999  
  6440.000000   2339081   2338067   2336976   2335838   2334695  
  6430.000000   2333585   2332549   2331623   2330844   2330241  
  6420.000000   2329824   2329571   2329431   2329326   2329176  
  6410.000000   2328918   2328535   2328049   2327519   2327012  
  6400.000000   2326584   2326256   2326024   2325859   2325730  
  6390.000000   2325609   2325481   2325334   2325159   2324941  
  6380.000000   2324670   2324343   2323974   2323593   2323235  
  6370.000000   2322925   2322661   2322414   2322135   2321778  
  6360.000000   2321319   2320768   2320166   2319571   2319028  
  6350.000000   2318562   2318162   2317794   2317412   2316982  
  6340.000000   2316480   2315905   2315268   2314586   2313879  
  6330.000000   2313168   2312470   2311804   2311178   2310595  
  6320.000000   2310034   2309469   2308865   2308199   2307465  
  6310.000000   2306683   2305881   2305095   2304334   2303593  
  6300.000000   2302835   2302023   2301118   2300107   2298996  
  6290.000000   2297813   2296584   2295340   2294092   2292848  
  6280.000000   2291602   2290357   2289107   2287854   2286587  
  6270.000000   2285300   2283973   2282595   2281151   2279636  
  6260.000000   2278049   2276394   2274675   2272900   2271080  
  6250.000000   2269238   2267398   2265596   2263853   2262184  
  6240.000000   2260581   2259028   2257497   2255972   2254443  
  6230.000000   2252917   2251398   2249888   2248379   2246853  
  6220.000000   2245296   2243698   2242070   2240431   2238801  
  6210.000000   2237193   2235600   2234003   2232385   2230744  
  6200.000000   2229104   2227514   2226025   2224676   2223467  
  6190.000000   2222361   2221291   2220185   2218993   2217699  
  6180.000000   2216324   2214908   2213496   2212115   2210773  
  6170.000000   2209457   2208156   2206862   2205579   2204317  
  6160.000000   2203086   2201887   2200705   2199521   2198315  
  6150.000000   2197074   2195795   2194482   2193142   2191779  
  6140.000000   2190398   2189005   2187611   2186237   2184904  
  6130.000000   2183630   2182418   2181258   2180128   2179003  
  6120.000000   2177874   2176744   2175635   2174573   2173585  
  6110.000000   2172678   2171847   2171069   2170322   2169585  
  6100.000000   2168854   2168127   2167419   2166737   2166092  
  6090.000000   2165487   2164928   2164414   2163951   2163533  
  6080.000000   2163159   2162813   2162484   2162153   2161817  
  6070.000000   2161472   2161136   2160824   2160566   2160380  
  6060.000000   2160298   2160331   2160502   2160809   2161259  
  6050.000000   2161829   2162503   2163242   2164027   2164830  
  6040.000000   2165656   2166509   2167420   2168405   2169493  
  6030.000000   2170688   2171998   2173410   2174920   2176508  
  6020.000000   2178166   2179866   2181591   2183307   2185000  
  6010.000000   2186653   2188274   2189873   2191479   2193107  
  6000.000000   2194781   2196498   2198266   2200075   2201938  
  5990.000000   2203858   2205856   2207941   2210127   2212406  
  5980.000000   2214775   2217220   2219739   2222325   2224988  
  5970.000000   2227725   2230541   2233422   2236362   2239338  
  5960.000000   2242345   2245364   2248396   2251424   2254445  
  5950.000000   2257444   2260427   2263398   2266387   2269431  
  5940.000000   2272573   2275846   2279267   2282827   2286496  
  5930.000000   2290234   2293996   2297743   2301444   2305077  
  5920.000000   2308621   2312054   2315357   2318511   2321509  
  5910.000000   2324354   2327058   2329645   2332138   2334570  
  5900.000000   2336967   2339369   2341805   2344312   2346902  
  5890.000000   2349581   2352325   2355103   2357875   2360614  
  5880.000000   2363306   2365952   2368556   2371117   2373613  
  5870.000000   2376010   2378265   2380352   2382275   2384074  
  5860.000000   2385818   2387582   2389427   2391385   2393448  
  5850.000000   2395587   2397760   2399938   2402108   2404276  
  5840.000000   2406458   2408669   2410919   2413209   2415539  
  5830.000000   2417906   2420312   2422751   2425210   2427664  
  5820.000000   2430079   2432420   2434662   2436800   2438847  
  5810.000000   2440834   2442781   2444717   2446635   2448537  
  5800.000000   2450397   2452221   2453991   2455731   2457427  
  5790.000000   2459088   2460667   2462129   2463385   2464369  
  5780.000000   2464983   2465166   2464855   2464038   2462725  
  5770.000000   2460980   2458886   2456569   2454137   2451708  
  5760.000000   2449352   2447129   2445054   2443145   2441399  
  5750.000000   2439830   2438437   2437220   2436160   2435221  
  5740.000000   2434360   2433528   2432698   2431846   2430984  
  5730.000000   2430119   2429278   2428470   2427716   2427020  
  5720.000000   2426396   2425847   2425382   2424993   2424671  
  5710.000000   2424393   2424140   2423899   2423670   2423465  
  5700.000000   2423298   2423180   2423110   2423076   2423058  
  5690.000000   2423044   2423027   2423016   2423011   2423013  
  5680.000000   2422992   2422915   2422724   2422381   2421852  
  5670.000000   2421137   2420240   2419182   2417971   2416613  
  5660.000000   2415104   2413456   2411691   2409858   2408012  
  5650.000000   2406211   2404491   2402868   2401333   2399869  
  5640.000000   2398458   2397094   2395774   2394502   2393275  
  5630.000000   2392082   2390911   2389752   2388609   2387493  
  5620.000000   2386425   2385410   2384447   2383509   2382570  
  5610.000000   2381607   2380621   2379636   2378690   2377821  
  5600.000000   2377046   2376354   2375706   2375054   2374358  
  5590.000000   2373598   2372778   2371919   2371043   2370166  
  5580.000000   2369287   2368400   2367495   2366567   2365619  
  5570.000000   2364652   2363664   2362646   2361585   2360477  
  5560.000000   2359328   2358163   2357013   2355908   2354859  
  5550.000000   2353854   2352864   2351857   2350809   2349718  
  5540.000000   2348599   2347479   2346377   2345298   2344231  
  5530.000000   2343160   2342073   2340974   2339881   2338819  
  5520.000000   2337804   2336840   2335904   2334966   2333991  
  5510.000000   2332959   2331862   2330710   2329519   2328309  
  5500.000000   2327094   2325888   2324700   2323541   2322413  
  5490.000000   2321311   2320212   2319090   2317909   2316646  
  5480.000000   2315293   2313865   2312385   2310883   2309371  
  5470.000000   2307852   2306310   2304731   2303105   2301443  
  5460.000000   2299755   2298061   2296362   2294650   2292903  
  5450.000000   2291102   2289242   2287334   2285408   2283493  
  5440.000000   2281615   2279782   2278000   2276267   2274593  
  5430.000000   2272992   2271481   2270055   2268698   2267363  
  5420.000000   2266017   2264630   2263221   2261832   2260544  
  5410.000000   2259414   2258486   2257739   2257139   2256621  
  5400.000000   2256157   2255725   2255356   2255069   2254900  
  5390.000000   2254844   2254896   2255025   2255234   2255526  
  5380.000000   2255951   2256541   2257339   2258327   2259491  
  5370.000000   2260762   2262113   2263497   2264940   2266444  
  5360.000000   2268069   2269823   2271758   2273866   2276199  
  5350.000000   2278757   2281616   2284788   2288350   2292291  
  5340.000000   2296661   2301419   2306607   2312181   2318187  
  5330.000000   2324572   2331369   2338503   2346001   2353803  
  5320.000000   2361985   2370540   2379608   2389207   2399477  
  5310.000000   2410399   2422057   2434375   2447400   2461053  
  5300.000000   2475397   2490383   2506110   2522557   2539835  
  5290.000000   2557912   2576855   2596572   2617041   2638106  
  5280.000000   2659719   2681763   2704275   2727256   2750835  
  5270.000000   2775046   2799937   2825399   2851284   2877361  
  5260.000000   2903441   2929406   2955240   2981010   3006788  
  5250.000000   3032617   3058409   3084026   3109207   3133785  
  5240.000000   3157574   3180599   3202869   3224566   3245753  
  5230.000000   3266567   3286941   3306857   3326112   3344627  
  5220.000000   3362229   3378954   3394771   3409856   3424265  
  5210.000000   3438185   3451603   3464579   3476959   3488702  
  5200.000000   3499633   3509777   3519076   3527669   3535573  
  5190.000000   3542931   3549707   3555963   3561600   3566653  
  5180.000000   3571045   3574858   3578069   3580781   3582963  
  5170.000000   3584678   3585868   3586581   3586769   3586505  
  5160.000000   3585771   3584643   3583098   3581189   3578882  
  5150.000000   3576233   3573231   3569953   3566402   3562640  
  5140.000000   3558639   3554422   3549942   3545222   3540251  
  5130.000000   3535085   3529751   3524310   3518771   3513157  
  5120.000000   3507445   3501638   3495723   3489724   3483660  
  5110.000000   3477571   3471478   3465410   3459372   3453378  
  5100.000000   3447433   3441556   3435755   3430043   3424419  
  5090.000000   3418871   3413377   3407915   3402463   3397011  
  5080.000000   3391550   3386083   3380607   3375126   3369635  
  5070.000000   3364140   3358639   3353140   3347639   3342136  
  5060.000000   3336613   3331057   3325440   3319751   3313974  
  5050.000000   3308114   3302172   3296163   3290089   3283955  
  5040.000000   3277758   3271501   3265182   3258813   3252403  
  5030.000000   3245971   3239530   3233096   3226681   3220299  
  5020.000000   3213964   3207693   3201508   3195420   3189447  
  5010.000000   3183585   3177842   3172201   3166668   3161232  
  5000.000000   3155916   3150723   3145694   3140839   3136199  
  4990.000000   3131771   3127586   3123622   3119899   3116391  
  4980.000000   3113120   3110065   3107261   3104692   3102404  
  4970.000000   3100384   3098678   3097266   3096189   3095418  
  4960.000000   3094989   3094869   3095092   3095628   3096515  
  4950.000000   3097721   3099284   3101166   3103397   3105937  
  4940.000000   3108815   3111994   3115510   3119332   3123498  
  4930.000000   3127974   3132795   3137921   3143380   3149134  
  4920.000000   3155208   3161570   3168245   3175203   3182464  
  4910.000000   3189997   3197815   3205882   3214200   3222731  
  4900.000000   3231464   3240361   3249401   3258552   3267790  
  4890.000000   3277085   3286401   3295700   3304926   3314034  
  4880.000000   3322963   3331683   3340145   3348345   3356246  
  4870.000000   3363849   3371106   3378009   3384502   3390584  
  4860.000000   3396220   3401445   3406257   3410721   3414851  
  4850.000000   3418713   3422313   3425702   3428880   3431887  
  4840.000000   3434719   3437415   3439974   3442436   3444808  
  4830.000000   3447132   3449424   3451718   3454019   3456339  
  4820.000000   3458661   3460972   3463249   3465481   3467661  
  4810.000000   3469796   3471894   3473965   3476011   3478031  
  4800.000000   3480018   3481971   3483887   3485778   3487649  
  4790.000000   3489514   3491373   3493231   3495080   3496924  
  4780.000000   3498759   3500597   3502435   3504276   3506103  
  4770.000000   3507898   3509630   3511278   3512821   3514259  
  4760.000000   3515590   3516829   3517973   3519032   3519992  
  4750.000000   3520854   3521605   3522254   3522795   3523244  
  4740.000000   3523594   3523854   3524009   3524064   3524007  
  4730.000000   3523851   3523595   3523256   3522834   3522338  
  4720.000000   3521765   3521118   3520404   3519639   3518848  
  4710.000000   3518063   3517320   3516645   3516066   3515593  
  4700.000000   3515236   3514996   3514874   3514865   3514973  
  4690.000000   3515196   3515539   3516000   3516582   3517270  
  4680.000000   3518049   3518880   3519725   3520531   3521264  
  4670.000000   3521886   3522402   3522817   3523175   3523508  
  4660.000000   3523869   3524292   3524818   3525473   3526293  
  4650.000000   3527300   3528523   3529972   3531650   3533534  
  4640.000000   3535596   3537790   3540078   3542420   3544792  
  4630.000000   3547169   3549534   3551864   3554136   3556322  
  4620.000000   3558397   3560342   3562142   3563793   3565287  
  4610.000000   3566627   3567808   3568843   3569734   3570512  
  4600.000000   3571195   3571820   3572399   3572954   3573472  
  4590.000000   3573952   3574365   3574704   3574943   3575078  
  4580.000000   3575087   3574964   3574685   3574249   3573643  
  4570.000000   3572889   3572001   3571021   3569976   3568898  
  4560.000000   3567792   3566659   3565478   3564240   3562927  
  4550.000000   3561544   3560099   3558615   3557112   3555613  
  4540.000000   3554138   3552699   3551315   3549991   3548742  
  4530.000000   3547561   3546457   3545413   3544440   3543524  
  4520.000000   3542698   3541964   3541372   3540924   3540671  
  4510.000000   3540599   3540757   3541128   3541784   3542731  
  4500.000000   3544069   3545818   3548078   3550850   3554212  
  4490.000000   3558137   3562689   3567842   3573666   3580138  
  4480.000000   3587323   3595178   3603735   3612919   3622728  
  4470.000000   3633068   3643927   3655211   3666911   3678940  
  4460.000000   3691287   3703871   3716676   3729627   3742708  
  4450.000000   3755860   3769069   3782299   3795547   3808802  
  4440.000000   3822065   3835344   3848633   3861940   3875237  
  4430.000000   3888523   3901744   3914888   3927877   3940692  
  4420.000000   3953234   3965478   3977316   3988720   3999584  
  4410.000000   4009884   4019523   4028492   4036710   4044189  
  4400.000000   4050882   4056842   4062068   4066659   4070664  
  4390.000000   4074215   4077394   4080342   4083143   4085917  
  4380.000000   4088717   4091617   4094632   4097796   4101105  
  4370.000000   4104581   4108234   4112090   4116169   4120487  
  4360.000000   4125048   4129845   4134846   4140028   4145326  
  4350.000000   4150714   4156109   4161498   4166809   4172064  
  4340.000000   4177218   4182306   4187257   4191999   4196301  
  4330.000000   4199875   4202305   4203207   4202242   4199291  
  4320.000000   4194455   4188127   4180864   4173351   4166186  
  4310.000000   4159862   4154610   4150497   4147383   4145084  
  4300.000000   4143376   4142096   4141131   4140414   4139916  
  4290.000000   4139591   4139425   4139368   4139425   4139583  
  4280.000000   4139877   4140327   4140959   4141785   4142791  
  4270.000000   4143966   4145259   4146621   4147937   4149064  
  4260.000000   4149782   4149855   4149034   4147143   4144102  
  4250.000000   4139983   4134977   4129397   4123576   4117858  
  4240.000000   4112491   4107654   4103393   4099697   4096467  
  4230.000000   4093595   4090947   4088407   4085873   4083265  
  4220.000000   4080552   4077718   4074815   4071889   4069043  
  4210.000000   4066342   4063881   4061692   4059819   4058249  
  4200.000000   4056983   4055974   4055201   4054602   4054150  
  4190.000000   4053783   4053491   4053234   4053040   4052902  
  4180.000000   4052883   4052990   4053289   4053780   4054522  
  4170.000000   4055513   4056824   4058471   4060539   4063042  
  4160.000000   4066048   4069536   4073529   4077966   4082851  
  4150.000000   4088115   4093776   4099783   4106180   4112926  
  4140.000000   4120075   4127588   4135518   4143828   4152566  
  4130.000000   4161691   4171245   4181180   4191526   4202240  
  4120.000000   4213354   4224840   4236745   4249057   4261827  
  4110.000000   4275046   4288749   4302906   4317515   4332504  
  4100.000000   4347833   4363405   4379160   4395015   4410934  
  4090.000000   4426874   4442830   4458794   4474771   4490774  
  4080.000000   4506806   4522894   4539034   4555252   4571508  
  4070.000000   4587784   4603976   4620016   4635762   4651155  
  4060.000000   4666082   4680545   4694480   4707928   4720837  
  4050.000000   4733258   4745137   4756536   4767402   4777805  
  4040.000000   4787664   4797016   4805737   4813835   4821186  
  4030.000000   4827828   4833680   4838815   4843178   4846830  
  4020.000000   4849686   4851806   4853173   4853879   4853894  
  4010.000000   4853363   4852360   4850905   4848788   4846061  
  4000.000000   4843021  
##END= 
