##TITLE= Sample 011 By ssteindl date Montag, November 26 2018
##JCAMP-DX= 4.24
##DATA TYPE= INFRARED SPECTRUM
##ORIGIN= Exported PE Spectrum Data File
##OWNER= Sandra Steindl
##DATE= 18/11/26
##TIME= 13:39:30.00
##SPECTROMETER/DATA SYSTEM= PERKIN-ELMER Frontier FT-IR/NIR IR
##INSTRUMENT PARAMETERS=
  APODIZATION=stark
  DETECTOR=INGAAS
##RESOLUTION= 16.000000
##DELTAX= -2.000000
##XUNITS= 1/CM
##YUNITS= A
##XFACTOR= 1.00
##YFACTOR= 0.00000011920928955078
##FIRSTX= 10000.00
##LASTX= 4000.00
##NPOINTS= 3001
##FIRSTY= 0.225876
##MAXY= 0.586850
##MINY= 0.201389
##XYDATA= (X++(Y..Y))
 10000.000000   1894783   1888611   1882768   1877605   1873021  
  9990.000000   1868259   1862545   1855559   1847864   1840632  
  9980.000000   1835213   1832436   1832392   1834360   1837321  
  9970.000000   1840335   1842979   1845311   1847631   1850129  
  9960.000000   1852685   1854933   1856547   1857535   1858377  
  9950.000000   1859815   1862469   1866368   1870770   1874312  
  9940.000000   1875505   1873370   1867868   1859965   1851268  
  9930.000000   1843387   1837434   1833710   1831845   1831109  
  9920.000000   1830770   1830355   1829648   1828677   1827572  
  9910.000000   1826596   1826149   1826772   1829050   1833342  
  9900.000000   1839562   1846947   1854192   1859745   1862352  
  9890.000000   1861564   1857939   1852961   1848437   1845880  
  9880.000000   1845924   1848161   1851441   1854324   1855664  
  9870.000000   1854816   1851704   1846584   1839879   1832081  
  9860.000000   1823797   1815864   1809341   1805375   1804875  
  9850.000000   1808209   1814944   1823934   1833550   1842224  
  9840.000000   1848850   1853066   1855199   1855917   1855920  
  9830.000000   1855578   1854975   1853926   1852284   1850013  
  9820.000000   1847294   1844419   1841634   1839116   1836840  
  9810.000000   1834818   1832992   1831487   1830413   1829945  
  9800.000000   1830143   1830990   1832346   1833991   1835621  
  9790.000000   1836853   1837235   1836284   1833609   1829036  
  9780.000000   1822781   1815479   1808109   1801726   1797135  
  9770.000000   1794604   1793809   1793946   1794101   1793522  
  9760.000000   1791929   1789447   1786565   1783794   1781563  
  9750.000000   1780054   1779326   1779409   1780443   1782680  
  9740.000000   1786381   1791669   1798395   1806127   1814216  
  9730.000000   1821931   1828579   1833574   1836508   1837126  
  9720.000000   1835433   1831679   1826449   1820598   1815113  
  9710.000000   1810906   1808492   1807909   1808616   1809809  
  9700.000000   1810634   1810600   1809650   1808192   1806777  
  9690.000000   1805879   1805605   1805728   1805816   1805489  
  9680.000000   1804659   1803530   1802568   1802150   1802446  
  9670.000000   1803161   1803720   1803357   1801505   1797928  
  9660.000000   1792907   1787158   1781690   1777612   1775870  
  9650.000000   1777127   1781558   1788864   1798260   1808629  
  9640.000000   1818705   1827299   1833496   1836798   1837184  
  9630.000000   1835054   1831154   1826374   1821640   1817716  
  9620.000000   1815123   1814059   1814324   1815425   1816545  
  9610.000000   1816906   1815821   1813124   1809108   1804594  
  9600.000000   1800591   1797985   1797225   1798108   1799911  
  9590.000000   1801535   1801954   1800431   1796794   1791384  
  9580.000000   1784969   1778492   1772859   1768782   1766692  
  9570.000000   1766747   1768823   1772542   1777297   1782344  
  9560.000000   1786938   1790507   1792763   1793724   1793646  
  9550.000000   1792855   1791664   1790249   1788743   1787231  
  9540.000000   1785861   1784815   1784241   1784173   1784405  
  9530.000000   1784569   1784192   1782989   1780975   1778588  
  9520.000000   1776474   1775278   1775297   1776389   1778001  
  9510.000000   1779430   1780105   1779774   1778558   1776749  
  9500.000000   1774659   1772353   1769714   1766460   1762434  
  9490.000000   1757716   1752725   1748095   1744478   1742348  
  9480.000000   1741890   1743041   1745590   1749310   1753965  
  9470.000000   1759264   1764719   1769649   1773297   1775086  
  9460.000000   1774944   1773357   1771342   1769981   1770072  
  9450.000000   1771690   1774158   1776272   1776744   1774815  
  9440.000000   1770524   1764875   1759401   1755728   1754916  
  9430.000000   1757195   1761905   1767778   1773343   1777275  
  9420.000000   1778698   1777274   1773242   1767303   1760481  
  9410.000000   1753929   1748734   1745686   1745138   1746873  
  9400.000000   1750184   1754012   1757276   1759177   1759432  
  9390.000000   1758297   1756415   1754518   1753188   1752702  
  9380.000000   1753046   1754039   1755458   1757213   1759340  
  9370.000000   1762007   1765312   1769185   1773274   1776990  
  9360.000000   1779633   1780520   1779198   1775491   1769669  
  9350.000000   1762357   1754511   1747195   1741373   1737712  
  9340.000000   1736408   1737219   1739514   1742559   1745680  
  9330.000000   1748519   1750986   1753241   1755451   1757688  
  9320.000000   1759864   1761750   1763147   1763912   1764102  
  9310.000000   1763830   1763227   1762285   1760849   1758680  
  9300.000000   1755601   1751680   1747286   1743058   1739667  
  9290.000000   1737616   1737016   1737611   1738840   1740104  
  9280.000000   1740951   1741246   1741161   1741017   1741110  
  9270.000000   1741530   1742178   1742766   1742997   1742639  
  9260.000000   1741662   1740209   1738559   1737032   1735892  
  9250.000000   1735345   1735483   1736324   1737758   1739581  
  9240.000000   1741478   1743092   1744077   1744198   1743388  
  9230.000000   1741786   1739701   1737497   1735497   1733865  
  9220.000000   1732625   1731640   1730722   1729679   1728417  
  9210.000000   1726959   1725417   1723958   1722726   1721868  
  9200.000000   1721500   1721735   1722645   1724256   1726516  
  9190.000000   1729264   1732209   1734944   1737019   1738046  
  9180.000000   1737831   1736396   1734019   1731132   1728249  
  9170.000000   1725783   1723959   1722765   1722026   1721493  
  9160.000000   1720964   1720365   1719762   1719333   1719233  
  9150.000000   1719543   1720177   1720989   1721822   1722644  
  9140.000000   1723552   1724761   1726493   1728821   1731564  
  9130.000000   1734240   1736204   1736803   1735625   1732583  
  9120.000000   1728005   1722538   1717020   1712251   1708799  
  9110.000000   1706941   1706638   1707638   1709503   1711791  
  9100.000000   1714089   1716140   1717769   1718956   1719753  
  9090.000000   1720270   1720622   1720866   1721041   1721073  
  9080.000000   1720857   1720219   1718996   1717049   1714293  
  9070.000000   1710794   1706764   1702623   1698886   1696124  
  9060.000000   1694784   1695056   1696745   1699296   1701943  
  9050.000000   1703868   1704473   1703506   1701195   1698077  
  9040.000000   1694855   1692115   1690256   1689375   1689378  
  9030.000000   1690058   1691247   1692869   1694898   1697309  
  9020.000000   1699961   1702632   1705034   1706941   1708279  
  9010.000000   1709148   1709798   1710465   1711269   1712114  
  9000.000000   1712721   1712758   1711969   1710336   1708099  
  8990.000000   1705717   1703720   1702537   1702356   1703065  
  8980.000000   1704289   1705519   1706235   1706084   1704941  
  8970.000000   1703009   1700752   1698821   1697857   1698344  
  8960.000000   1700452   1703940   1708176   1712268   1715297  
  8950.000000   1716546   1715691   1712878   1708705   1704030  
  8940.000000   1699779   1696662   1695055   1694897   1695771  
  8930.000000   1697029   1697978   1698112   1697239   1695579  
  8920.000000   1693692   1692315   1692131   1693525   1696445  
  8910.000000   1700351   1704399   1707673   1709528   1709786  
  8900.000000   1708786   1707254   1706013   1705717   1706620  
  8890.000000   1708528   1710910   1713109   1714590   1715067  
  8880.000000   1714536   1713195   1711322   1709202   1707070  
  8870.000000   1705145   1703635   1702752   1702657   1703392  
  8860.000000   1704816   1706625   1708433   1709908   1710871  
  8850.000000   1711345   1711509   1711586   1711742   1711991  
  8840.000000   1712252   1712388   1712353   1712213   1712153  
  8830.000000   1712362   1712938   1713811   1714748   1715469  
  8820.000000   1715761   1715608   1715205   1714904   1715081  
  8810.000000   1715980   1717616   1719764   1722032   1723995  
  8800.000000   1725306   1725791   1725475   1724565   1723400  
  8790.000000   1722348   1721730   1721719   1722303   1723279  
  8780.000000   1724306   1725018   1725148   1724641   1723689  
  8770.000000   1722682   1722079   1722239   1723301   1725115  
  8760.000000   1727330   1729489   1731210   1732282   1732719  
  8750.000000   1732714   1732557   1732547   1732915   1733799  
  8740.000000   1735231   1737155   1739423   1741817   1744064  
  8730.000000   1745883   1747061   1747516   1747341   1746759  
  8720.000000   1746048   1745432   1745009   1744746   1744533  
  8710.000000   1744285   1744028   1743927   1744211   1745076  
  8700.000000   1746544   1748427   1750363   1751944   1752874  
  8690.000000   1753079   1752751   1752242   1751954   1752162  
  8680.000000   1752960   1754244   1755788   1757340   1758696  
  8670.000000   1759755   1760509   1761038   1761456   1761917  
  8660.000000   1762562   1763522   1764847   1766489   1768285  
  8650.000000   1769978   1771300   1772051   1772181   1771797  
  8640.000000   1771121   1770381   1769739   1769226   1768794  
  8630.000000   1768368   1767944   1767630   1767612   1768085  
  8620.000000   1769136   1770722   1772670   1774778   1776901  
  8610.000000   1779011   1781194   1783526   1785991   1788380  
  8600.000000   1790373   1791605   1791883   1791260   1790107  
  8590.000000   1788952   1788315   1788511   1789544   1791163  
  8580.000000   1792966   1794641   1796070   1797403   1798915  
  8570.000000   1800886   1803413   1806354   1809353   1811968  
  8560.000000   1813840   1814780   1814837   1814222   1813253  
  8550.000000   1812228   1811366   1810795   1810561   1810680  
  8540.000000   1811119   1811847   1812811   1813973   1815293  
  8530.000000   1816755   1818355   1820075   1821850   1823545  
  8520.000000   1824991   1826006   1826486   1826454   1826097  
  8510.000000   1825721   1825651   1826145   1827290   1828993  
  8500.000000   1830993   1832976   1834663   1835877   1836554  
  8490.000000   1836719   1836459   1835868   1835044   1834098  
  8480.000000   1833188   1832511   1832267   1832625   1833649  
  8470.000000   1835295   1837374   1839630   1841787   1843630  
  8460.000000   1845041   1845985   1846523   1846722   1846669  
  8450.000000   1846393   1845909   1845212   1844337   1843383  
  8440.000000   1842516   1841986   1842057   1842970   1844806  
  8430.000000   1847483   1850686   1853966   1856807   1858786  
  8420.000000   1859706   1859625   1858857   1857802   1856836  
  8410.000000   1856138   1855670   1855207   1854485   1853350  
  8400.000000   1851852   1850291   1849087   1848663   1849242  
  8390.000000   1850800   1853044   1855522   1857764   1859416  
  8380.000000   1860340   1860594   1860367   1859893   1859373  
  8370.000000   1858957   1858732   1858746   1859027   1859582  
  8360.000000   1860380   1861320   1862215   1862829   1862937  
  8350.000000   1862403   1861212   1859496   1857504   1855550  
  8340.000000   1853934   1852875   1852462   1852662   1853331  
  8330.000000   1854276   1855281   1856176   1856853   1857278  
  8320.000000   1857481   1857520   1857458   1857325   1857126  
  8310.000000   1856828   1856401   1855841   1855183   1854519  
  8300.000000   1853950   1853591   1853494   1853669   1854038  
  8290.000000   1854487   1854873   1855067   1854976   1854544  
  8280.000000   1853762   1852642   1851231   1849583   1847782  
  8270.000000   1845919   1844103   1842443   1841036   1839965  
  8260.000000   1839275   1838987   1839077   1839498   1840170  
  8250.000000   1840997   1841877   1842704   1843395   1843881  
  8240.000000   1844126   1844116   1843862   1843394   1842758  
  8230.000000   1842030   1841306   1840709   1840345   1840295  
  8220.000000   1840550   1841023   1841531   1841857   1841790  
  8210.000000   1841196   1840059   1838486   1836667   1834826  
  8200.000000   1833141   1831724   1830593   1829713   1829014  
  8190.000000   1828449   1827983   1827609   1827297   1827000  
  8180.000000   1826629   1826088   1825298   1824220   1822876  
  8170.000000   1821324   1819636   1817869   1816048   1814186  
  8160.000000   1812304   1810464   1808766   1807340   1806290  
  8150.000000   1805655   1805368   1805266   1805121   1804717  
  8140.000000   1803923   1802726   1801244   1799664   1798189  
  8130.000000   1796958   1796015   1795304   1794703   1794081  
  8120.000000   1793338   1792440   1791412   1790310   1789199  
  8110.000000   1788111   1787048   1785976   1784852   1783640  
  8100.000000   1782327   1780936   1779522   1778176   1777002  
  8090.000000   1776111   1775589   1775465   1775689   1776111  
  8080.000000   1776508   1776612   1776189   1775108   1773393  
  8070.000000   1771233   1768947   1766895   1765383   1764576  
  8060.000000   1764451   1764810   1765341   1765714   1765672  
  8050.000000   1765092   1764013   1762584   1761023   1759531  
  8040.000000   1758257   1757267   1756568   1756124   1755895  
  8030.000000   1755846   1755957   1756208   1756561   1756962  
  8020.000000   1757336   1757612   1757736   1757680   1757456  
  8010.000000   1757085   1756598   1756019   1755357   1754631  
  8000.000000   1753865   1753113   1752436   1751903   1751547  
  7990.000000   1751353   1751236   1751070   1750706   1750031  
  7980.000000   1749001   1747667   1746167   1744688   1743418  
  7970.000000   1742486   1741931   1741695   1741642   1741607  
  7960.000000   1741442   1741059   1740446   1739660   1738808  
  7950.000000   1738000   1737325   1736820   1736479   1736249  
  7940.000000   1736066   1735865   1735612   1735297   1734947  
  7930.000000   1734598   1734297   1734069   1733926   1733847  
  7920.000000   1733799   1733740   1733645   1733521   1733409  
  7910.000000   1733397   1733584   1734070   1734905   1736066  
  7900.000000   1737443   1738847   1740051   1740828   1741021  
  7890.000000   1740565   1739520   1738037   1736332   1734630  
  7880.000000   1733117   1731916   1731078   1730605   1730457  
  7870.000000   1730591   1730946   1731465   1732067   1732657  
  7860.000000   1733131   1733400   1733421   1733209   1732849  
  7850.000000   1732448   1732122   1731928   1731859   1731840  
  7840.000000   1731763   1731537   1731124   1730565   1729958  
  7830.000000   1729427   1729070   1728924   1728955   1729075  
  7820.000000   1729181   1729186   1729053   1728792   1728449  
  7810.000000   1728090   1727766   1727520   1727373   1727337  
  7800.000000   1727409   1727570   1727776   1727955   1728015  
  7790.000000   1727861   1727421   1726673   1725650   1724443  
  7780.000000   1723176   1721981   1720968   1720210   1719728  
  7770.000000   1719508   1719493   1719607   1719760   1719862  
  7760.000000   1719836   1719628   1719222   1718636   1717922  
  7750.000000   1717146   1716381   1715680   1715084   1714612  
  7740.000000   1714274   1714073   1713993   1714007   1714058  
  7730.000000   1714075   1713982   1713729   1713309   1712768  
  7720.000000   1712190   1711658   1711228   1710886   1710566  
  7710.000000   1710163   1709587   1708801   1707841   1706813  
  7700.000000   1705853   1705093   1704616   1704445   1704551  
  7690.000000   1704864   1705297   1705751   1706121   1706289  
  7680.000000   1706150   1705631   1704732   1703551   1702284  
  7670.000000   1701177   1700462   1700277   1700616   1701319  
  7660.000000   1702122   1702740   1702954   1702675   1701956  
  7650.000000   1700955   1699867   1698864   1698047   1697447  
  7640.000000   1697046   1696807   1696701   1696710   1696810  
  7630.000000   1696964   1697106   1697158   1697053   1696756  
  7620.000000   1696288   1695712   1695126   1694624   1694284  
  7610.000000   1694146   1694216   1694465   1694844   1695286  
  7600.000000   1695716   1696061   1696269   1696323   1696258  
  7590.000000   1696153   1696116   1696243   1696586   1697129  
  7580.000000   1697787   1698444   1698990   1699361   1699561  
  7570.000000   1699643   1699681   1699722   1699766   1699761  
  7560.000000   1699643   1699363   1698937   1698445   1698019  
  7550.000000   1697797   1697878   1698292   1698990   1699876  
  7540.000000   1700841   1701796   1702704   1703561   1704389  
  7530.000000   1705199   1705984   1706705   1707321   1707795  
  7520.000000   1708139   1708395   1708653   1709003   1709525  
  7510.000000   1710244   1711142   1712150   1713185   1714169  
  7500.000000   1715061   1715864   1716628   1717424   1718326  
  7490.000000   1719381   1720604   1721975   1723449   1724970  
  7480.000000   1726492   1727980   1729417   1730796   1732115  
  7470.000000   1733374   1734572   1735709   1736795   1737838  
  7460.000000   1738853   1739847   1740821   1741768   1742682  
  7450.000000   1743559   1744415   1745274   1746180   1747173  
  7440.000000   1748293   1749563   1750992   1752571   1754283  
  7430.000000   1756098   1757987   1759911   1761837   1763740  
  7420.000000   1765609   1767449   1769277   1771112   1772962  
  7410.000000   1774804   1776600   1778285   1779806   1781131  
  7400.000000   1782275   1783289   1784255   1785248   1786327  
  7390.000000   1787515   1788802   1790172   1791609   1793127  
  7380.000000   1794754   1796528   1798463   1800546   1802727  
  7370.000000   1804931   1807083   1809118   1811001   1812720  
  7360.000000   1814280   1815689   1816959   1818109   1819173  
  7350.000000   1820207   1821288   1822494   1823875   1825437  
  7340.000000   1827121   1828836   1830468   1831936   1833205  
  7330.000000   1834306   1835310   1836308   1837377   1838556  
  7320.000000   1839836   1841172   1842509   1843802   1845028  
  7310.000000   1846200   1847341   1848486   1849654   1850847  
  7300.000000   1852042   1853207   1854305   1855311   1856213  
  7290.000000   1857019   1857748   1858436   1859116   1859821  
  7280.000000   1860574   1861383   1862236   1863104   1863940  
  7270.000000   1864692   1865313   1865781   1866110   1866353  
  7260.000000   1866598   1866941   1867476   1868249   1869265  
  7250.000000   1870466   1871770   1873079   1874329   1875498  
  7240.000000   1876625   1877782   1879060   1880519   1882191  
  7230.000000   1884039   1886011   1888020   1890009   1891925  
  7220.000000   1893762   1895517   1897214   1898875   1900541  
  7210.000000   1902253   1904072   1906050   1908238   1910646  
  7200.000000   1913258   1916014   1918846   1921684   1924498  
  7190.000000   1927281   1930074   1932919   1935863   1938910  
  7180.000000   1942046   1945219   1948387   1951506   1954575  
  7170.000000   1957608   1960651   1963736   1966905   1970162  
  7160.000000   1973506   1976906   1980341   1983781   1987224  
  7150.000000   1990678   1994189   1997808   2001615   2005663  
  7140.000000   2009991   2014577   2019367   2024258   2029165  
  7130.000000   2034005   2038767   2043465   2048177   2052969  
  7120.000000   2057912   2063018   2068278   2073629   2079021  
  7110.000000   2084394   2089734   2095033   2100318   2105609  
  7100.000000   2110947   2116361   2121896   2127585   2133464  
  7090.000000   2139538   2145793   2152171   2158603   2165004  
  7080.000000   2171312   2177484   2183518   2189429   2195257  
  7070.000000   2201035   2206805   2212589   2218415   2224296  
  7060.000000   2230241   2236242   2242279   2248321   2254343  
  7050.000000   2260339   2266328   2272348   2278439   2284617  
  7040.000000   2290856   2297088   2303224   2309188   2314945  
  7030.000000   2320524   2326005   2331494   2337070   2342771  
  7020.000000   2348558   2354352   2360044   2365555   2370838  
  7010.000000   2375907   2380802   2385586   2390302   2394982  
  7000.000000   2399618   2404199   2408690   2413079   2417347  
  6990.000000   2421514   2425601   2429663   2433738   2437874  
  6980.000000   2442068   2446296   2450470   2454499   2458276  
  6970.000000   2461748   2464903   2467803   2470528   2473178  
  6960.000000   2475805   2478434   2481031   2483564   2485997  
  6950.000000   2488340   2490610   2492851   2495072   2497268  
  6940.000000   2499391   2501406   2503282   2505043   2506733  
  6930.000000   2508423   2510156   2511946   2513750   2515511  
  6920.000000   2517164   2518687   2520088   2521416   2522714  
  6910.000000   2524009   2525282   2526488   2527570   2528494  
  6900.000000   2529262   2529920   2530532   2531164   2531850  
  6890.000000   2532593   2533364   2534130   2534861   2535559  
  6880.000000   2536246   2536962   2537742   2538614   2539578  
  6870.000000   2540616   2541687   2542739   2543719   2544582  
  6860.000000   2545301   2545873   2546324   2546701   2547055  
  6850.000000   2547431   2547850   2548307   2548776   2549228  
  6840.000000   2549640   2550017   2550380   2550770   2551219  
  6830.000000   2551752   2552370   2553055   2553776   2554499  
  6820.000000   2555183   2555790   2556281   2556625   2556802  
  6810.000000   2556819   2556706   2556526   2556344   2556224  
  6800.000000   2556199   2556272   2556408   2556560   2556674  
  6790.000000   2556717   2556665   2556516   2556272   2555938  
  6780.000000   2555525   2555053   2554554   2554078   2553674  
  6770.000000   2553385   2553224   2553177   2553197   2553230  
  6760.000000   2553219   2553126   2552930   2552623   2552207  
  6750.000000   2551687   2551077   2550402   2549705   2549042  
  6740.000000   2548465   2548011   2547677   2547432   2547210  
  6730.000000   2546950   2546607   2546171   2545665   2545131  
  6720.000000   2544607   2544113   2543643   2543175   2542683  
  6710.000000   2542154   2541584   2540983   2540356   2539703  
  6700.000000   2539013   2538278   2537494   2536680   2535857  
  6690.000000   2535058   2534298   2533578   2532876   2532173  
  6680.000000   2531446   2530697   2529933   2529172   2528415  
  6670.000000   2527645   2526822   2525903   2524848   2523646  
  6660.000000   2522309   2520878   2519396   2517907   2516435  
  6650.000000   2514996   2513590   2512225   2510896   2509606  
  6640.000000   2508340   2507085   2505814   2504513   2503177  
  6630.000000   2501819   2500464   2499133   2497830   2496534  
  6620.000000   2495199   2493778   2492235   2490571   2488825  
  6610.000000   2487066   2485371   2483798   2482369   2481063  
  6600.000000   2479821   2478574   2477257   2475835   2474306  
  6590.000000   2472701   2471075   2469486   2467982   2466589  
  6580.000000   2465302   2464091   2462914   2461727   2460502  
  6570.000000   2459233   2457933   2456629   2455344   2454083  
  6560.000000   2452836   2451571   2450262   2448888   2447457  
  6550.000000   2445996   2444545   2443135   2441781   2440475  
  6540.000000   2439195   2437918   2436633   2435356   2434115  
  6530.000000   2432945   2431872   2430894   2429989   2429115  
  6520.000000   2428228   2427294   2426297   2425237   2424129  
  6510.000000   2422990   2421838   2420685   2419545   2418424  
  6500.000000   2417333   2416280   2415274   2414323   2413431  
  6490.000000   2412605   2411842   2411135   2410463   2409793  
  6480.000000   2409090   2408316   2407453   2406503   2405490  
  6470.000000   2404452   2403427   2402439   2401494   2400581  
  6460.000000   2399686   2398801   2397931   2397094   2396309  
  6450.000000   2395582   2394906   2394253   2393591   2392895  
  6440.000000   2392155   2391376   2390577   2389770   2388964  
  6430.000000   2388155   2387347   2386550   2385795   2385121  
  6420.000000   2384566   2384143   2383836   2383589   2383334  
  6410.000000   2383006   2382570   2382031   2381430   2380828  
  6400.000000   2380284   2379834   2379489   2379234   2379039  
  6390.000000   2378872   2378701   2378502   2378253   2377939  
  6380.000000   2377549   2377087   2376570   2376030   2375505  
  6370.000000   2375029   2374623   2374294   2374033   2373822  
  6360.000000   2373638   2373458   2373253   2372997   2372660  
  6350.000000   2372225   2371688   2371072   2370419   2369784  
  6340.000000   2369209   2368715   2368283   2367869   2367416  
  6330.000000   2366884   2366253   2365542   2364781   2364008  
  6320.000000   2363233   2362450   2361628   2360741   2359777  
  6310.000000   2358758   2357719   2356710   2355755   2354859  
  6300.000000   2353991   2353112   2352180   2351176   2350099  
  6290.000000   2348969   2347804   2346620   2345412   2344169  
  6280.000000   2342872   2341514   2340091   2338621   2337118  
  6270.000000   2335606   2334098   2332609   2331144   2329708  
  6260.000000   2328288   2326870   2325425   2323922   2322332  
  6250.000000   2320644   2318859   2317003   2315109   2313216  
  6240.000000   2311354   2309547   2307809   2306150   2304577  
  6230.000000   2303088   2301666   2300280   2298876   2297405  
  6220.000000   2295821   2294114   2292306   2290447   2288602  
  6210.000000   2286818   2285116   2283480   2281868   2280232  
  6200.000000   2278541   2276792   2275009   2273230   2271494  
  6190.000000   2269824   2268228   2266695   2265216   2263777  
  6180.000000   2262374   2261000   2259648   2258307   2256969  
  6170.000000   2255629   2254297   2252990   2251729   2250525  
  6160.000000   2249375   2248257   2247143   2246003   2244822  
  6150.000000   2243602   2242360   2241112   2239871   2238634  
  6140.000000   2237388   2236120   2234826   2233514   2232204  
  6130.000000   2230915   2229661   2228441   2227248   2226066  
  6120.000000   2224890   2223722   2222576   2221465   2220398  
  6110.000000   2219374   2218386   2217427   2216496   2215600  
  6100.000000   2214754   2213962   2213223   2212511   2211800  
  6090.000000   2211058   2210277   2209465   2208661   2207910  
  6080.000000   2207263   2206748   2206377   2206132   2205991  
  6070.000000   2205912   2205871   2205843   2205827   2205822  
  6060.000000   2205852   2205935   2206108   2206388   2206800  
  6050.000000   2207338   2208002   2208760   2209600   2210495  
  6040.000000   2211444   2212437   2213485   2214576   2215710  
  6030.000000   2216867   2218048   2219252   2220505   2221837  
  6020.000000   2223285   2224867   2226588   2228419   2230327  
  6010.000000   2232263   2234198   2236105   2237985   2239829  
  6000.000000   2241646   2243429   2245189   2246932   2248690  
  5990.000000   2250497   2252401   2254429   2256601   2258908  
  5980.000000   2261332   2263844   2266432   2269087   2271820  
  5970.000000   2274626   2277506   2280427   2283362   2286268  
  5960.000000   2289136   2291960   2294772   2297597   2300475  
  5950.000000   2303415   2306424   2309490   2312609   2315777  
  5940.000000   2319009   2322319   2325719   2329208   2332771  
  5930.000000   2336383   2340016   2343648   2347263   2350848  
  5920.000000   2354387   2357856   2361223   2364458   2367537  
  5910.000000   2370456   2373225   2375869   2378417   2380899  
  5900.000000   2383341   2385773   2388223   2390733   2393336  
  5890.000000   2396065   2398919   2401883   2404907   2407936  
  5880.000000   2410911   2413787   2416536   2419147   2421617  
  5870.000000   2423944   2426130   2428180   2430112   2431962  
  5860.000000   2433780   2435619   2437526   2439532   2441649  
  5850.000000   2443875   2446197   2448608   2451095   2453646  
  5840.000000   2456240   2458848   2461435   2463971   2466439  
  5830.000000   2468845   2471211   2473563   2475920   2478283  
  5820.000000   2480631   2482936   2485168   2487320   2489396  
  5810.000000   2491423   2493418   2495406   2497378   2499337  
  5800.000000   2501256   2503143   2504980   2506785   2508531  
  5790.000000   2510213   2511769   2513158   2514299   2515143  
  5780.000000   2515622   2515702   2515335   2514504   2513195  
  5770.000000   2511440   2509295   2506875   2504302   2501725  
  5760.000000   2499255   2496981   2494930   2493107   2491479  
  5750.000000   2490024   2488714   2487536   2486479   2485528  
  5740.000000   2484668   2483871   2483127   2482419   2481752  
  5730.000000   2481119   2480523   2479938   2479347   2478721  
  5720.000000   2478055   2477357   2476670   2476036   2475502  
  5710.000000   2475086   2474782   2474557   2474368   2474175  
  5700.000000   2473957   2473716   2473469   2473241   2473055  
  5690.000000   2472926   2472858   2472853   2472897   2472978  
  5680.000000   2473063   2473119   2473093   2472940   2472612  
  5670.000000   2472084   2471340   2470388   2469237   2467913  
  5660.000000   2466432   2464824   2463113   2461339   2459533  
  5650.000000   2457734   2455960   2454229   2452539   2450892  
  5640.000000   2449287   2447735   2446246   2444831   2443493  
  5630.000000   2442223   2441004   2439815   2438649   2437504  
  5620.000000   2436393   2435326   2434314   2433344   2432398  
  5610.000000   2431449   2430476   2429472   2428450   2427434  
  5600.000000   2426454   2425530   2424669   2423862   2423088  
  5590.000000   2422323   2421540   2420724   2419865   2418962  
  5580.000000   2418023   2417061   2416092   2415136   2414199  
  5570.000000   2413280   2412364   2411430   2410455   2409425  
  5560.000000   2408343   2407223   2406084   2404944   2403805  
  5550.000000   2402659   2401491   2400290   2399061   2397826  
  5540.000000   2396618   2395472   2394406   2393420   2392492  
  5530.000000   2391593   2390692   2389772   2388827   2387861  
  5520.000000   2386879   2385883   2384868   2383827   2382754  
  5510.000000   2381647   2380508   2379342   2378146   2376921  
  5500.000000   2375665   2374388   2373107   2371852   2370643  
  5490.000000   2369494   2368389   2367298   2366172   2364976  
  5480.000000   2363686   2362309   2360868   2359402   2357938  
  5470.000000   2356492   2355057   2353618   2352155   2350651  
  5460.000000   2349094   2347476   2345785   2344012   2342149  
  5450.000000   2340204   2338202   2336183   2334196   2332281  
  5440.000000   2330459   2328730   2327079   2325485   2323940  
  5430.000000   2322440   2320987   2319571   2318176   2316769  
  5420.000000   2315331   2313854   2312375   2310949   2309656  
  5410.000000   2308542   2307633   2306892   2306272   2305708  
  5400.000000   2305178   2304674   2304237   2303899   2303700  
  5390.000000   2303634   2303694   2303840   2304073   2304394  
  5380.000000   2304851   2305474   2306305   2307325   2308517  
  5370.000000   2309813   2311183   2312579   2314022   2315509  
  5360.000000   2317097   2318793   2320663   2322715   2325030  
  5350.000000   2327635   2330623   2334007   2337845   2342086  
  5340.000000   2346731   2351695   2356994   2362582   2368525  
  5330.000000   2374806   2381500   2388566   2396053   2403902  
  5320.000000   2412181   2420867   2430080   2439828   2450243  
  5310.000000   2461305   2473098   2485546   2498696   2512464  
  5300.000000   2526915   2542000   2557826   2574381   2591783  
  5290.000000   2610008   2629122   2649024   2669683   2690929  
  5280.000000   2712700   2734874   2757486   2780540   2804171  
  5270.000000   2828422   2853350   2878863   2904821   2931006  
  5260.000000   2957237   2983398   3009469   3035509   3061572  
  5250.000000   3087689   3113755   3139622   3165023   3189787  
  5240.000000   3213730   3236874   3259231   3280980   3302185  
  5230.000000   3322991   3343342   3363233   3382474   3400998  
  5220.000000   3418627   3435389   3451237   3466327   3480698  
  5210.000000   3494529   3507807   3520601   3532776   3544311  
  5200.000000   3555049   3565028   3574191   3582676   3590493  
  5190.000000   3597775   3604481   3610666   3616231   3621207  
  5180.000000   3625517   3629239   3632343   3634923   3636942  
  5170.000000   3638466   3639446   3639947   3639947   3639541  
  5160.000000   3638725   3637577   3636057   3634193   3631915  
  5150.000000   3629246   3626153   3622702   3618905   3614842  
  5140.000000   3610515   3605974   3601201   3596237   3591079  
  5130.000000   3585790   3580386   3574922   3569392   3563807  
  5120.000000   3558127   3552344   3546433   3540413   3534299  
  5110.000000   3528132   3521940   3515755   3509587   3503452  
  5100.000000   3497350   3491297   3485296   3479361   3473493  
  5090.000000   3467694   3461954   3456270   3450632   3445038  
  5080.000000   3439477   3433946   3428430   3422917   3417389  
  5070.000000   3411835   3406245   3400614   3394935   3389206  
  5060.000000   3383414   3377559   3371631   3365639   3359591  
  5050.000000   3353504   3347389   3341258   3335108   3328936  
  5040.000000   3322729   3316484   3310195   3303868   3297510  
  5030.000000   3291130   3284739   3278350   3271978   3265643  
  5020.000000   3259372   3253185   3247110   3241153   3235323  
  5010.000000   3229606   3224003   3218493   3213090   3207786  
  5000.000000   3202610   3197565   3192686   3187972   3183456  
  4990.000000   3179131   3175032   3171149   3167515   3164111  
  4980.000000   3160964   3158044   3155375   3152930   3150746  
  4970.000000   3148813   3147185   3145853   3144867   3144206  
  4960.000000   3143902   3143918   3144285   3144967   3146001  
  4950.000000   3147358   3149073   3151109   3153490   3156170  
  4940.000000   3159175   3162465   3166082   3170000   3174266  
  4930.000000   3178852   3183791   3189042   3194624   3200493  
  4920.000000   3206671   3213122   3219870   3226885   3234186  
  4910.000000   3241740   3249557   3257602   3265877   3274348  
  4900.000000   3283006   3291814   3300754   3309792   3318907  
  4890.000000   3328075   3337270   3346472   3355642   3364755  
  4880.000000   3373761   3382634   3391323   3399808   3408034  
  4870.000000   3415979   3423576   3430802   3437594   3443951  
  4860.000000   3449848   3455328   3460402   3465138   3469545  
  4850.000000   3473677   3477524   3481126   3484472   3487611  
  4840.000000   3490550   3493348   3496017   3498601   3501093  
  4830.000000   3503515   3505848   3508109   3510287   3512403  
  4820.000000   3514460   3516477   3518453   3520399   3522311  
  4810.000000   3524189   3526028   3527829   3529587   3531308  
  4800.000000   3532998   3534673   3536353   3538065   3539828  
  4790.000000   3541659   3543556   3545512   3547505   3549516  
  4780.000000   3551524   3553519   3555488   3557429   3559322  
  4770.000000   3561152   3562886   3564502   3565973   3567296  
  4760.000000   3568469   3569514   3570443   3571284   3572040  
  4750.000000   3572724   3573325   3573850   3574283   3574634  
  4740.000000   3574895   3575076   3575171   3575188   3575116  
  4730.000000   3574956   3574697   3574335   3573862   3573280  
  4720.000000   3572599   3571837   3571024   3570197   3569394  
  4710.000000   3568647   3567981   3567406   3566927   3566538  
  4700.000000   3566238   3566026   3565911   3565902   3566012  
  4690.000000   3566246   3566609   3567092   3567688   3568374  
  4680.000000   3569135   3569939   3570763   3571567   3572325  
  4670.000000   3573003   3573593   3574086   3574510   3574888  
  4660.000000   3575272   3575700   3576221   3576866   3577668  
  4650.000000   3578641   3579803   3581156   3582703   3584431  
  4640.000000   3586329   3588373   3590542   3592811   3595158  
  4630.000000   3597558   3599988   3602417   3604809   3607123  
  4620.000000   3609316   3611349   3613187   3614816   3616226  
  4610.000000   3617433   3618452   3619323   3620072   3620746  
  4600.000000   3621363   3621957   3622525   3623080   3623596  
  4590.000000   3624068   3624460   3624764   3624949   3625012  
  4580.000000   3624931   3624708   3624328   3623799   3623117  
  4570.000000   3622303   3621367   3620343   3619249   3618118  
  4560.000000   3616961   3615795   3614615   3613419   3612189  
  4550.000000   3610917   3609593   3608217   3606796   3605346  
  4540.000000   3603891   3602452   3601056   3599714   3598439  
  4530.000000   3597220   3596060   3594939   3593870   3592849  
  4520.000000   3591919   3591093   3590435   3589957   3589719  
  4510.000000   3589717   3590008   3590580   3591505   3592780  
  4500.000000   3594494   3596647   3599321   3602497   3606241  
  4490.000000   3610515   3615381   3620804   3626853   3633502  
  4480.000000   3640816   3648757   3657370   3666591   3676441  
  4470.000000   3686840   3697790   3709205   3721075   3733310  
  4460.000000   3745893   3758738   3771827   3785083   3798489  
  4450.000000   3811983   3825546   3839133   3852730   3866315  
  4440.000000   3879880   3893428   3906950   3920457   3933925  
  4430.000000   3947360   3960713   3973977   3987074   3999982  
  4420.000000   4012597   4024885   4036727   4048090   4058861  
  4410.000000   4069023   4078482   4087248   4095256   4102543  
  4400.000000   4109078   4114929   4120100   4124686   4128720  
  4390.000000   4132313   4135520   4138459   4141195   4143841  
  4380.000000   4146453   4149121   4151884   4154801   4157893  
  4370.000000   4161198   4164732   4168517   4172561   4176864  
  4360.000000   4181416   4186201   4191185   4196347   4201630  
  4350.000000   4207013   4212415   4217822   4223152   4228415  
  4340.000000   4233560   4238610   4243494   4248140   4252322  
  4330.000000   4255759   4258040   4258782   4257643   4254498  
  4320.000000   4249438   4242846   4235276   4227413   4219872  
  4310.000000   4213164   4207552   4203129   4199779   4197329  
  4300.000000   4195555   4194285   4193388   4192782   4192429  
  4290.000000   4192282   4192333   4192542   4192921   4193455  
  4280.000000   4194171   4195066   4196143   4197381   4198739  
  4270.000000   4200183   4201647   4203077   4204365   4205383  
  4260.000000   4205937   4205822   4204820   4202782   4199646  
  4250.000000   4195493   4190515   4185017   4179322   4173759  
  4240.000000   4168557   4163876   4159742   4156124   4152911  
  4230.000000   4149990   4147237   4144556   4141874   4139139  
  4220.000000   4136344   4133481   4130600   4127736   4124975  
  4210.000000   4122372   4120009   4117918   4116141   4114661  
  4200.000000   4113473   4112529   4111799   4111227   4110791  
  4190.000000   4110441   4110178   4109969   4109838   4109769  
  4180.000000   4109809   4109950   4110251   4110710   4111393  
  4170.000000   4112308   4113532   4115084   4117050   4119445  
  4160.000000   4122341   4125729   4129654   4134073   4139011  
  4150.000000   4144404   4150269   4156537   4163227   4170274  
  4140.000000   4177712   4185496   4193681   4202242   4211245  
  4130.000000   4220663   4230543   4240839   4251571   4262681  
  4120.000000   4274191   4286061   4298332   4310989   4324079  
  4110.000000   4337588   4351538   4365884   4380607   4395630  
  4100.000000   4410911   4426367   4441961   4457639   4473392  
  4090.000000   4489202   4505080   4521031   4537063   4553193  
  4080.000000   4569417   4585751   4602169   4618664   4635163  
  4070.000000   4651617   4667907   4683973   4699704   4715086  
  4060.000000   4730058   4744654   4758820   4772583   4785852  
  4050.000000   4798640   4810854   4822549   4833675   4844326  
  4040.000000   4854445   4864087   4873129   4881572   4889265  
  4030.000000   4896227   4902353   4907705   4912222   4915966  
  4020.000000   4918851   4920949   4922249   4922857   4922756  
  4010.000000   4922108   4920994   4919439   4917223   4914396  
  4000.000000   4911252  
##END= 
