##TITLE= Sample 014 By ssteindl date Donnerstag, November 22 2018
##JCAMP-DX= 4.24
##DATA TYPE= INFRARED SPECTRUM
##ORIGIN= Exported PE Spectrum Data File
##OWNER= Sandra Steindl
##DATE= 18/11/22
##TIME= 13:23:31.00
##SPECTROMETER/DATA SYSTEM= PERKIN-ELMER Frontier FT-IR/NIR IR
##INSTRUMENT PARAMETERS=
  APODIZATION=stark
  DETECTOR=INGAAS
##RESOLUTION= 16.000000
##DELTAX= -2.000000
##XUNITS= 1/CM
##YUNITS= A
##XFACTOR= 1.00
##YFACTOR= 0.00000011920928955078
##FIRSTX= 10000.00
##LASTX= 4000.00
##NPOINTS= 3001
##FIRSTY= 0.244450
##MAXY= 0.592011
##MINY= 0.206198
##XYDATA= (X++(Y..Y))
 10000.000000   2050598   2053538   2055468   2055108   2052361  
  9990.000000   2047777   2041634   2033805   2024556   2014477  
  9980.000000   2004212   1994310   1985326   1977860   1972341  
  9970.000000   1969259   1968992   1971923   1978075   1987153  
  9960.000000   1998370   2010528   2022201   2031858   2038265  
  9950.000000   2040524   2038416   2032220   2022840   2011474  
  9940.000000   1999602   1988691   1980028   1974487   1972279  
  9930.000000   1972983   1975535   1978682   1981207   1982439  
  9920.000000   1982281   1981264   1980184   1979780   1980442  
  9910.000000   1982071   1984292   1986569   1988558   1990068  
  9900.000000   1991114   1991678   1991625   1990659   1988422  
  9890.000000   1984746   1979810   1974260   1969061   1965247  
  9880.000000   1963549   1964176   1966693   1970219   1973677  
  9870.000000   1976123   1977013   1976229   1974100   1971152  
  9860.000000   1968004   1965143   1962870   1961268   1960260  
  9850.000000   1959736   1959665   1960179   1961551   1964096  
  9840.000000   1967945   1972909   1978314   1983126   1986163  
  9830.000000   1986490   1983812   1978651   1972315   1966475  
  9820.000000   1962626   1961545   1963015   1965926   1968706  
  9810.000000   1969899   1968692   1965155   1960134   1954894  
  9800.000000   1950586   1947928   1947018   1947513   1948889  
  9790.000000   1950727   1952875   1955366   1958268   1961462  
  9780.000000   1964561   1966962   1968072   1967486   1965228  
  9770.000000   1961685   1957601   1953777   1950910   1949409  
  9760.000000   1949305   1950379   1952165   1954241   1956210  
  9750.000000   1957921   1959373   1960747   1962263   1964041  
  9740.000000   1966016   1967810   1968849   1968424   1965982  
  9730.000000   1961305   1954681   1946934   1939238   1932906  
  9720.000000   1928975   1928038   1929977   1934108   1939245  
  9710.000000   1944090   1947466   1948627   1947390   1944091  
  9700.000000   1939513   1934544   1930030   1926409   1923725  
  9690.000000   1921569   1919365   1916608   1913137   1909279  
  9680.000000   1905724   1903369   1902921   1904677   1908374  
  9670.000000   1913230   1918233   1922368   1924977   1925823  
  9660.000000   1925102   1923288   1920922   1918534   1916540  
  9650.000000   1915310   1915173   1916372   1918979   1922718  
  9640.000000   1926874   1930359   1931894   1930444   1925533  
  9630.000000   1917574   1907822   1898108   1890340   1885927  
  9620.000000   1885393   1888207   1892985   1897893   1901198  
  9610.000000   1901750   1899249   1894273   1888039   1882015  
  9600.000000   1877558   1875545   1876291   1879455   1884276  
  9590.000000   1889702   1894676   1898329   1900121   1899977  
  9580.000000   1898244   1895657   1893124   1891507   1891389  
  9570.000000   1892883   1895625   1898826   1901551   1902954  
  9560.000000   1902571   1900415   1896944   1892874   1888895  
  9550.000000   1885496   1882833   1880855   1879432   1878583  
  9540.000000   1878506   1879558   1882000   1885835   1890597  
  9530.000000   1895424   1899212   1900966   1900160   1896895  
  9520.000000   1891947   1886429   1881468   1877786   1875543  
  9510.000000   1874370   1873605   1872635   1871115   1869120  
  9500.000000   1867006   1865295   1864353   1864325   1865031  
  9490.000000   1866124   1867248   1868161   1868815   1869235  
  9480.000000   1869456   1869380   1868820   1867520   1865348  
  9470.000000   1862343   1858840   1855328   1852337   1850223  
  9460.000000   1849037   1848575   1848475   1848454   1848448  
  9450.000000   1848667   1849529   1851434   1854555   1858640  
  9440.000000   1863005   1866690   1868803   1868862   1867034  
  9430.000000   1864098   1861189   1859428   1859499   1861476  
  9420.000000   1864724   1868185   1870703   1871460   1870200  
  9410.000000   1867260   1863343   1859231   1855485   1852330  
  9400.000000   1849649   1847134   1844514   1841702   1838904  
  9390.000000   1836500   1834876   1834240   1834503   1835336  
  9380.000000   1836275   1836885   1836923   1836393   1835598  
  9370.000000   1834980   1835008   1835953   1837832   1840369  
  9360.000000   1843095   1845461   1846976   1847348   1846567  
  9350.000000   1844931   1842936   1841153   1840024   1839763  
  9340.000000   1840297   1841291   1842262   1842692   1842193  
  9330.000000   1840598   1838017   1834779   1831353   1828225  
  9320.000000   1825791   1824306   1823825   1824265   1825412  
  9310.000000   1827052   1828974   1831045   1833177   1835313  
  9300.000000   1837378   1839201   1840514   1840952   1840203  
  9290.000000   1838096   1834740   1830507   1825994   1821889  
  9280.000000   1818797   1817096   1816802   1817618   1819008  
  9270.000000   1820399   1821286   1821368   1820568   1819039  
  9260.000000   1817125   1815241   1813805   1813105   1813279  
  9250.000000   1814226   1815641   1817053   1817983   1818110  
  9240.000000   1817380   1816054   1814584   1813495   1813153  
  9230.000000   1813655   1814760   1815993   1816852   1816982  
  9220.000000   1816311   1815001   1813341   1811579   1809789  
  9210.000000   1807885   1805686   1803084   1800186   1797352  
  9200.000000   1795136   1794038   1794316   1795844   1798139  
  9190.000000   1800482   1802118   1802537   1801637   1799761  
  9180.000000   1797545   1795740   1795006   1795770   1798110  
  9170.000000   1801707   1805901   1809849   1812723   1813862  
  9160.000000   1812909   1809910   1805356   1800054   1794919  
  9150.000000   1790744   1788022   1786838   1786875   1787583  
  9140.000000   1788368   1788825   1788802   1788431   1787993  
  9130.000000   1787784   1787962   1788465   1789057   1789398  
  9120.000000   1789253   1788536   1787417   1786208   1785282  
  9110.000000   1784928   1785230   1786052   1787050   1787836  
  9100.000000   1788107   1787762   1786939   1785953   1785188  
  9090.000000   1784931   1785245   1785936   1786630   1786907  
  9080.000000   1786489   1785336   1783700   1782032   1780820  
  9070.000000   1780423   1780922   1782123   1783620   1784972  
  9060.000000   1785851   1786149   1785993   1785649   1785399  
  9050.000000   1785394   1785595   1785790   1785698   1785094  
  9040.000000   1783925   1782353   1780716   1779415   1778769  
  9030.000000   1778916   1779766   1781021   1782273   1783121  
  9020.000000   1783309   1782758   1781567   1779972   1778257  
  9010.000000   1776709   1775541   1774909   1774911   1775578  
  9000.000000   1776854   1778578   1780470   1782143   1783172  
  8990.000000   1783194   1782062   1779881   1777037   1774070  
  8980.000000   1771566   1769945   1769356   1769657   1770508  
  8970.000000   1771547   1772509   1773341   1774173   1775238  
  8960.000000   1776713   1778621   1780776   1782853   1784502  
  8950.000000   1785478   1785717   1785336   1784581   1783715  
  8940.000000   1782935   1782317   1781818   1781311   1780626  
  8930.000000   1779618   1778177   1776295   1774047   1771641  
  8920.000000   1769363   1767555   1766496   1766324   1766966  
  8910.000000   1768117   1769330   1770118   1770142   1769283  
  8900.000000   1767701   1765743   1763848   1762407   1761689  
  8890.000000   1761788   1762658   1764166   1766145   1768403  
  8880.000000   1770712   1772812   1774444   1775390   1775566  
  8870.000000   1775030   1774025   1772869   1771887   1771274  
  8860.000000   1771073   1771187   1771442   1771724   1772001  
  8850.000000   1772392   1773058   1774151   1775702   1777595  
  8840.000000   1779594   1781372   1782628   1783110   1782712  
  8830.000000   1781447   1779475   1777076   1774630   1772583  
  8820.000000   1771350   1771245   1772364   1774580   1777542  
  8810.000000   1780783   1783827   1786316   1788058   1789034  
  8800.000000   1789344   1789125   1788521   1787662   1786718  
  8790.000000   1785890   1785413   1785482   1786162   1787338  
  8780.000000   1788697   1789836   1790392   1790198   1789353  
  8770.000000   1788190   1787141   1786565   1786607   1787168  
  8760.000000   1787966   1788698   1789174   1789410   1789595  
  8750.000000   1789978   1790730   1791827   1793062   1794094  
  8740.000000   1794614   1794427   1793550   1792179   1790641  
  8730.000000   1789293   1788448   1788330   1789044   1790593  
  8720.000000   1792858   1795609   1798502   1801148   1803192  
  8710.000000   1804416   1804810   1804567   1804032   1803556  
  8700.000000   1803402   1803622   1804085   1804535   1804737  
  8690.000000   1804589   1804159   1803672   1803381   1803497  
  8680.000000   1804088   1805091   1806351   1807685   1808964  
  8670.000000   1810111   1811118   1811971   1812650   1813113  
  8660.000000   1813342   1813388   1813389   1813560   1814133  
  8650.000000   1815278   1817043   1819332   1821916   1824506  
  8640.000000   1826802   1828584   1829729   1830232   1830185  
  8630.000000   1829750   1829160   1828647   1828425   1828603  
  8620.000000   1829163   1829931   1830617   1830912   1830597  
  8610.000000   1829660   1828332   1827053   1826349   1826651  
  8600.000000   1828136   1830643   1833714   1836729   1839131  
  8590.000000   1840591   1841142   1841129   1841082   1841491  
  8580.000000   1842614   1844404   1846540   1848588   1850191  
  8570.000000   1851228   1851873   1852512   1853554   1855235  
  8560.000000   1857471   1859868   1861831   1862809   1862504  
  8550.000000   1861014   1858816   1856632   1855173   1854933  
  8540.000000   1856010   1858125   1860723   1863170   1864954  
  8530.000000   1865792   1865677   1864804   1863486   1862039  
  8520.000000   1860740   1859784   1859329   1859467   1860255  
  8510.000000   1861661   1863562   1865746   1867941   1869903  
  8500.000000   1871471   1872634   1873531   1874383   1875420  
  8490.000000   1876753   1878365   1880073   1881643   1882839  
  8480.000000   1883544   1883781   1883712   1883587   1883642  
  8470.000000   1884068   1884933   1886224   1887852   1889706  
  8460.000000   1891671   1893630   1895449   1896983   1898078  
  8450.000000   1898610   1898525   1897897   1896941   1895980  
  8440.000000   1895365   1895378   1896145   1897596   1899457  
  8430.000000   1901361   1902951   1903997   1904445   1904420  
  8420.000000   1904160   1903921   1903874   1904075   1904468  
  8410.000000   1904955   1905448   1905928   1906418   1906977  
  8400.000000   1907606   1908255   1908783   1909033   1908882  
  8390.000000   1908295   1907356   1906200   1904975   1903750  
  8380.000000   1902511   1901178   1899672   1898002   1896298  
  8370.000000   1894828   1893898   1893779   1894566   1896179  
  8360.000000   1898339   1900688   1902866   1904616   1905833  
  8350.000000   1906526   1906789   1906698   1906299   1905568  
  8340.000000   1904473   1902997   1901210   1899255   1897335  
  8330.000000   1895667   1894410   1893654   1893370   1893471  
  8320.000000   1893811   1894258   1894702   1895079   1895367  
  8310.000000   1895568   1895701   1895780   1895820   1895824  
  8300.000000   1895809   1895777   1895744   1895708   1895667  
  8290.000000   1895606   1895505   1895344   1895111   1894811  
  8280.000000   1894466   1894116   1893804   1893575   1893449  
  8270.000000   1893439   1893534   1893723   1893981   1894288  
  8260.000000   1894609   1894901   1895097   1895129   1894918  
  8250.000000   1894419   1893619   1892567   1891352   1890089  
  8240.000000   1888877   1887775   1886779   1885829   1884825  
  8230.000000   1883663   1882267   1880627   1878794   1876888  
  8220.000000   1875052   1873439   1872164   1871299   1870845  
  8210.000000   1870738   1870853   1871026   1871083   1870869  
  8200.000000   1870283   1869288   1867929   1866313   1864588  
  8190.000000   1862909   1861407   1860166   1859211   1858524  
  8180.000000   1858043   1857684   1857353   1856955   1856401  
  8170.000000   1855617   1854545   1853165   1851501   1849638  
  8160.000000   1847711   1845891   1844350   1843212   1842523  
  8150.000000   1842222   1842150   1842070   1841734   1840930  
  8140.000000   1839553   1837617   1835270   1832752   1830351  
  8130.000000   1828342   1826934   1826244   1826268   1826911  
  8120.000000   1827980   1829247   1830451   1831366   1831821  
  8110.000000   1831723   1831079   1829946   1828445   1826672  
  8100.000000   1824718   1822613   1820377   1818023   1815603  
  8090.000000   1813236   1811079   1809328   1808129   1807569  
  8080.000000   1807623   1808172   1809030   1809978   1810818  
  8070.000000   1811387   1811583   1811360   1810736   1809786  
  8060.000000   1808652   1807516   1806579   1805992   1805811  
  8050.000000   1805949   1806182   1806205   1805728   1804574  
  8040.000000   1802752   1800466   1798053   1795885   1794242  
  8030.000000   1793251   1792851   1792860   1793050   1793247  
  8020.000000   1793375   1793457   1793566   1793760   1794032  
  8010.000000   1794298   1794428   1794297   1793850   1793110  
  8000.000000   1792191   1791240   1790392   1789732   1789264  
  7990.000000   1788941   1788676   1788398   1788058   1787654  
  7980.000000   1787212   1786776   1786375   1786021   1785697  
  7970.000000   1785364   1784975   1784485   1783873   1783142  
  7960.000000   1782326   1781481   1780675   1779970   1779406  
  7950.000000   1778999   1778738   1778596   1778540   1778544  
  7940.000000   1778590   1778659   1778729   1778765   1778717  
  7930.000000   1778537   1778194   1777692   1777086   1776471  
  7920.000000   1775962   1775662   1775625   1775834   1776190  
  7910.000000   1776538   1776705   1776554   1776029   1775176  
  7900.000000   1774140   1773117   1772305   1771834   1771736  
  7890.000000   1771928   1772252   1772517   1772575   1772354  
  7880.000000   1771881   1771267   1770656   1770190   1769963  
  7870.000000   1770012   1770314   1770815   1771439   1772110  
  7860.000000   1772752   1773298   1773680   1773850   1773783  
  7850.000000   1773480   1772980   1772322   1771551   1770678  
  7840.000000   1769696   1768589   1767361   1766067   1764813  
  7830.000000   1763745   1763002   1762679   1762782   1763229  
  7820.000000   1763870   1764536   1765083   1765429   1765563  
  7810.000000   1765527   1765394   1765227   1765081   1764975  
  7800.000000   1764915   1764885   1764853   1764776   1764596  
  7790.000000   1764271   1763774   1763136   1762427   1761763  
  7780.000000   1761257   1760990   1760969   1761120   1761305  
  7770.000000   1761358   1761137   1760562   1759632   1758423  
  7760.000000   1757057   1755680   1754425   1753405   1752688  
  7750.000000   1752302   1752220   1752367   1752620   1752838  
  7740.000000   1752888   1752681   1752196   1751481   1750643  
  7730.000000   1749796   1749038   1748408   1747895   1747443  
  7720.000000   1746993   1746505   1745976   1745441   1744947  
  7710.000000   1744543   1744251   1744068   1743967   1743903  
  7700.000000   1743831   1743704   1743491   1743169   1742745  
  7690.000000   1742245   1741720   1741232   1740838   1740573  
  7680.000000   1740439   1740408   1740439   1740493   1740550  
  7670.000000   1740610   1740678   1740751   1740803   1740792  
  7660.000000   1740671   1740418   1740050   1739626   1739224  
  7650.000000   1738908   1738697   1738550   1738383   1738093  
  7640.000000   1737605   1736898   1736012   1735032   1734062  
  7630.000000   1733193   1732481   1731956   1731616   1731452  
  7620.000000   1731444   1731566   1731779   1732030   1732266  
  7610.000000   1732437   1732523   1732515   1732430   1732269  
  7600.000000   1732030   1731692   1731250   1730727   1730207  
  7590.000000   1729820   1729716   1730017   1730753   1731849  
  7580.000000   1733125   1734357   1735340   1735944   1736150  
  7570.000000   1736022   1735685   1735252   1734802   1734362  
  7560.000000   1733941   1733545   1733214   1733004   1732977  
  7550.000000   1733156   1733511   1733959   1734400   1734756  
  7540.000000   1735014   1735223   1735487   1735912   1736577  
  7530.000000   1737491   1738603   1739820   1741057   1742254  
  7520.000000   1743399   1744509   1745614   1746722   1747814  
  7510.000000   1748845   1749771   1750565   1751242   1751845  
  7500.000000   1752447   1753111   1753879   1754755   1755715  
  7490.000000   1756717   1757726   1758723   1759719   1760738  
  7480.000000   1761810   1762946   1764136   1765340   1766512  
  7470.000000   1767614   1768644   1769637   1770667   1771816  
  7460.000000   1773150   1774685   1776380   1778138   1779843  
  7450.000000   1781391   1782732   1783875   1784890   1785874  
  7440.000000   1786924   1788100   1789417   1790845   1792339  
  7430.000000   1793848   1795338   1796786   1798185   1799524  
  7420.000000   1800794   1801993   1803136   1804267   1805458  
  7410.000000   1806797   1808361   1810187   1812258   1814497  
  7400.000000   1816782   1818983   1820996   1822761   1824288  
  7390.000000   1825633   1826894   1828168   1829530   1831010  
  7380.000000   1832593   1834219   1835812   1837305   1838662  
  7370.000000   1839902   1841085   1842299   1843628   1845121  
  7360.000000   1846768   1848503   1850225   1851829   1853256  
  7350.000000   1854505   1855649   1856805   1858095   1859603  
  7340.000000   1861344   1863266   1865261   1867213   1869029  
  7330.000000   1870659   1872102   1873398   1874604   1875774  
  7320.000000   1876944   1878122   1879300   1880454   1881566  
  7310.000000   1882625   1883637   1884632   1885644   1886726  
  7300.000000   1887916   1889251   1890736   1892357   1894068  
  7290.000000   1895803   1897482   1899023   1900349   1901397  
  7280.000000   1902129   1902540   1902665   1902582   1902409  
  7270.000000   1902283   1902336   1902666   1903314   1904257  
  7260.000000   1905419   1906696   1907987   1909220   1910371  
  7250.000000   1911453   1912514   1913596   1914737   1915938  
  7240.000000   1917193   1918466   1919745   1921012   1922284  
  7230.000000   1923576   1924926   1926356   1927897   1929558  
  7220.000000   1931355   1933279   1935330   1937486   1939737  
  7210.000000   1942063   1944465   1946943   1949518   1952195  
  7200.000000   1954984   1957863   1960806   1963764   1966710  
  7190.000000   1969618   1972508   1975408   1978371   1981420  
  7180.000000   1984561   1987746   1990915   1993990   1996935  
  7170.000000   1999749   2002509   2005322   2008328   2011620  
  7160.000000   2015242   2019148   2023244   2027400   2031519  
  7150.000000   2035536   2039474   2043387   2047384   2051539  
  7140.000000   2055908   2060471   2065187   2069979   2074806  
  7130.000000   2079646   2084531   2089502   2094614   2099877  
  7120.000000   2105282   2110763   2116257   2121681   2126997  
  7110.000000   2132176   2137245   2142234   2147211   2152234  
  7100.000000   2157380   2162707   2168267   2174073   2180114  
  7090.000000   2186330   2192654   2199005   2205333   2211611  
  7080.000000   2217852   2224077   2230315   2236562   2242808  
  7070.000000   2249018   2255176   2261282   2267369   2273479  
  7060.000000   2279648   2285882   2292155   2298417   2304615  
  7050.000000   2310719   2316732   2322687   2328621   2334558  
  7040.000000   2340487   2346377   2352184   2357887   2363488  
  7030.000000   2369027   2374546   2380082   2385638   2391194  
  7020.000000   2396713   2402175   2407573   2412930   2418261  
  7010.000000   2423571   2428824   2433973   2438962   2443779  
  7000.000000   2448450   2453054   2457668   2462353   2467096  
  6990.000000   2471834   2476453   2480865   2485013   2488929  
  6980.000000   2492688   2496399   2500132   2503923   2507730  
  6970.000000   2511491   2515122   2518581   2521847   2524949  
  6960.000000   2527913   2530784   2533578   2536321   2539016  
  6950.000000   2541681   2544311   2546903   2549420   2551822  
  6940.000000   2554058   2556106   2557969   2559694   2561336  
  6930.000000   2562962   2564608   2566295   2568013   2569760  
  6920.000000   2571525   2573319   2575132   2576943   2578696  
  6910.000000   2580321   2581748   2582943   2583920   2584744  
  6900.000000   2585498   2586258   2587060   2587902   2588755  
  6890.000000   2589601   2590451   2591357   2592382   2593573  
  6880.000000   2594919   2596358   2597779   2599081   2600199  
  6870.000000   2601134   2601943   2602703   2603471   2604252  
  6860.000000   2605009   2605677   2606206   2606589   2606865  
  6850.000000   2607109   2607391   2607761   2608223   2608760  
  6840.000000   2609339   2609948   2610588   2611278   2612028  
  6830.000000   2612834   2613662   2614466   2615191   2615800  
  6820.000000   2616266   2616580   2616741   2616752   2616626  
  6810.000000   2616392   2616093   2615787   2615523   2615338  
  6800.000000   2615226   2615165   2615116   2615066   2615027  
  6790.000000   2615047   2615169   2615415   2615744   2616062  
  6780.000000   2616243   2616175   2615806   2615164   2614348  
  6770.000000   2613493   2612720   2612105   2611659   2611361  
  6760.000000   2611170   2611064   2611033   2611078   2611178  
  6750.000000   2611285   2611324   2611218   2610923   2610442  
  6740.000000   2609838   2609195   2608599   2608095   2607681  
  6730.000000   2607319   2606962   2606581   2606178   2605779  
  6720.000000   2605415   2605097   2604809   2604515   2604172  
  6710.000000   2603761   2603286   2602780   2602280   2601818  
  6700.000000   2601403   2601028   2600672   2600322   2599962  
  6690.000000   2599583   2599162   2598671   2598069   2597328  
  6680.000000   2596439   2595434   2594369   2593319   2592337  
  6670.000000   2591455   2590653   2589893   2589116   2588279  
  6660.000000   2587352   2586327   2585200   2583969   2582625  
  6650.000000   2581166   2579605   2577981   2576355   2574802  
  6640.000000   2573379   2572127   2571040   2570092   2569227  
  6630.000000   2568398   2567553   2566658   2565681   2564598  
  6620.000000   2563392   2562058   2560609   2559077   2557504  
  6610.000000   2555930   2554376   2552846   2551320   2549780  
  6600.000000   2548209   2546615   2545012   2543422   2541851  
  6590.000000   2540295   2538734   2537154   2535556   2533965  
  6580.000000   2532418   2530951   2529575   2528265   2526972  
  6570.000000   2525633   2524202   2522666   2521050   2519402  
  6560.000000   2517778   2516218   2514737   2513328   2511975  
  6550.000000   2510666   2509401   2508189   2507041   2505962  
  6540.000000   2504947   2503983   2503059   2502168   2501305  
  6530.000000   2500459   2499610   2498717   2497736   2496624  
  6520.000000   2495364   2493970   2492490   2490996   2489560  
  6510.000000   2488243   2487081   2486085   2485242   2484525  
  6500.000000   2483892   2483296   2482676   2481975   2481143  
  6490.000000   2480152   2479015   2477771   2476491   2475243  
  6480.000000   2474084   2473037   2472099   2471247   2470453  
  6470.000000   2469699   2468978   2468286   2467614   2466940  
  6460.000000   2466231   2465455   2464592   2463642   2462632  
  6450.000000   2461598   2460577   2459593   2458653   2457751  
  6440.000000   2456879   2456031   2455208   2454412   2453642  
  6430.000000   2452886   2452129   2451357   2450569   2449781  
  6420.000000   2449029   2448349   2447773   2447308   2446941  
  6410.000000   2446638   2446360   2446069   2445742   2445370  
  6400.000000   2444955   2444511   2444059   2443630   2443254  
  6390.000000   2442962   2442769   2442667   2442622   2442579  
  6380.000000   2442473   2442249   2441879   2441365   2440737  
  6370.000000   2440042   2439324   2438615   2437936   2437296  
  6360.000000   2436702   2436160   2435672   2435234   2434827  
  6350.000000   2434424   2433994   2433522   2433011   2432489  
  6340.000000   2431993   2431555   2431183   2430858   2430537  
  6330.000000   2430172   2429723   2429177   2428539   2427833  
  6320.000000   2427075   2426280   2425443   2424561   2423627  
  6310.000000   2422650   2421642   2420617   2419576   2418510  
  6300.000000   2417393   2416213   2414963   2413665   2412354  
  6290.000000   2411073   2409848   2408685   2407563   2406449  
  6280.000000   2405305   2404108   2402846   2401526   2400157  
  6270.000000   2398754   2397325   2395882   2394433   2392992  
  6260.000000   2391564   2390148   2388728   2387277   2385766  
  6250.000000   2384184   2382535   2380857   2379192   2377582  
  6240.000000   2376042   2374564   2373108   2371632   2370102  
  6230.000000   2368508   2366861   2365186   2363507   2361830  
  6220.000000   2360149   2358447   2356714   2354953   2353183  
  6210.000000   2351435   2349738   2348111   2346559   2345076  
  6200.000000   2343656   2342293   2340983   2339721   2338492  
  6190.000000   2337269   2336022   2334726   2333377   2331990  
  6180.000000   2330605   2329266   2328008   2326842   2325755  
  6170.000000   2324710   2323667   2322590   2321459   2320267  
  6160.000000   2319017   2317715   2316374   2315006   2313633  
  6150.000000   2312286   2310997   2309791   2308678   2307641  
  6140.000000   2306648   2305661   2304648   2303597   2302521  
  6130.000000   2301450   2300419   2299452   2298559   2297728  
  6120.000000   2296940   2296167   2295391   2294594   2293770  
  6110.000000   2292914   2292034   2291143   2290266   2289437  
  6100.000000   2288693   2288060   2287553   2287156   2286843  
  6090.000000   2286574   2286319   2286057   2285790   2285527  
  6080.000000   2285285   2285066   2284871   2284679   2284485  
  6070.000000   2284280   2284084   2283918   2283820   2283817  
  6060.000000   2283935   2284177   2284548   2285034   2285631  
  6050.000000   2286324   2287107   2287961   2288875   2289824  
  6040.000000   2290803   2291796   2292812   2293854   2294941  
  6030.000000   2296077   2297275   2298532   2299853   2301234  
  6020.000000   2302677   2304181   2305747   2307366   2309031  
  6010.000000   2310725   2312441   2314163   2315891   2317616  
  6000.000000   2319341   2321054   2322757   2324445   2326127  
  5990.000000   2327813   2329531   2331302   2333157   2335110  
  5980.000000   2337173   2339338   2341601   2343943   2346354  
  5970.000000   2348818   2351327   2353866   2356431   2359005  
  5960.000000   2361593   2364186   2366796   2369422   2372082  
  5950.000000   2374780   2377534   2380356   2383266   2386283  
  5940.000000   2389428   2392714   2396144   2399705   2403364  
  5930.000000   2407074   2410776   2414408   2417915   2421255  
  5920.000000   2424404   2427363   2430150   2432799   2435353  
  5910.000000   2437852   2440328   2442798   2445265   2447727  
  5900.000000   2450173   2452606   2455023   2457439   2459857  
  5890.000000   2462286   2464719   2467151   2469569   2471970  
  5880.000000   2474347   2476698   2479014   2481277   2483461  
  5870.000000   2485538   2487486   2489304   2491010   2492642  
  5860.000000   2494246   2495863   2497521   2499234   2501007  
  5850.000000   2502843   2504751   2506748   2508847   2511051  
  5840.000000   2513347   2515699   2518064   2520398   2522674  
  5830.000000   2524882   2527037   2529160   2531281   2533418  
  5820.000000   2535586   2537789   2540026   2542292   2544572  
  5810.000000   2546847   2549087   2551267   2553360   2555371  
  5800.000000   2557309   2559223   2561137   2563094   2565076  
  5790.000000   2567071   2569004   2570818   2572418   2573743  
  5780.000000   2574706   2575252   2575309   2574845   2573840  
  5770.000000   2572340   2570425   2568236   2565915   2563612  
  5760.000000   2561420   2559402   2557555   2555866   2554299  
  5750.000000   2552842   2551483   2550230   2549081   2548033  
  5740.000000   2547073   2546186   2545368   2544612   2543926  
  5730.000000   2543296   2542708   2542124   2541517   2540861  
  5720.000000   2540165   2539457   2538786   2538190   2537695  
  5710.000000   2537288   2536940   2536611   2536278   2535941  
  5700.000000   2535623   2535361   2535179   2535089   2535074  
  5690.000000   2535112   2535172   2535242   2535312   2535385  
  5680.000000   2535443   2535467   2535409   2535226   2534874  
  5670.000000   2534332   2533587   2532647   2531511   2530186  
  5660.000000   2528671   2526986   2525159   2523254   2521336  
  5650.000000   2519479   2517724   2516089   2514553   2513081  
  5640.000000   2511634   2510191   2508746   2507307   2505886  
  5630.000000   2504485   2503103   2501732   2500379   2499057  
  5620.000000   2497797   2496622   2495551   2494574   2493667  
  5610.000000   2492793   2491924   2491044   2490163   2489299  
  5600.000000   2488472   2487686   2486937   2486202   2485466  
  5590.000000   2484718   2483959   2483196   2482433   2481666  
  5580.000000   2480878   2480054   2479184   2478279   2477365  
  5570.000000   2476475   2475634   2474848   2474097   2473345  
  5560.000000   2472550   2471683   2470733   2469708   2468631  
  5550.000000   2467527   2466416   2465312   2464224   2463157  
  5540.000000   2462121   2461121   2460160   2459235   2458337  
  5530.000000   2457457   2456591   2455741   2454913   2454114  
  5520.000000   2453338   2452572   2451788   2450961   2450070  
  5510.000000   2449112   2448095   2447040   2445965   2444883  
  5500.000000   2443796   2442705   2441609   2440515   2439432  
  5490.000000   2438371   2437329   2436297   2435248   2434159  
  5480.000000   2433006   2431783   2430491   2429146   2427761  
  5470.000000   2426348   2424912   2423456   2421978   2420482  
  5460.000000   2418965   2417424   2415847   2414220   2412530  
  5450.000000   2410776   2408970   2407141   2405319   2403533  
  5440.000000   2401796   2400105   2398456   2396843   2395277  
  5430.000000   2393770   2392335   2390962   2389630   2388293  
  5420.000000   2386924   2385507   2384082   2382712   2381490  
  5410.000000   2380477   2379707   2379142   2378728   2378383  
  5400.000000   2378070   2377768   2377511   2377332   2377280  
  5390.000000   2377357   2377567   2377876   2378284   2378789  
  5380.000000   2379434   2380245   2381263   2382470   2383853  
  5370.000000   2385347   2386926   2388543   2390220   2391951  
  5360.000000   2393792   2395745   2397864   2400147   2402657  
  5350.000000   2405405   2408479   2411893   2415719   2419930  
  5340.000000   2424556   2429535   2434894   2440585   2446664  
  5330.000000   2453099   2459952   2467175   2474820   2482835  
  5320.000000   2491293   2500173   2509587   2519525   2530099  
  5310.000000   2541267   2553101   2565524   2578593   2592246  
  5300.000000   2606572   2621552   2637313   2653860   2671319  
  5290.000000   2689666   2708961   2729093   2750019   2771557  
  5280.000000   2793638   2816131   2839067   2862442   2886386  
  5270.000000   2910936   2936142   2961905   2988084   3014461  
  5260.000000   3040853   3067144   3093310   3119406   3145480  
  5250.000000   3171560   3197545   3223300   3248574   3273214  
  5240.000000   3297049   3320108   3342396   3364084   3385222  
  5230.000000   3405943   3426191   3445968   3465098   3483530  
  5220.000000   3501103   3517850   3533723   3548873   3563333  
  5210.000000   3577276   3590689   3603643   3616006   3627749  
  5200.000000   3638702   3648881   3658212   3666819   3674712  
  5190.000000   3682042   3688799   3695070   3700782   3705975  
  5180.000000   3710562   3714594   3718006   3720863   3723112  
  5170.000000   3724816   3725934   3726549   3726654   3726352  
  5160.000000   3725644   3724606   3723197   3721444   3719280  
  5150.000000   3716736   3713781   3710486   3706859   3702978  
  5140.000000   3698841   3694495   3689917   3685145   3680168  
  5130.000000   3675035   3669748   3664351   3658830   3653201  
  5120.000000   3647443   3641572   3635587   3629525   3623405  
  5110.000000   3617261   3611095   3604919   3598721   3592511  
  5100.000000   3586292   3580093   3573934   3567837   3561804  
  5090.000000   3555826   3549879   3543946   3538011   3532073  
  5080.000000   3526137   3520213   3514301   3508402   3502501  
  5070.000000   3496596   3490677   3484752   3478827   3472912  
  5060.000000   3467005   3461101   3455181   3449226   3443215  
  5050.000000   3437140   3430992   3424775   3418492   3412152  
  5040.000000   3405761   3399331   3392878   3386419   3379974  
  5030.000000   3373556   3367179   3360845   3354562   3348329  
  5020.000000   3342160   3336065   3330067   3324177   3318417  
  5010.000000   3312783   3307281   3301892   3296623   3291458  
  5000.000000   3286420   3281508   3276760   3272183   3267815  
  4990.000000   3263653   3259727   3256020   3252556   3249309  
  4980.000000   3246300   3243501   3240939   3238592   3236499  
  4970.000000   3234648   3233087   3231800   3230830   3230147  
  4960.000000   3229778   3229685   3229898   3230391   3231211  
  4950.000000   3232345   3233844   3235687   3237910   3240468  
  4940.000000   3243379   3246589   3250115   3253912   3258008  
  4930.000000   3262366   3267021   3271945   3277180   3282706  
  4920.000000   3288570   3294756   3301298   3308161   3315348  
  4910.000000   3322801   3330504   3338402   3346485   3354725  
  4900.000000   3363127   3371683   3380393   3389243   3398209  
  4890.000000   3407258   3416339   3425405   3434389   3443245  
  4880.000000   3451902   3460326   3468455   3476271   3483722  
  4870.000000   3490804   3497472   3503735   3509558   3514968  
  4860.000000   3519946   3524535   3528722   3532548   3535994  
  4850.000000   3539096   3541836   3544264   3546387   3548278  
  4840.000000   3549965   3551522   3552969   3554354   3555671  
  4830.000000   3556941   3558151   3559318   3560435   3561519  
  4820.000000   3562568   3563590   3564579   3565538   3566468  
  4810.000000   3567379   3568287   3569210   3570166   3571169  
  4800.000000   3572227   3573343   3574520   3575755   3577045  
  4790.000000   3578382   3579750   3581128   3582496   3583836  
  4780.000000   3585145   3586432   3587720   3589037   3590401  
  4770.000000   3591820   3593278   3594747   3596187   3597565  
  4760.000000   3598853   3600044   3601132   3602128   3603029  
  4750.000000   3603840   3604554   3605172   3605691   3606129  
  4740.000000   3606494   3606813   3607096   3607361   3607600  
  4730.000000   3607812   3607978   3608085   3608116   3608059  
  4720.000000   3607904   3607646   3607293   3606853   3606354  
  4710.000000   3605824   3605307   3604845   3604483   3604255  
  4700.000000   3604193   3604314   3604633   3605151   3605865  
  4690.000000   3606761   3607820   3609009   3610299   3611648  
  4680.000000   3613030   3614404   3615752   3617043   3618268  
  4670.000000   3619400   3620441   3621386   3622260   3623088  
  4660.000000   3623926   3624824   3625846   3627036   3628435  
  4650.000000   3630056   3631905   3633963   3636210   3638612  
  4640.000000   3641138   3643754   3646431   3649142   3651865  
  4630.000000   3654581   3657271   3659919   3662503   3665004  
  4620.000000   3667395   3669652   3671746   3673660   3675370  
  4610.000000   3676873   3678160   3679248   3680146   3680894  
  4600.000000   3681512   3682048   3682523   3682974   3683398  
  4590.000000   3683810   3684179   3684498   3684723   3684838  
  4580.000000   3684804   3684611   3684230   3683662   3682893  
  4570.000000   3681941   3680811   3679538   3678141   3676660  
  4560.000000   3675113   3673527   3671902   3670246   3668550  
  4550.000000   3666816   3665038   3663223   3661373   3659498  
  4540.000000   3657604   3655704   3653810   3651937   3650106  
  4530.000000   3648331   3646628   3644993   3643430   3641915  
  4520.000000   3640454   3639028   3637665   3636365   3635184  
  4510.000000   3634130   3633271   3632609   3632216   3632096  
  4500.000000   3632335   3632947   3634031   3635598   3637741  
  4490.000000   3640447   3643791   3647737   3652349   3657580  
  4480.000000   3663489   3670029   3677252   3685106   3693636  
  4470.000000   3702782   3712581   3722964   3733951   3745456  
  4460.000000   3757470   3769889   3782677   3795723   3808983  
  4450.000000   3822369   3835853   3849386   3862970   3876590  
  4440.000000   3890254   3903959   3917689   3931426   3945122  
  4430.000000   3958744   3972219   3985520   3998565   4011343  
  4420.000000   4023775   4035862   4047528   4058775   4069520  
  4410.000000   4079756   4089389   4098408   4106721   4114338  
  4400.000000   4121207   4127383   4132869   4137769   4142123  
  4390.000000   4146052   4149607   4152900   4155978   4158932  
  4380.000000   4161797   4164639   4167482   4170374   4173334  
  4370.000000   4176409   4179633   4183053   4186715   4190657  
  4360.000000   4194908   4199483   4204371   4209556   4214971  
  4350.000000   4220578   4226267   4232004   4237693   4243351  
  4340.000000   4248940   4254514   4260017   4265382   4270350  
  4330.000000   4274578   4277565   4278826   4277933   4274702  
  4320.000000   4269215   4261897   4253380   4244445   4235802  
  4310.000000   4228038   4221458   4216174   4212066   4208949  
  4300.000000   4206583   4204785   4203421   4202406   4201706  
  4290.000000   4201269   4201097   4201149   4201450   4201987  
  4280.000000   4202801   4203888   4205253   4206873   4208711  
  4270.000000   4210743   4212925   4215222   4217538   4219731  
  4260.000000   4221563   4222751   4222977   4221990   4219648  
  4250.000000   4215993   4211225   4205702   4199824   4194005  
  4240.000000   4188545   4183655   4179379   4175691   4172465  
  4230.000000   4169578   4166893   4164304   4161730   4159111  
  4220.000000   4156433   4153687   4150927   4148202   4145627  
  4210.000000   4143278   4141267   4139636   4138430   4137621  
  4200.000000   4137182   4137035   4137129   4137380   4137756  
  4190.000000   4138195   4138696   4139226   4139813   4140442  
  4180.000000   4141160   4141956   4142881   4143930   4145162  
  4170.000000   4146590   4148294   4150308   4152724   4155564  
  4160.000000   4158896   4162701   4167005   4171751   4176952  
  4150.000000   4182548   4188562   4194946   4201733   4208876  
  4140.000000   4216408   4224281   4232538   4241140   4250141  
  4130.000000   4259509   4269298   4279469   4290063   4301039  
  4120.000000   4312440   4324243   4336504   4349220   4362448  
  4110.000000   4376175   4390427   4405157   4420343   4435899  
  4100.000000   4451771   4467861   4484110   4500443   4516828  
  4090.000000   4533233   4549654   4566092   4582555   4599060  
  4080.000000   4615607   4632217   4648870   4665571   4682253  
  4070.000000   4698882   4715337   4731551   4747388   4762801  
  4060.000000   4777690   4792061   4805848   4819094   4831747  
  4050.000000   4843872   4855435   4866538   4877158   4887398  
  4040.000000   4897193   4906583   4915433   4923732   4931333  
  4030.000000   4938253   4944392   4949809   4954439   4958331  
  4020.000000   4961394   4963687   4965195   4966018   4966146  
  4010.000000   4965740   4964887   4963619   4961734   4959276  
  4000.000000   4956521  
##END= 
