##TITLE= Sample 009 By ssteindl date Donnerstag, November 22 2018
##JCAMP-DX= 4.24
##DATA TYPE= INFRARED SPECTRUM
##ORIGIN= Exported PE Spectrum Data File
##OWNER= Sandra Steindl
##DATE= 18/11/22
##TIME= 13:16:17.00
##SPECTROMETER/DATA SYSTEM= PERKIN-ELMER Frontier FT-IR/NIR IR
##INSTRUMENT PARAMETERS=
  APODIZATION=stark
  DETECTOR=INGAAS
##RESOLUTION= 16.000000
##DELTAX= -2.000000
##XUNITS= 1/CM
##YUNITS= A
##XFACTOR= 1.00
##YFACTOR= 0.00000011920928955078
##FIRSTX= 10000.00
##LASTX= 4000.00
##NPOINTS= 3001
##FIRSTY= 0.237996
##MAXY= 0.653979
##MINY= 0.196307
##XYDATA= (X++(Y..Y))
 10000.000000   1996458   1993918   1991265   1988248   1984725  
  9990.000000   1980902   1977374   1974910   1974090   1974966  
  9980.000000   1976956   1978918   1979560   1977849   1973505  
  9970.000000   1967052   1959707   1952870   1947673   1944606  
  9960.000000   1943480   1943661   1944421   1945271   1946039  
  9950.000000   1946838   1947800   1948948   1950096   1950962  
  9940.000000   1951352   1951232   1950780   1950152   1949386  
  9930.000000   1948235   1946295   1943217   1938935   1933875  
  9920.000000   1928809   1924688   1922199   1921574   1922448  
  9910.000000   1924088   1925652   1926483   1926258   1924917  
  9900.000000   1922594   1919401   1915470   1910916   1906026  
  9890.000000   1901217   1897075   1894093   1892603   1892551  
  9880.000000   1893638   1895391   1897419   1899527   1901698  
  9870.000000   1904030   1906540   1909176   1911825   1914505  
  9860.000000   1917456   1921133   1926001   1932217   1939379  
  9850.000000   1946428   1951922   1954422   1953066   1947872  
  9840.000000   1939793   1930432   1921470   1914255   1909400  
  9830.000000   1906948   1906450   1907441   1909485   1912355  
  9820.000000   1915772   1919362   1922477   1924347   1924277  
  9810.000000   1921878   1917312   1911152   1904379   1897903  
  9800.000000   1892507   1888525   1885955   1884473   1883609  
  9790.000000   1882922   1882085   1881050   1880009   1879465  
  9780.000000   1880042   1882370   1886786   1893156   1900791  
  9770.000000   1908537   1915127   1919487   1921104   1920081  
  9760.000000   1917066   1912938   1908528   1904359   1900639  
  9750.000000   1897321   1894306   1891570   1889156   1887159  
  9740.000000   1885521   1884112   1882700   1881225   1879843  
  9730.000000   1879016   1879285   1881030   1884182   1888128  
  9720.000000   1891875   1894380   1894973   1893582   1890765  
  9710.000000   1887410   1884363   1882053   1880373   1878807  
  9700.000000   1876763   1873906   1870346   1866591   1863282  
  9690.000000   1860911   1859570   1858997   1858714   1858318  
  9680.000000   1857644   1856797   1856044   1855615   1855604  
  9670.000000   1855918   1856387   1856828   1857171   1857389  
  9660.000000   1857503   1857431   1857029   1856084   1854488  
  9650.000000   1852342   1849996   1847993   1846837   1846853  
  9640.000000   1848008   1850007   1852381   1854734   1856823  
  9630.000000   1858607   1860124   1861356   1862146   1862169  
  9620.000000   1861089   1858686   1855047   1850559   1845846  
  9610.000000   1841564   1838190   1835950   1834749   1834351  
  9600.000000   1834439   1834798   1835327   1836037   1836947  
  9590.000000   1837994   1838956   1839499   1839244   1837954  
  9580.000000   1835621   1832553   1829302   1826528   1824810  
  9570.000000   1824439   1825310   1826859   1828207   1828345  
  9560.000000   1826457   1822164   1815699   1807870   1799900  
  9550.000000   1793106   1788597   1786991   1788297   1791933  
  9540.000000   1796905   1802067   1806398   1809231   1810372  
  9530.000000   1810108   1809074   1808043   1807681   1808324  
  9520.000000   1809914   1812003   1813981   1815264   1815522  
  9510.000000   1814749   1813187   1811195   1809009   1806683  
  9500.000000   1804063   1800954   1797308   1793353   1789604  
  9490.000000   1786689   1785080   1784889   1785766   1787048  
  9480.000000   1788023   1788208   1787560   1786440   1785445  
  9470.000000   1785090   1785563   1786657   1787894   1788813  
  9460.000000   1789202   1789212   1789241   1789726   1790883  
  9450.000000   1792585   1794348   1795523   1795506   1793963  
  9440.000000   1790928   1786762   1782016   1777243   1772878  
  9430.000000   1769177   1766237   1764042   1762488   1761414  
  9420.000000   1760601   1759828   1758900   1757762   1756513  
  9410.000000   1755411   1754795   1754923   1755922   1757644  
  9400.000000   1759773   1761827   1763327   1763877   1763279  
  9390.000000   1761582   1759089   1756306   1753842   1752285  
  9380.000000   1752056   1753285   1755718   1758720   1761407  
  9370.000000   1762892   1762596   1760431   1756861   1752730  
  9360.000000   1748992   1746412   1745322   1745582   1746684  
  9350.000000   1748046   1749246   1750190   1751046   1752098  
  9340.000000   1753510   1755207   1756825   1757828   1757711  
  9330.000000   1756201   1753420   1749823   1746089   1742895  
  9320.000000   1740730   1739801   1739943   1740729   1741561  
  9310.000000   1741891   1741378   1739988   1737971   1735781  
  9300.000000   1733886   1732621   1732044   1731935   1731922  
  9290.000000   1731637   1730929   1729887   1728811   1728017  
  9280.000000   1727652   1727576   1727405   1726697   1725208  
  9270.000000   1723029   1720609   1718593   1717574   1717827  
  9260.000000   1719181   1721097   1722921   1724145   1724571  
  9250.000000   1724324   1723701   1723010   1722399   1721854  
  9240.000000   1721277   1720628   1720033   1719726   1719926  
  9230.000000   1720592   1721366   1721634   1720789   1718499  
  9220.000000   1714893   1710596   1706535   1703631   1702446  
  9210.000000   1703042   1704996   1707658   1710377   1712719  
  9200.000000   1714503   1715724   1716437   1716623   1716203  
  9190.000000   1715075   1713254   1710919   1708412   1706119  
  9180.000000   1704333   1703199   1702684   1702702   1703118  
  9170.000000   1703860   1704834   1705908   1706825   1707227  
  9160.000000   1706760   1705207   1702636   1699383   1695962  
  9150.000000   1692860   1690380   1688563   1687220   1686106  
  9140.000000   1685052   1684105   1683455   1683323   1683788  
  9130.000000   1684659   1685557   1685988   1685624   1684310  
  9120.000000   1682187   1679530   1676704   1674001   1671638  
  9110.000000   1669824   1668841   1669077   1670900   1674513  
  9100.000000   1679754   1686049   1692450   1697894   1701497  
  9090.000000   1702828   1702039   1699748   1696834   1694111  
  9080.000000   1692143   1691093   1690778   1690822   1690823  
  9070.000000   1690503   1689707   1688465   1686882   1685185  
  9060.000000   1683577   1682318   1681604   1681572   1682212  
  9050.000000   1683359   1684721   1685931   1686636   1686576  
  9040.000000   1685645   1683865   1681374   1678368   1675105  
  9030.000000   1671844   1668827   1666261   1664288   1662961  
  9020.000000   1662210   1661885   1661812   1661855   1661956  
  9010.000000   1662116   1662374   1662704   1663000   1663053  
  9000.000000   1662682   1661798   1660540   1659236   1658350  
  8990.000000   1658279   1659213   1661024   1663306   1665505  
  8980.000000   1667100   1667797   1667600   1666808   1665853  
  8970.000000   1665186   1665104   1665729   1666976   1668620  
  8960.000000   1670350   1671824   1672725   1672782   1671831  
  8950.000000   1669854   1667015   1663640   1660147   1656954  
  8940.000000   1654379   1652568   1651488   1651006   1650967  
  8930.000000   1651286   1651931   1652929   1654276   1655887  
  8920.000000   1657564   1659032   1660054   1660475   1660324  
  8910.000000   1659732   1658947   1658162   1657507   1656976  
  8900.000000   1656503   1655998   1655416   1654806   1654285  
  8890.000000   1654033   1654209   1654936   1656242   1658064  
  8880.000000   1660250   1662573   1664794   1666663   1667994  
  8870.000000   1668670   1668696   1668170   1667275   1666228  
  8860.000000   1665249   1664535   1664227   1664418   1665114  
  8850.000000   1666268   1667739   1669339   1670831   1672002  
  8840.000000   1672720   1672952   1672778   1672319   1671710  
  8830.000000   1671017   1670253   1669381   1668412   1667451  
  8820.000000   1666720   1666512   1667072   1668505   1670688  
  8810.000000   1673303   1675924   1678162   1679799   1680821  
  8800.000000   1681400   1681777   1682151   1682607   1683111  
  8790.000000   1683586   1683984   1684358   1684836   1685569  
  8780.000000   1686614   1687884   1689125   1690009   1690236  
  8770.000000   1689649   1688297   1686407   1684325   1682388  
  8760.000000   1680853   1679837   1679337   1679270   1679522  
  8750.000000   1679987   1680578   1681245   1681969   1682776  
  8740.000000   1683723   1684887   1686340   1688098   1690104  
  8730.000000   1692191   1694153   1695763   1696875   1697434  
  8720.000000   1697515   1697268   1696884   1696527   1696311  
  8710.000000   1696289   1696485   1696902   1697548   1698412  
  8700.000000   1699466   1700638   1701822   1702905   1703799  
  8690.000000   1704496   1705069   1705692   1706576   1707937  
  8680.000000   1709925   1712582   1715800   1719331   1722794  
  8670.000000   1725752   1727802   1728674   1728332   1726969  
  8660.000000   1724999   1722921   1721222   1720196   1719896  
  8650.000000   1720124   1720552   1720860   1720879   1720673  
  8640.000000   1720515   1720794   1721859   1723897   1726881  
  8630.000000   1730559   1734559   1738468   1741982   1744922  
  8620.000000   1747284   1749165   1750749   1752216   1753729  
  8610.000000   1755377   1757190   1759115   1761054   1762887  
  8600.000000   1764508   1765888   1767054   1768132   1769245  
  8590.000000   1770539   1772094   1773946   1776068   1778401  
  8580.000000   1780854   1783304   1785579   1787468   1788730  
  8570.000000   1789182   1788757   1787598   1786056   1784640  
  8560.000000   1783857   1784064   1785314   1787339   1789608  
  8550.000000   1791521   1792592   1792633   1791777   1790433  
  8540.000000   1789107   1788257   1788147   1788808   1790086  
  8530.000000   1791718   1793464   1795119   1796544   1797620  
  8520.000000   1798248   1798350   1797907   1797015   1795913  
  8510.000000   1794941   1794455   1794713   1795795   1797554  
  8500.000000   1799666   1801725   1803392   1804456   1804896  
  8490.000000   1804824   1804455   1803994   1803600   1803369  
  8480.000000   1803375   1803695   1804433   1805706   1807604  
  8470.000000   1810136   1813163   1816420   1819551   1822202  
  8460.000000   1824114   1825187   1825526   1825375   1825058  
  8450.000000   1824854   1824931   1825309   1825871   1826453  
  8440.000000   1826906   1827195   1827386   1827646   1828137  
  8430.000000   1828971   1830124   1831458   1832765   1833836  
  8420.000000   1834566   1834956   1835135   1835259   1835462  
  8410.000000   1835786   1836182   1836555   1836831   1837024  
  8400.000000   1837253   1837734   1838677   1840226   1842352  
  8390.000000   1844877   1847494   1849868   1851714   1852873  
  8380.000000   1853335   1853213   1852683   1851923   1851079  
  8370.000000   1850246   1849475   1848787   1848189   1847689  
  8360.000000   1847270   1846910   1846552   1846162   1845713  
  8350.000000   1845243   1844819   1844543   1844494   1844708  
  8340.000000   1845133   1845653   1846109   1846362   1846335  
  8330.000000   1846036   1845552   1844994   1844445   1843907  
  8320.000000   1843304   1842497   1841363   1839843   1837999  
  8310.000000   1836004   1834092   1832488   1831328   1830637  
  8300.000000   1830324   1830257   1830318   1830460   1830711  
  8290.000000   1831134   1831771   1832574   1833398   1834021  
  8280.000000   1834226   1833879   1833006   1831775   1830459  
  8270.000000   1829332   1828576   1828232   1828179   1828210  
  8260.000000   1828103   1827722   1827040   1826156   1825218  
  8250.000000   1824385   1823744   1823296   1822952   1822572  
  8240.000000   1822018   1821192   1820060   1818650   1817040  
  8230.000000   1815345   1813687   1812186   1810925   1809950  
  8220.000000   1809239   1808724   1808287   1807807   1807181  
  8210.000000   1806366   1805384   1804307   1803216   1802162  
  8200.000000   1801135   1800073   1798887   1797512   1795952  
  8190.000000   1794306   1792744   1791451   1790540   1790013  
  8180.000000   1789725   1789446   1788926   1787992   1786610  
  8170.000000   1784898   1783081   1781400   1780015   1778938  
  8160.000000   1778035   1777084   1775879   1774312   1772426  
  8150.000000   1770404   1768502   1766952   1765867   1765215  
  8140.000000   1764820   1764452   1763907   1763082   1761999  
  8130.000000   1760779   1759584   1758550   1757734   1757102  
  8120.000000   1756546   1755918   1755089   1753968   1752539  
  8110.000000   1750843   1748976   1747062   1745229   1743589  
  8100.000000   1742210   1741117   1740277   1739626   1739080  
  8090.000000   1738584   1738114   1737689   1737344   1737091  
  8080.000000   1736893   1736641   1736190   1735387   1734141  
  8070.000000   1732454   1730442   1728298   1726249   1724485  
  8060.000000   1723113   1722133   1721455   1720935   1720425  
  8050.000000   1719807   1719025   1718081   1717027   1715941  
  8040.000000   1714914   1714022   1713324   1712844   1712576  
  8030.000000   1712479   1712498   1712569   1712644   1712684  
  8020.000000   1712666   1712566   1712350   1711973   1711397  
  8010.000000   1710609   1709650   1708622   1707665   1706933  
  8000.000000   1706518   1706448   1706631   1706918   1707117  
  7990.000000   1707073   1706699   1705988   1704998   1703799  
  7980.000000   1702449   1700951   1699287   1697432   1695413  
  7970.000000   1693325   1691337   1689656   1688469   1687902  
  7960.000000   1687965   1688566   1689520   1690598   1691580  
  7950.000000   1692285   1692609   1692521   1692073   1691367  
  7940.000000   1690558   1689800   1689249   1689004   1689106  
  7930.000000   1689503   1690074   1690646   1691037   1691112  
  7920.000000   1690817   1690209   1689431   1688689   1688181  
  7910.000000   1688052   1688346   1688999   1689859   1690730  
  7900.000000   1691422   1691798   1691798   1691441   1690802  
  7890.000000   1689990   1689119   1688291   1687590   1687073  
  7880.000000   1686762   1686643   1686659   1686721   1686720  
  7870.000000   1686572   1686235   1685745   1685203   1684746  
  7860.000000   1684501   1684517   1684758   1685089   1685338  
  7850.000000   1685354   1685071   1684542   1683918   1683403  
  7840.000000   1683175   1683331   1683860   1684651   1685542  
  7830.000000   1686366   1686995   1687356   1687424   1687209  
  7820.000000   1686738   1686056   1685229   1684351   1683540  
  7810.000000   1682919   1682576   1682546   1682781   1683180  
  7800.000000   1683598   1683909   1684021   1683907   1683590  
  7790.000000   1683128   1682581   1682000   1681411   1680827  
  7780.000000   1680247   1679671   1679089   1678483   1677827  
  7770.000000   1677089   1676245   1675294   1674261   1673196  
  7760.000000   1672155   1671184   1670305   1669515   1668797  
  7750.000000   1668139   1667546   1667038   1666641   1666365  
  7740.000000   1666192   1666071   1665938   1665733   1665433  
  7730.000000   1665052   1664642   1664260   1663944   1663695  
  7720.000000   1663474   1663229   1662912   1662515   1662061  
  7710.000000   1661605   1661195   1660852   1660553   1660237  
  7700.000000   1659827   1659254   1658496   1657566   1656533  
  7690.000000   1655474   1654472   1653579   1652818   1652180  
  7680.000000   1651637   1651168   1650761   1650436   1650230  
  7670.000000   1650196   1650381   1650805   1651448   1652226  
  7660.000000   1653009   1653623   1653909   1653739   1653084  
  7650.000000   1652005   1650667   1649283   1648073   1647206  
  7640.000000   1646764   1646740   1647048   1647566   1648171  
  7630.000000   1648768   1649294   1649715   1650007   1650147  
  7620.000000   1650122   1649937   1649643   1649330   1649124  
  7610.000000   1649148   1649477   1650106   1650941   1651820  
  7600.000000   1652565   1653026   1653132   1652892   1652390  
  7590.000000   1651742   1651066   1650454   1649967   1649646  
  7580.000000   1649530   1649663   1650085   1650814   1651821  
  7570.000000   1653013   1654251   1655370   1656241   1656789  
  7560.000000   1657037   1657071   1657031   1657055   1657257  
  7550.000000   1657696   1658383   1659285   1660350   1661511  
  7540.000000   1662704   1663864   1664928   1665840   1666569  
  7530.000000   1667107   1667495   1667794   1668093   1668469  
  7520.000000   1668989   1669683   1670561   1671602   1672776  
  7510.000000   1674042   1675356   1676672   1677951   1679164  
  7500.000000   1680311   1681411   1682520   1683691   1684972  
  7490.000000   1686365   1687840   1689321   1690728   1691995  
  7480.000000   1693110   1694114   1695100   1696176   1697439  
  7470.000000   1698946   1700703   1702666   1704768   1706925  
  7460.000000   1709066   1711126   1713060   1714831   1716427  
  7450.000000   1717850   1719140   1720359   1721602   1722962  
  7440.000000   1724522   1726324   1728365   1730599   1732954  
  7430.000000   1735353   1737733   1740052   1742296   1744467  
  7420.000000   1746580   1748645   1750681   1752705   1754748  
  7410.000000   1756841   1759018   1761295   1763664   1766081  
  7400.000000   1768480   1770782   1772926   1774890   1776702  
  7390.000000   1778438   1780195   1782068   1784108   1786317  
  7380.000000   1788639   1790992   1793291   1795485   1797570  
  7370.000000   1799578   1801562   1803558   1805571   1807565  
  7360.000000   1809480   1811260   1812879   1814360   1815774  
  7350.000000   1817221   1818803   1820602   1822647   1824929  
  7340.000000   1827398   1829985   1832608   1835181   1837618  
  7330.000000   1839838   1841774   1843394   1844721   1845830  
  7320.000000   1846842   1847901   1849135   1850634   1852421  
  7310.000000   1854460   1856657   1858901   1861074   1863087  
  7300.000000   1864882   1866445   1867790   1868967   1870037  
  7290.000000   1871069   1872121   1873223   1874374   1875550  
  7280.000000   1876709   1877820   1878867   1879862   1880828  
  7270.000000   1881789   1882750   1883689   1884577   1885386  
  7260.000000   1886129   1886848   1887632   1888562   1889700  
  7250.000000   1891042   1892536   1894086   1895610   1897065  
  7240.000000   1898485   1899958   1901607   1903522   1905749  
  7230.000000   1908244   1910926   1913672   1916393   1919016  
  7220.000000   1921527   1923917   1926206   1928404   1930547  
  7210.000000   1932675   1934876   1937245   1939897   1942902  
  7200.000000   1946286   1949996   1953929   1957943   1961916  
  7190.000000   1965744   1969387   1972835   1976130   1979314  
  7180.000000   1982453   1985595   1988800   1992108   1995571  
  7170.000000   1999209   2003042   2007044   2011184   2015399  
  7160.000000   2019640   2023848   2028000   2032078   2036112  
  7150.000000   2040144   2044268   2048580   2053195   2058177  
  7140.000000   2063553   2069252   2075163   2081119   2087002  
  7130.000000   2092717   2098271   2103707   2109131   2114618  
  7120.000000   2120240   2126006   2131926   2137995   2144256  
  7110.000000   2150761   2157578   2164734   2172208   2179895  
  7100.000000   2187657   2195331   2202810   2210039   2217047  
  7090.000000   2223894   2230664   2237414   2244183   2250987  
  7080.000000   2257849   2264801   2271888   2279137   2286540  
  7070.000000   2294034   2301517   2308873   2316017   2322922  
  7060.000000   2329638   2336261   2342913   2349694   2356665  
  7050.000000   2363833   2371169   2378620   2386127   2393638  
  7040.000000   2401104   2408488   2415757   2422898   2429921  
  7030.000000   2436857   2443752   2450648   2457562   2464486  
  7020.000000   2471376   2478189   2484878   2491437   2497868  
  7010.000000   2504205   2510465   2516666   2522792   2528838  
  7000.000000   2534779   2540622   2546361   2552010   2557554  
  6990.000000   2562989   2568289   2573457   2578501   2583468  
  6980.000000   2588392   2593310   2598198   2603012   2607660  
  6970.000000   2612078   2616219   2620113   2623820   2627446  
  6960.000000   2631065   2634724   2638399   2642047   2645589  
  6950.000000   2648984   2652203   2655272   2658215   2661082  
  6940.000000   2663892   2666670   2669410   2672117   2674773  
  6930.000000   2677367   2679864   2682235   2684443   2686480  
  6920.000000   2688350   2690098   2691766   2693405   2695026  
  6910.000000   2696625   2698168   2699635   2701020   2702358  
  6900.000000   2703700   2705101   2706586   2708143   2709718  
  6890.000000   2711242   2712660   2713951   2715138   2716273  
  6880.000000   2717415   2718613   2719882   2721219   2722600  
  6870.000000   2724003   2725406   2726795   2728153   2729463  
  6860.000000   2730701   2731855   2732920   2733913   2734858  
  6850.000000   2735783   2736706   2737634   2738563   2739491  
  6840.000000   2740418   2741350   2742286   2743211   2744084  
  6830.000000   2744858   2745486   2745958   2746303   2746600  
  6820.000000   2746939   2747400   2748010   2748737   2749499  
  6810.000000   2750198   2750754   2751131   2751340   2751426  
  6800.000000   2751437   2751407   2751345   2751249   2751112  
  6790.000000   2750952   2750796   2750687   2750651   2750697  
  6780.000000   2750809   2750962   2751124   2751280   2751415  
  6770.000000   2751518   2751567   2751528   2751371   2751090  
  6760.000000   2750714   2750317   2749996   2749838   2749883  
  6750.000000   2750108   2750426   2750721   2750888   2750870  
  6740.000000   2750674   2750365   2750032   2749761   2749599  
  6730.000000   2749556   2749607   2749709   2749820   2749901  
  6720.000000   2749919   2749842   2749636   2749278   2748757  
  6710.000000   2748093   2747329   2746528   2745751   2745047  
  6700.000000   2744437   2743921   2743479   2743096   2742749  
  6690.000000   2742431   2742128   2741827   2741502   2741136  
  6680.000000   2740708   2740217   2739668   2739073   2738439  
  6670.000000   2737757   2737001   2736140   2735142   2733999  
  6660.000000   2732721   2731349   2729933   2728536   2727202  
  6650.000000   2725967   2724833   2723792   2722807   2721839  
  6640.000000   2720838   2719768   2718603   2717340   2715991  
  6630.000000   2714579   2713124   2711638   2710120   2708567  
  6620.000000   2706978   2705373   2703785   2702267   2700856  
  6610.000000   2699575   2698404   2697295   2696178   2694989  
  6600.000000   2693688   2692269   2690756   2689190   2687607  
  6590.000000   2686033   2684473   2682924   2681374   2679822  
  6580.000000   2678269   2676721   2675184   2673660   2672148  
  6570.000000   2670645   2669148   2667653   2666152   2664631  
  6560.000000   2663071   2661456   2659787   2658084   2656393  
  6550.000000   2654770   2653268   2651917   2650711   2649614  
  6540.000000   2648569   2647521   2646429   2645274   2644055  
  6530.000000   2642777   2641450   2640080   2638680   2637271  
  6520.000000   2635889   2634573   2633352   2632235   2631203  
  6510.000000   2630219   2629239   2628236   2627206   2626168  
  6500.000000   2625149   2624167   2623217   2622276   2621313  
  6490.000000   2620309   2619273   2618233   2617223   2616262  
  6480.000000   2615336   2614397   2613386   2612253   2610987  
  6470.000000   2609620   2608215   2606840   2605539   2604322  
  6460.000000   2603162   2602026   2600890   2599764   2598689  
  6450.000000   2597720   2596900   2596238   2595703   2595228  
  6440.000000   2594737   2594155   2593442   2592578   2591583  
  6430.000000   2590495   2589375   2588285   2587297   2586466  
  6420.000000   2585833   2585398   2585130   2584967   2584836  
  6410.000000   2584672   2584443   2584150   2583828   2583520  
  6400.000000   2583270   2583095   2582994   2582939   2582904  
  6390.000000   2582857   2582777   2582650   2582467   2582225  
  6380.000000   2581927   2581591   2581241   2580913   2580634  
  6370.000000   2580417   2580246   2580085   2579882   2579593  
  6360.000000   2579191   2578682   2578088   2577453   2576813  
  6350.000000   2576202   2575640   2575142   2574711   2574346  
  6340.000000   2574023   2573704   2573327   2572833   2572176  
  6330.000000   2571351   2570396   2569392   2568428   2567584  
  6320.000000   2566888   2566324   2565820   2565299   2564689  
  6310.000000   2563957   2563106   2562169   2561181   2560169  
  6300.000000   2559128   2558041   2556876   2555610   2554228  
  6290.000000   2552735   2551144   2549487   2547794   2546114  
  6280.000000   2544491   2542971   2541576   2540304   2539115  
  6270.000000   2537952   2536740   2535429   2533993   2532449  
  6260.000000   2530838   2529212   2527604   2526023   2524448  
  6250.000000   2522843   2521173   2519422   2517594   2515717  
  6240.000000   2513819   2511932   2510073   2508254   2506481  
  6230.000000   2504758   2503084   2501457   2499860   2498275  
  6220.000000   2496680   2495056   2493397   2491704   2489987  
  6210.000000   2488249   2486489   2484699   2482873   2481016  
  6200.000000   2479150   2477315   2475556   2473908   2472385  
  6190.000000   2470971   2469633   2468324   2467008   2465660  
  6180.000000   2464270   2462836   2461366   2459864   2458344  
  6170.000000   2456826   2455349   2453954   2452681   2451547  
  6160.000000   2450538   2449607   2448687   2447710   2446631  
  6150.000000   2445438   2444157   2442832   2441517   2440247  
  6140.000000   2439042   2437894   2436785   2435687   2434581  
  6130.000000   2433450   2432288   2431097   2429890   2428687  
  6120.000000   2427519   2426416   2425408   2424505   2423708  
  6110.000000   2422998   2422357   2421763   2421210   2420696  
  6100.000000   2420230   2419808   2419423   2419048   2418666  
  6090.000000   2418253   2417814   2417360   2416924   2416532  
  6080.000000   2416213   2415975   2415824   2415755   2415771  
  6070.000000   2415870   2416059   2416330   2416676   2417074  
  6060.000000   2417513   2417979   2418487   2419046   2419685  
  6050.000000   2420410   2421228   2422113   2423054   2424028  
  6040.000000   2425047   2426126   2427303   2428600   2430037  
  6030.000000   2431599   2433266   2435004   2436796   2438625  
  6020.000000   2440501   2442420   2444387   2446385   2448399  
  6010.000000   2450406   2452406   2454399   2456407   2458443  
  6000.000000   2460521   2462630   2464764   2466904   2469057  
  5990.000000   2471230   2473453   2475742   2478116   2480559  
  5980.000000   2483056   2485573   2488105   2490651   2493249  
  5970.000000   2495933   2498746   2501702   2504809   2508039  
  5960.000000   2511375   2514782   2518251   2521762   2525316  
  5950.000000   2528895   2532497   2536111   2539753   2543442  
  5940.000000   2547222   2551129   2555194   2559421   2563785  
  5930.000000   2568234   2572699   2577118   2581434   2585615  
  5920.000000   2589645   2593518   2597236   2600802   2604215  
  5910.000000   2607475   2610582   2613542   2616367   2619090  
  5900.000000   2621747   2624404   2627120   2629967   2632981  
  5890.000000   2636184   2639540   2642993   2646454   2649841  
  5880.000000   2653083   2656142   2659004   2661680   2664183  
  5870.000000   2666528   2668725   2670786   2672731   2674594  
  5860.000000   2676419   2678254   2680138   2682099   2684144  
  5850.000000   2686278   2688495   2690795   2693177   2695634  
  5840.000000   2698151   2700698   2703240   2705745   2708195  
  5830.000000   2710589   2712946   2715285   2717628   2719975  
  5820.000000   2722316   2724632   2726906   2729137   2731334  
  5810.000000   2733523   2735722   2737953   2740209   2742495  
  5800.000000   2744784   2747081   2749359   2751623   2753838  
  5790.000000   2755989   2758012   2759862   2761452   2762720  
  5780.000000   2763572   2763950   2763783   2763050   2761752  
  5770.000000   2759961   2757776   2755360   2752859   2750428  
  5760.000000   2748156   2746102   2744256   2742599   2741087  
  5750.000000   2739695   2738400   2737195   2736066   2734997  
  5740.000000   2733971   2732968   2731989   2731033   2730122  
  5730.000000   2729261   2728458   2727699   2726968   2726244  
  5720.000000   2725528   2724823   2724150   2723522   2722942  
  5710.000000   2722395   2721859   2721308   2720739   2720163  
  5700.000000   2719611   2719115   2718699   2718368   2718106  
  5690.000000   2717891   2717696   2717507   2717311   2717106  
  5680.000000   2716873   2716596   2716241   2715785   2715198  
  5670.000000   2714469   2713579   2712517   2711258   2709780  
  5660.000000   2708061   2706111   2703960   2701679   2699343  
  5650.000000   2697033   2694797   2692659   2690613   2688646  
  5640.000000   2686744   2684912   2683157   2681489   2679902  
  5630.000000   2678372   2676869   2675360   2673841   2672321  
  5620.000000   2670840   2669429   2668116   2666895   2665750  
  5610.000000   2664647   2663571   2662519   2661513   2660576  
  5600.000000   2659726   2658953   2658228   2657504   2656740  
  5590.000000   2655912   2655021   2654085   2653131   2652182  
  5580.000000   2651252   2650343   2649452   2648576   2647709  
  5570.000000   2646849   2645980   2645087   2644149   2643154  
  5560.000000   2642100   2641001   2639873   2638735   2637587  
  5550.000000   2636421   2635213   2633950   2632629   2631273  
  5540.000000   2629914   2628592   2627330   2626133   2624985  
  5530.000000   2623865   2622754   2621647   2620549   2619471  
  5520.000000   2618414   2617373   2616330   2615268   2614181  
  5510.000000   2613075   2611964   2610861   2609770   2608678  
  5500.000000   2607562   2606405   2605196   2603951   2602689  
  5490.000000   2601433   2600185   2598929   2597626   2596245  
  5480.000000   2594766   2593200   2591578   2589948   2588344  
  5470.000000   2586782   2585247   2583712   2582140   2580506  
  5460.000000   2578795   2577004   2575133   2573183   2571155  
  5450.000000   2569061   2566923   2564779   2562671   2560631  
  5440.000000   2558672   2556789   2554963   2553180   2551444  
  5430.000000   2549767   2548174   2546665   2545228   2543815  
  5420.000000   2542388   2540915   2539416   2537943   2536590  
  5410.000000   2535430   2534514   2533817   2533292   2532854  
  5400.000000   2532453   2532054   2531682   2531364   2531151  
  5390.000000   2531053   2531081   2531209   2531442   2531779  
  5380.000000   2532268   2532938   2533838   2534956   2536288  
  5370.000000   2537770   2539383   2541077   2542875   2544764  
  5360.000000   2546796   2548958   2551299   2553803   2556538  
  5350.000000   2559516   2562842   2566542   2570711   2575330  
  5340.000000   2580437   2585966   2591945   2598319   2605145  
  5330.000000   2612384   2620102   2628244   2636860   2645888  
  5320.000000   2655402   2665377   2675940   2687089   2698957  
  5310.000000   2711509   2724830   2738832   2753571   2768963  
  5300.000000   2785094   2801928   2819602   2838122   2857634  
  5290.000000   2878121   2899659   2922134   2945501   2969560  
  5280.000000   2994231   3019370   3045009   3071150   3097935  
  5270.000000   3125412   3153637   3182498   3211834   3241397  
  5260.000000   3270978   3300440   3329753   3358978   3388170  
  5250.000000   3417368   3446464   3475320   3503665   3531341  
  5240.000000   3558161   3584160   3609337   3633871   3657798  
  5230.000000   3681249   3704141   3726472   3748053   3768850  
  5220.000000   3788714   3807715   3825823   3843214   3859909  
  5210.000000   3876067   3891629   3906631   3920893   3934383  
  5200.000000   3946931   3958596   3969341   3979338   3988612  
  5190.000000   3997316   4005400   4012917   4019741   4025896  
  5180.000000   4031291   4036013   4040036   4043479   4046310  
  5170.000000   4048611   4050319   4051500   4052108   4052233  
  5160.000000   4051859   4051074   4049843   4048214   4046128  
  5150.000000   4043628   4040681   4037360   4033666   4029677  
  5140.000000   4025377   4020813   4015947   4010817   4005407  
  5130.000000   3999776   3993935   3987948   3981815   3975570  
  5120.000000   3969195   3962712   3956114   3949438   3942698  
  5110.000000   3935933   3929151   3922374   3915600   3908842  
  5100.000000   3902109   3895427   3888814   3882296   3875876  
  5090.000000   3869556   3863319   3857151   3851030   3844941  
  5080.000000   3838861   3832773   3826649   3820471   3814221  
  5070.000000   3807901   3801520   3795101   3788660   3782210  
  5060.000000   3775742   3769241   3762673   3756022   3749271  
  5050.000000   3742431   3735516   3728558   3721578   3714597  
  5040.000000   3707619   3700650   3693685   3686729   3679784  
  5030.000000   3672860   3665967   3659113   3652309   3645560  
  5020.000000   3638880   3632274   3625761   3619346   3613053  
  5010.000000   3606886   3600868   3595000   3589308   3583783  
  5000.000000   3578447   3573283   3568309   3563503   3558889  
  4990.000000   3554454   3550238   3546237   3542496   3539003  
  4980.000000   3535794   3532839   3530164   3527740   3525603  
  4970.000000   3523736   3522194   3520960   3520084   3519538  
  4960.000000   3519358   3519505   3520024   3520888   3522159  
  4950.000000   3523821   3525932   3528459   3531438   3534812  
  4940.000000   3538604   3542755   3547302   3552200   3557498  
  4930.000000   3563154   3569209   3575617   3582410   3589543  
  4920.000000   3597052   3604899   3613116   3621665   3630565  
  4910.000000   3639773   3649299   3659111   3669218   3679597  
  4900.000000   3690245   3701124   3712195   3723400   3734672  
  4890.000000   3745948   3757161   3768270   3779214   3789971  
  4880.000000   3800481   3810726   3820636   3830195   3839322  
  4870.000000   3848003   3856156   3863777   3870800   3877249  
  4860.000000   3883088   3888373   3893090   3897304   3901006  
  4850.000000   3904258   3907053   3909463   3911503   3913268  
  4840.000000   3914793   3916177   3917449   3918679   3919871  
  4830.000000   3921060   3922235   3923413   3924580   3925742  
  4820.000000   3926883   3927999   3929077   3930121   3931138  
  4810.000000   3932153   3933196   3934299   3935484   3936755  
  4800.000000   3938105   3939509   3940946   3942397   3943857  
  4790.000000   3945332   3946840   3948395   3950010   3951688  
  4780.000000   3953424   3955205   3957017   3958845   3960674  
  4770.000000   3962491   3964280   3966030   3967726   3969365  
  4760.000000   3970942   3972463   3973927   3975343   3976702  
  4750.000000   3978004   3979232   3980381   3981434   3982394  
  4740.000000   3983255   3984028   3984717   3985338   3985893  
  4730.000000   3986394   3986839   3987232   3987568   3987843  
  4720.000000   3988055   3988203   3988297   3988350   3988390  
  4710.000000   3988445   3988556   3988757   3989083   3989552  
  4700.000000   3990181   3990972   3991927   3993040   3994317  
  4690.000000   3995757   3997367   3999143   4001079   4003145  
  4680.000000   4005305   4007497   4009670   4011759   4013730  
  4670.000000   4015552   4017235   4018788   4020255   4021667  
  4660.000000   4023072   4024503   4026007   4027619   4029384  
  4650.000000   4031339   4033520   4035948   4038626   4041537  
  4640.000000   4044642   4047893   4051229   4054596   4057941  
  4630.000000   4061226   4064410   4067470   4070370   4073087  
  4620.000000   4075582   4077830   4079795   4081464   4082817  
  4610.000000   4083873   4084642   4085179   4085516   4085725  
  4600.000000   4085832   4085890   4085897   4085872   4085779  
  4590.000000   4085615   4085335   4084932   4084363   4083625  
  4580.000000   4082684   4081544   4080187   4078631   4076884  
  4570.000000   4074981   4072946   4070821   4068620   4066372  
  4560.000000   4064072   4061735   4059350   4056930   4054472  
  4550.000000   4051988   4049478   4046944   4044378   4041775  
  4540.000000   4039131   4036450   4033749   4031047   4028374  
  4530.000000   4025743   4023171   4020647   4018175   4015732  
  4520.000000   4013334   4010973   4008694   4006503   4004468  
  4510.000000   4002595   4000960   3999568   3998512   3997805  
  4500.000000   3997559   3997792   3998618   4000038   4002148  
  4490.000000   4004926   4008458   4012711   4017770   4023594  
  4480.000000   4030258   4037699   4045965   4054973   4064755  
  4470.000000   4075223   4086410   4098235   4110728   4123803  
  4460.000000   4137467   4151618   4166232   4181193   4196461  
  4450.000000   4211930   4227564   4243289   4259090   4274931  
  4440.000000   4290807   4306705   4322610   4338511   4354366  
  4430.000000   4370162   4385835   4401375   4416704   4431809  
  4420.000000   4446595   4461041   4475030   4488534   4501428  
  4410.000000   4513688   4525194   4535936   4545815   4554848  
  4400.000000   4562976   4570263   4576707   4582427   4587474  
  4390.000000   4592001   4596080   4599860   4603399   4606808  
  4380.000000   4610110   4613371   4616593   4619817   4623055  
  4370.000000   4626359   4629766   4633337   4637117   4641151  
  4360.000000   4645455   4650040   4654878   4659956   4665207  
  4350.000000   4670609   4676070   4681578   4687046   4692487  
  4340.000000   4697840   4703118   4708220   4713040   4717307  
  4330.000000   4720698   4722774   4723138   4721466   4717667  
  4320.000000   4711886   4704560   4696290   4687791   4679688  
  4310.000000   4672485   4666430   4661597   4657868   4655067  
  4300.000000   4652988   4651473   4650419   4649760   4649480  
  4290.000000   4649537   4649933   4650622   4651612   4652869  
  4280.000000   4654402   4656185   4658195   4660395   4662729  
  4270.000000   4665152   4667588   4669966   4672149   4673972  
  4260.000000   4675190   4675554   4674809   4672797   4669464  
  4250.000000   4664938   4659459   4653398   4647119   4640994  
  4240.000000   4635256   4630073   4625449   4621345   4617631  
  4230.000000   4614195   4610910   4607685   4604453   4601165  
  4220.000000   4597813   4594386   4590932   4587481   4584130  
  4210.000000   4580941   4578028   4575447   4573286   4571562  
  4200.000000   4570308   4569487   4569081   4569011   4569232  
  4190.000000   4569654   4570245   4570932   4571721   4572572  
  4180.000000   4573524   4574553   4575713   4576987   4578441  
  4170.000000   4580077   4581983   4584183   4586776   4589780  
  4160.000000   4593268   4597220   4601669   4606562   4611920  
  4150.000000   4617689   4623905   4630531   4637617   4645127  
  4140.000000   4653112   4661528   4670418   4679728   4689500  
  4130.000000   4699676   4710296   4721308   4732763   4744628  
  4120.000000   4756971   4769785   4783145   4797047   4811549  
  4110.000000   4826621   4842287   4858483   4875193   4892329  
  4100.000000   4909851   4927669   4945747   4964025   4982490  
  4090.000000   5001122   5019915   5038852   5057899   5077019  
  4080.000000   5096142   5115232   5134221   5153098   5171803  
  4070.000000   5190330   5208592   5226559   5244110   5261216  
  4060.000000   5277763   5293760   5309126   5323908   5338039  
  4050.000000   5351590   5364503   5376868   5388635   5399893  
  4040.000000   5410560   5420685   5430143   5438960   5447017  
  4030.000000   5454375   5460954   5466840   5471959   5476356  
  4020.000000   5479909   5482654   5484545   5485663   5485976  
  4010.000000   5485641   5484751   5483345   5481219   5478446  
  4000.000000   5475343  
##END= 
