##TITLE= Sample 010 By ssteindl date Donnerstag, November 22 2018
##JCAMP-DX= 4.24
##DATA TYPE= INFRARED SPECTRUM
##ORIGIN= Exported PE Spectrum Data File
##OWNER= Sandra Steindl
##DATE= 18/11/22
##TIME= 13:17:15.00
##SPECTROMETER/DATA SYSTEM= PERKIN-ELMER Frontier FT-IR/NIR IR
##INSTRUMENT PARAMETERS=
  APODIZATION=stark
  DETECTOR=INGAAS
##RESOLUTION= 16.000000
##DELTAX= -2.000000
##XUNITS= 1/CM
##YUNITS= A
##XFACTOR= 1.00
##YFACTOR= 0.00000011920928955078
##FIRSTX= 10000.00
##LASTX= 4000.00
##NPOINTS= 3001
##FIRSTY= 0.242330
##MAXY= 0.662285
##MINY= 0.196109
##XYDATA= (X++(Y..Y))
 10000.000000   2032814   2034275   2036488   2040146   2044538  
  9990.000000   2047973   2048894   2046433   2040270   2030765  
  9980.000000   2019058   2006798   1995690   1987077   1981807  
  9970.000000   1979975   1980935   1983393   1985722   1986408  
  9960.000000   1984477   1979955   1973858   1968078   1964725  
  9950.000000   1965545   1971289   1981451   1994407   2007791  
  9940.000000   2019185   2026597   2028939   2026049   2018664  
  9930.000000   2008042   1995746   1983287   1971989   1962821  
  9920.000000   1956308   1952538   1951121   1951447   1952740  
  9910.000000   1954444   1956195   1957979   1959883   1961955  
  9900.000000   1964047   1965721   1966523   1966045   1964349  
  9890.000000   1961823   1959232   1957291   1956445   1956659  
  9880.000000   1957427   1958069   1957993   1957060   1955623  
  9870.000000   1954447   1954381   1955990   1959294   1963686  
  9860.000000   1968117   1971386   1972565   1971226   1967639  
  9850.000000   1962644   1957460   1953355   1951272   1951655  
  9840.000000   1954256   1958334   1962811   1966708   1969344  
  9830.000000   1970574   1970650   1970090   1969349   1968633  
  9820.000000   1967806   1966455   1964121   1960512   1955683  
  9810.000000   1950042   1944200   1938771   1934173   1930567  
  9800.000000   1927892   1925978   1924620   1923600   1922659  
  9790.000000   1921508   1919896   1917751   1915280   1913039  
  9780.000000   1911756   1912122   1914455   1918494   1923430  
  9770.000000   1928077   1931377   1932624   1931776   1929211  
  9760.000000   1925550   1921237   1916440   1911090   1905182  
  9750.000000   1899110   1893749   1890385   1890142   1893623  
  9740.000000   1900391   1909168   1918090   1925426   1930064  
  9730.000000   1931753   1931004   1928594   1925209   1921064  
  9720.000000   1916078   1910040   1903073   1895742   1889000  
  9710.000000   1883837   1880803   1879843   1880226   1881035  
  9700.000000   1881502   1881461   1881289   1881669   1883116  
  9690.000000   1885611   1888580   1891059   1892266   1891812  
  9680.000000   1890026   1887574   1885231   1883378   1881885  
  9670.000000   1880245   1877898   1874730   1871226   1868490  
  9660.000000   1867775   1870048   1875458   1883269   1891951  
  9650.000000   1899684   1904841   1906421   1904300   1899120  
  9640.000000   1892102   1884616   1877862   1872608   1869076  
  9630.000000   1867026   1865893   1865055   1863986   1862480  
  9620.000000   1860575   1858580   1856797   1855439   1854485  
  9610.000000   1853686   1852747   1851398   1849632   1847624  
  9600.000000   1845709   1844147   1843004   1842107   1841170  
  9590.000000   1839989   1838629   1837427   1836859   1837265  
  9580.000000   1838632   1840525   1842232   1843043   1842575  
  9570.000000   1840924   1838656   1836525   1835156   1834770  
  9560.000000   1835105   1835611   1835707   1835128   1833986  
  9550.000000   1832753   1831944   1831912   1832628   1833736  
  9540.000000   1834678   1834929   1834161   1832275   1829368  
  9530.000000   1825587   1821090   1816037   1810691   1805463  
  9520.000000   1800910   1797572   1795792   1795539   1796372  
  9510.000000   1797603   1798513   1798658   1797991   1796883  
  9500.000000   1795956   1795799   1796797   1798912   1801780  
  9490.000000   1804757   1807161   1808410   1808159   1806384  
  9480.000000   1803361   1799674   1796069   1793384   1792282  
  9470.000000   1793115   1795705   1799346   1802943   1805299  
  9460.000000   1805498   1803145   1798510   1792372   1785782  
  9450.000000   1779722   1774849   1771412   1769305   1768289  
  9440.000000   1768165   1768910   1770590   1773245   1776670  
  9430.000000   1780398   1783723   1785919   1786445   1785098  
  9420.000000   1782126   1778113   1773885   1770209   1767623  
  9410.000000   1766282   1765957   1766147   1766232   1765678  
  9400.000000   1764166   1761695   1758559   1755260   1752342  
  9390.000000   1750212   1749050   1748768   1749116   1749760  
  9380.000000   1750419   1750915   1751190   1751290   1751313  
  9370.000000   1751364   1751529   1751847   1752349   1753008  
  9360.000000   1753773   1754492   1754947   1754876   1754075  
  9350.000000   1752523   1750417   1748188   1746342   1745315  
  9340.000000   1745337   1746347   1748064   1750022   1751728  
  9330.000000   1752732   1752722   1751584   1749370   1746365  
  9320.000000   1743018   1740014   1738130   1738129   1740441  
  9310.000000   1744956   1750922   1757051   1761884   1764119  
  9300.000000   1763062   1758720   1751865   1743691   1735492  
  9290.000000   1728316   1722783   1719168   1717477   1717730  
  9280.000000   1719891   1723954   1729635   1736380   1743236  
  9270.000000   1749103   1752976   1754201   1752712   1748892  
  9260.000000   1743525   1737361   1731038   1724894   1719124  
  9250.000000   1713872   1709335   1705821   1703595   1702839  
  9240.000000   1703404   1704940   1706881   1708754   1710281  
  9230.000000   1711475   1712571   1713770   1715152   1716482  
  9220.000000   1717385   1717357   1716062   1713392   1709627  
  9210.000000   1705277   1700975   1697278   1694578   1693069  
  9200.000000   1692747   1693500   1695109   1697331   1699858  
  9190.000000   1702399   1704689   1706589   1708108   1709372  
  9180.000000   1710572   1711823   1713126   1714267   1714908  
  9170.000000   1714676   1713356   1710992   1707899   1704604  
  9160.000000   1701662   1699544   1698444   1698327   1698908  
  9150.000000   1699836   1700753   1701419   1701706   1701594  
  9140.000000   1701132   1700377   1699399   1698207   1696818  
  9130.000000   1695203   1693367   1691319   1689108   1686863  
  9120.000000   1684779   1683152   1682271   1682388   1683612  
  9110.000000   1685858   1688819   1691977   1694702   1696392  
  9100.000000   1696627   1695261   1692469   1688748   1684842  
  9090.000000   1681550   1679527   1679132   1680332   1682680  
  9080.000000   1685365   1687468   1688213   1687189   1684436  
  9070.000000   1680457   1676090   1672232   1669554   1668321  
  9060.000000   1668378   1669232   1670267   1670962   1671098  
  9050.000000   1670762   1670260   1669930   1669982   1670396  
  9040.000000   1670935   1671259   1671113   1670456   1669520  
  9030.000000   1668743   1668604   1669472   1671434   1674269  
  9020.000000   1677467   1680389   1682432   1683161   1682404  
  9010.000000   1680263   1677093   1673389   1669684   1666457  
  9000.000000   1664056   1662654   1662199   1662478   1663151  
  8990.000000   1663880   1664366   1664470   1664208   1663733  
  8980.000000   1663254   1662930   1662840   1662910   1662999  
  8970.000000   1662917   1662554   1661892   1661026   1660130  
  8960.000000   1659397   1658982   1658957   1659306   1659949  
  8950.000000   1660754   1661555   1662184   1662483   1662345  
  8940.000000   1661736   1660730   1659525   1658395   1657631  
  8930.000000   1657427   1657826   1658663   1659600   1660228  
  8920.000000   1660181   1659291   1657623   1655519   1653481  
  8910.000000   1652051   1651646   1652438   1654305   1656824  
  8900.000000   1659366   1661249   1661917   1661073   1658763  
  8890.000000   1655389   1651637   1648281   1645982   1645085  
  8880.000000   1645581   1647078   1648972   1650590   1651430  
  8870.000000   1651276   1650239   1648709   1647212   1646269  
  8860.000000   1646262   1647385   1649638   1652836   1656662  
  8850.000000   1660704   1664529   1667714   1669918   1670931  
  8840.000000   1670749   1669546   1667654   1665442   1663268  
  8830.000000   1661382   1659931   1658968   1658507   1658575  
  8820.000000   1659200   1660404   1662106   1664133   1666211  
  8810.000000   1668058   1669468   1670402   1671013   1671583  
  8800.000000   1672423   1673746   1675603   1677857   1680248  
  8790.000000   1682473   1684296   1685574   1686271   1686400  
  8780.000000   1686001   1685116   1683808   1682196   1680481  
  8770.000000   1678943   1677876   1677537   1678023   1679304  
  8760.000000   1681170   1683362   1685582   1687611   1689306  
  8750.000000   1690610   1691525   1692050   1692193   1691928  
  8740.000000   1691250   1690153   1688673   1686879   1684909  
  8730.000000   1682949   1681238   1680026   1679535   1679888  
  8720.000000   1681063   1682856   1684923   1686855   1688322  
  8710.000000   1689164   1689471   1689552   1689846   1690775  
  8700.000000   1692606   1695367   1698854   1702684   1706430  
  8690.000000   1709710   1712282   1714034   1714973   1715175  
  8680.000000   1714759   1713873   1712676   1711367   1710171  
  8670.000000   1709333   1709061   1709486   1710620   1712347  
  8660.000000   1714430   1716555   1718399   1719686   1720282  
  8650.000000   1720206   1719684   1719068   1718787   1719223  
  8640.000000   1720631   1723061   1726341   1730147   1734076  
  8630.000000   1737785   1741038   1743744   1745921   1747645  
  8620.000000   1749006   1750040   1750767   1751161   1751233  
  8610.000000   1751001   1750527   1749892   1749190   1748552  
  8600.000000   1748106   1748043   1748541   1749782   1751824  
  8590.000000   1754622   1757953   1761483   1764817   1767606  
  8580.000000   1769647   1770882   1771398   1771334   1770864  
  8570.000000   1770098   1769129   1768014   1766864   1765824  
  8560.000000   1765060   1764722   1764878   1765523   1766558  
  8550.000000   1767894   1769482   1771355   1773587   1776222  
  8540.000000   1779219   1782369   1785354   1787794   1789432  
  8530.000000   1790177   1790188   1789794   1789413   1789404  
  8520.000000   1789962   1791101   1792681   1794519   1796440  
  8510.000000   1798362   1800266   1802177   1804083   1805927  
  8500.000000   1807603   1808997   1810041   1810734   1811158  
  8490.000000   1811430   1811671   1811962   1812343   1812825  
  8480.000000   1813412   1814117   1814955   1815929   1816998  
  8470.000000   1818078   1819054   1819827   1820358   1820699  
  8460.000000   1820994   1821439   1822234   1823504   1825272  
  8450.000000   1827440   1829832   1832220   1834392   1836179  
  8440.000000   1837498   1838345   1838797   1838995   1839132  
  8430.000000   1839410   1840003   1841022   1842480   1844301  
  8420.000000   1846308   1848307   1850107   1851613   1852799  
  8410.000000   1853740   1854533   1855283   1856019   1856713  
  8400.000000   1857277   1857611   1857635   1857328   1856723  
  8390.000000   1855901   1854941   1853911   1852834   1851714  
  8380.000000   1850541   1849333   1848135   1847028   1846100  
  8370.000000   1845425   1845024   1844879   1844919   1845068  
  8360.000000   1845261   1845480   1845757   1846146   1846692  
  8350.000000   1847383   1848142   1848806   1849178   1849062  
  8340.000000   1848353   1847063   1845360   1843513   1841847  
  8330.000000   1840648   1840081   1840153   1840699   1841463  
  8320.000000   1842159   1842583   1842645   1842414   1842065  
  8310.000000   1841819   1841848   1842215   1842856   1843599  
  8300.000000   1844225   1844532   1844404   1843836   1842935  
  8290.000000   1841874   1840831   1839944   1839263   1838751  
  8280.000000   1838298   1837768   1837055   1836121   1835013  
  8270.000000   1833853   1832794   1831972   1831454   1831210  
  8260.000000   1831119   1831018   1830760   1830274   1829589  
  8250.000000   1828834   1828180   1827787   1827719   1827937  
  8240.000000   1828290   1828576   1828607   1828258   1827503  
  8230.000000   1826388   1824996   1823403   1821638   1819705  
  8220.000000   1817589   1815326   1813004   1810798   1808907  
  8210.000000   1807521   1806732   1806499   1806624   1806803  
  8200.000000   1806691   1805994   1804550   1802362   1799616  
  8190.000000   1796617   1793719   1791227   1789327   1788036  
  8180.000000   1787220   1786642   1786037   1785192   1783996  
  8170.000000   1782463   1780704   1778883   1777154   1775619  
  8160.000000   1774314   1773218   1772286   1771472   1770746  
  8150.000000   1770090   1769484   1768888   1768237   1767435  
  8140.000000   1766389   1765009   1763262   1761156   1758772  
  8130.000000   1756236   1753722   1751422   1749523   1748179  
  8120.000000   1747470   1747378   1747771   1748424   1749067  
  8110.000000   1749451   1749420   1748931   1748070   1746988  
  8100.000000   1745867   1744834   1743955   1743216   1742571  
  8090.000000   1741972   1741395   1740853   1740351   1739886  
  8080.000000   1739410   1738871   1738211   1737426   1736551  
  8070.000000   1735656   1734805   1734008   1733209   1732289  
  8060.000000   1731127   1729647   1727872   1725919   1723966  
  8050.000000   1722182   1720666   1719425   1718387   1717464  
  8040.000000   1716609   1715850   1715283   1715013   1715097  
  8030.000000   1715481   1716003   1716433   1716557   1716250  
  8020.000000   1715524   1714522   1713462   1712565   1711974  
  8010.000000   1711728   1711751   1711894   1711981   1711850  
  8000.000000   1711384   1710524   1709269   1707669   1705829  
  7990.000000   1703892   1702033   1700420   1699193   1698416  
  7980.000000   1698074   1698069   1698252   1698473   1698616  
  7970.000000   1698641   1698574   1698493   1698493   1698638  
  7960.000000   1698949   1699382   1699856   1700253   1700469  
  7950.000000   1700414   1700042   1699351   1698382   1697219  
  7940.000000   1695968   1694760   1693721   1692963   1692558  
  7930.000000   1692524   1692808   1693297   1693826   1694217  
  7920.000000   1694316   1694034   1693374   1692424   1691353  
  7910.000000   1690342   1689559   1689092   1688947   1689046  
  7900.000000   1689266   1689485   1689620   1689645   1689593  
  7890.000000   1689527   1689514   1689593   1689770   1690009  
  7880.000000   1690259   1690461   1690575   1690579   1690481  
  7870.000000   1690316   1690135   1690009   1690000   1690162  
  7860.000000   1690505   1691000   1691571   1692113   1692519  
  7850.000000   1692708   1692642   1692330   1691811   1691135  
  7840.000000   1690336   1689438   1688460   1687438   1686438  
  7830.000000   1685563   1684911   1684564   1684523   1684724  
  7820.000000   1685026   1685270   1685320   1685111   1684666  
  7810.000000   1684074   1683450   1682887   1682421   1682027  
  7800.000000   1681638   1681190   1680652   1680050   1679450  
  7790.000000   1678935   1678556   1678314   1678143   1677943  
  7780.000000   1677611   1677080   1676350   1675482   1674582  
  7770.000000   1673762   1673108   1672650   1672363   1672177  
  7760.000000   1672000   1671743   1671342   1670771   1670039  
  7750.000000   1669189   1668288   1667420   1666672   1666116  
  7740.000000   1665797   1665712   1665801   1665951   1666013  
  7730.000000   1665845   1665345   1664498   1663382   1662164  
  7720.000000   1661052   1660239   1659848   1659893   1660272  
  7710.000000   1660799   1661254   1661441   1661236   1660611  
  7700.000000   1659630   1658422   1657151   1655976   1655020  
  7690.000000   1654355   1653994   1653901   1653998   1654193  
  7680.000000   1654393   1654528   1654555   1654463   1654261  
  7670.000000   1653965   1653593   1653150   1652646   1652087  
  7660.000000   1651501   1650925   1650412   1650008   1649742  
  7650.000000   1649611   1649582   1649605   1649621   1649584  
  7640.000000   1649468   1649269   1649001   1648685   1648352  
  7630.000000   1648034   1647763   1647568   1647464   1647449  
  7620.000000   1647500   1647576   1647637   1647651   1647617  
  7610.000000   1647553   1647491   1647447   1647416   1647356  
  7600.000000   1647223   1646988   1646676   1646362   1646172  
  7590.000000   1646228   1646608   1647305   1648223   1649206  
  7580.000000   1650093   1650774   1651232   1651527   1651784  
  7570.000000   1652119   1652605   1653241   1653964   1654677  
  7560.000000   1655305   1655811   1656219   1656584   1656977  
  7550.000000   1657440   1657984   1658572   1659154   1659670  
  7540.000000   1660089   1660406   1660657   1660907   1661249  
  7530.000000   1661780   1662589   1663728   1665202   1666952  
  7520.000000   1668870   1670803   1672606   1674147   1675370  
  7510.000000   1676275   1676939   1677469   1677991   1678614  
  7500.000000   1679426   1680474   1681777   1683322   1685075  
  7490.000000   1686988   1688996   1691029   1693017   1694895  
  7480.000000   1696624   1698185   1699592   1700876   1702099  
  7470.000000   1703319   1704610   1706017   1707567   1709244  
  7460.000000   1711006   1712781   1714502   1716123   1717647  
  7450.000000   1719121   1720634   1722276   1724125   1726205  
  7440.000000   1728498   1730931   1733427   1735909   1738333  
  7430.000000   1740678   1742953   1745173   1747368   1749562  
  7420.000000   1751791   1754092   1756510   1759072   1761780  
  7410.000000   1764599   1767457   1770270   1772961   1775486  
  7400.000000   1777849   1780093   1782283   1784477   1786710  
  7390.000000   1788982   1791267   1793523   1795711   1797801  
  7380.000000   1799778   1801649   1803435   1805187   1806967  
  7370.000000   1808853   1810917   1813202   1815697   1818334  
  7360.000000   1821003   1823578   1825964   1828124   1830089  
  7350.000000   1831944   1833790   1835695   1837679   1839705  
  7340.000000   1841715   1843662   1845540   1847391   1849276  
  7330.000000   1851256   1853343   1855508   1857681   1859787  
  7320.000000   1861779   1863650   1865432   1867171   1868900  
  7310.000000   1870627   1872329   1873980   1875562   1877101  
  7300.000000   1878647   1880272   1882027   1883928   1885927  
  7290.000000   1887937   1889842   1891540   1892966   1894106  
  7280.000000   1894997   1895718   1896366   1897041   1897814  
  7270.000000   1898734   1899808   1901012   1902306   1903640  
  7260.000000   1904975   1906282   1907550   1908767   1909927  
  7250.000000   1911009   1912008   1912922   1913794   1914691  
  7240.000000   1915725   1916999   1918602   1920554   1922830  
  7230.000000   1925337   1927974   1930631   1933250   1935796  
  7220.000000   1938285   1940733   1943181   1945650   1948183  
  7210.000000   1950811   1953593   1956564   1959761   1963168  
  7200.000000   1966747   1970418   1974109   1977757   1981347  
  7190.000000   1984888   1988427   1991995   1995624   1999305  
  7180.000000   2003030   2006776   2010550   2014360   2018237  
  7170.000000   2022191   2026228   2030307   2034400   2038457  
  7160.000000   2042478   2046473   2050495   2054595   2058839  
  7150.000000   2063266   2067928   2072843   2078043   2083517  
  7140.000000   2089247   2095156   2101164   2107155   2113062  
  7130.000000   2118834   2124504   2130126   2135806   2141619  
  7120.000000   2147636   2153863   2160303   2166917   2173690  
  7110.000000   2180590   2187594   2194645   2201681   2208616  
  7100.000000   2215410   2222060   2228655   2235318   2242201  
  7090.000000   2249395   2256917   2264674   2272520   2280290  
  7080.000000   2287881   2295269   2302525   2309762   2317097  
  7070.000000   2324589   2332232   2339956   2347678   2355324  
  7060.000000   2362867   2370317   2377706   2385065   2392407  
  7050.000000   2399735   2407046   2414348   2421656   2428990  
  7040.000000   2436355   2443732   2451077   2458342   2465486  
  7030.000000   2472499   2479398   2486221   2493002   2499759  
  7020.000000   2506484   2513162   2519770   2526314   2532804  
  7010.000000   2539278   2545749   2552229   2558689   2565104  
  7000.000000   2571434   2577661   2583768   2589752   2595590  
  6990.000000   2601255   2606698   2611892   2616818   2621510  
  6980.000000   2626019   2630435   2634825   2639256   2643739  
  6970.000000   2648284   2652857   2657439   2661981   2666451  
  6960.000000   2670783   2674931   2678837   2682487   2685890  
  6950.000000   2689107   2692207   2695271   2698336   2701415  
  6940.000000   2704463   2707432   2710260   2712923   2715405  
  6930.000000   2717727   2719898   2721949   2723894   2725771  
  6920.000000   2727614   2729485   2731430   2733483   2735629  
  6910.000000   2737825   2739988   2742046   2743946   2745679  
  6900.000000   2747271   2748769   2750218   2751646   2753054  
  6890.000000   2754439   2755794   2757139   2758500   2759913  
  6880.000000   2761397   2762956   2764559   2766168   2767736  
  6870.000000   2769233   2770634   2771931   2773118   2774191  
  6860.000000   2775149   2776006   2776789   2777543   2778312  
  6850.000000   2779134   2780016   2780949   2781899   2782838  
  6840.000000   2783742   2784617   2785469   2786311   2787137  
  6830.000000   2787925   2788645   2789269   2789786   2790212  
  6820.000000   2790569   2790888   2791183   2791459   2791709  
  6810.000000   2791933   2792143   2792369   2792637   2792966  
  6800.000000   2793348   2793753   2794136   2794466   2794727  
  6790.000000   2794932   2795106   2795275   2795440   2795587  
  6780.000000   2795686   2795718   2795679   2795592   2795490  
  6770.000000   2795398   2795320   2795238   2795121   2794951  
  6760.000000   2794733   2794502   2794306   2794183   2794144  
  6750.000000   2794162   2794190   2794181   2794112   2793998  
  6740.000000   2793881   2793808   2793814   2793900   2794040  
  6730.000000   2794200   2794349   2794479   2794604   2794744  
  6720.000000   2794908   2795090   2795258   2795378   2795419  
  6710.000000   2795372   2795246   2795066   2794854   2794628  
  6700.000000   2794391   2794147   2793888   2793614   2793314  
  6690.000000   2792977   2792576   2792097   2791525   2790879  
  6680.000000   2790190   2789509   2788866   2788273   2787695  
  6670.000000   2787074   2786339   2785447   2784387   2783193  
  6660.000000   2781914   2780601   2779273   2777931   2776555  
  6650.000000   2775139   2773699   2772280   2770931   2769691  
  6640.000000   2768557   2767490   2766426   2765310   2764109  
  6630.000000   2762837   2761525   2760213   2758913   2757608  
  6620.000000   2756253   2754807   2753247   2751586   2749866  
  6610.000000   2748136   2746428   2744747   2743068   2741362  
  6600.000000   2739610   2737820   2736022   2734257   2732554  
  6590.000000   2730929   2729373   2727874   2726420   2725012  
  6580.000000   2723649   2722324   2721011   2719664   2718235  
  6570.000000   2716685   2715012   2713245   2711443   2709666  
  6560.000000   2707957   2706336   2704796   2703329   2701929  
  6550.000000   2700608   2699380   2698247   2697182   2696122  
  6540.000000   2694991   2693716   2692263   2690648   2688934  
  6530.000000   2687205   2685545   2684006   2682606   2681332  
  6520.000000   2680155   2679048   2677992   2676970   2675965  
  6510.000000   2674953   2673904   2672796   2671619   2670383  
  6500.000000   2669117   2667851   2666614   2665417   2664262  
  6490.000000   2663142   2662050   2660986   2659949   2658939  
  6480.000000   2657944   2656953   2655951   2654942   2653941  
  6470.000000   2652971   2652049   2651173   2650310   2649407  
  6460.000000   2648409   2647282   2646026   2644678   2643294  
  6450.000000   2641927   2640607   2639334   2638094   2636870  
  6440.000000   2635666   2634509   2633438   2632486   2631659  
  6430.000000   2630933   2630263   2629603   2628934   2628268  
  6420.000000   2627648   2627117   2626709   2626415   2626199  
  6410.000000   2626001   2625771   2625472   2625104   2624679  
  6400.000000   2624230   2623783   2623367   2623006   2622725  
  6390.000000   2622549   2622491   2622547   2622684   2622848  
  6380.000000   2622977   2623019   2622950   2622780   2622543  
  6370.000000   2622277   2622008   2621736   2621441   2621100  
  6360.000000   2620697   2620242   2619757   2619273   2618807  
  6350.000000   2618359   2617909   2617436   2616921   2616368  
  6340.000000   2615786   2615192   2614589   2613970   2613317  
  6330.000000   2612624   2611892   2611150   2610432   2609771  
  6320.000000   2609174   2608621   2608061   2607441   2606710  
  6310.000000   2605850   2604859   2603763   2602584   2601343  
  6300.000000   2600050   2598718   2597359   2596000   2594661  
  6290.000000   2593365   2592107   2590874   2589632   2588360  
  6280.000000   2587045   2585701   2584350   2583016   2581701  
  6270.000000   2580390   2579042   2577615   2576077   2574426  
  6260.000000   2572681   2570881   2569065   2567261   2565482  
  6250.000000   2563730   2562000   2560294   2558611   2556953  
  6240.000000   2555314   2553679   2552030   2550350   2548628  
  6230.000000   2546867   2545075   2543266   2541449   2539635  
  6220.000000   2537835   2536065   2534350   2532708   2531147  
  6210.000000   2529649   2528169   2526647   2525029   2523282  
  6200.000000   2521418   2519484   2517555   2515699   2513967  
  6190.000000   2512370   2510895   2509510   2508186   2506900  
  6180.000000   2505638   2504384   2503119   2501814   2500447  
  6170.000000   2499011   2497529   2496043   2494608   2493265  
  6160.000000   2492032   2490887   2489787   2488686   2487549  
  6150.000000   2486373   2485175   2483983   2482818   2481679  
  6140.000000   2480552   2479410   2478235   2477024   2475793  
  6130.000000   2474560   2473345   2472152   2470982   2469830  
  6120.000000   2468707   2467632   2466634   2465740   2464964  
  6110.000000   2464298   2463724   2463209   2462736   2462289  
  6100.000000   2461868   2461465   2461075   2460674   2460247  
  6090.000000   2459782   2459299   2458830   2458434   2458154  
  6080.000000   2458018   2458015   2458112   2458252   2458395  
  6070.000000   2458507   2458588   2458646   2458708   2458787  
  6060.000000   2458908   2459083   2459344   2459712   2460227  
  6050.000000   2460896   2461725   2462682   2463738   2464853  
  6040.000000   2466019   2467241   2468557   2469995   2471581  
  6030.000000   2473298   2475119   2476987   2478865   2480720  
  6020.000000   2482557   2484380   2486211   2488043   2489876  
  6010.000000   2491689   2493486   2495277   2497105   2499009  
  6000.000000   2501034   2503188   2505463   2507818   2510219  
  5990.000000   2512632   2515056   2517498   2519990   2522545  
  5980.000000   2525176   2527867   2530612   2533391   2536219  
  5970.000000   2539107   2542092   2545193   2548433   2551807  
  5960.000000   2555309   2558910   2562592   2566323   2570086  
  5950.000000   2573855   2577620   2581372   2585129   2588919  
  5940.000000   2592787   2596777   2600921   2605222   2609652  
  5930.000000   2614157   2618664   2623107   2627432   2631609  
  5920.000000   2635625   2639482   2643185   2646740   2650149  
  5910.000000   2653420   2656561   2659590   2662522   2665386  
  5900.000000   2668204   2671009   2673824   2676685   2679607  
  5890.000000   2682611   2685684   2688811   2691951   2695068  
  5880.000000   2698118   2701075   2703917   2706636   2709224  
  5870.000000   2711675   2713983   2716147   2718180   2720107  
  5860.000000   2721967   2723809   2725675   2727598   2729598  
  5850.000000   2731680   2733840   2736073   2738367   2740712  
  5840.000000   2743094   2745498   2747909   2750311   2752700  
  5830.000000   2755071   2757429   2759770   2762091   2764379  
  5820.000000   2766629   2768839   2771022   2773202   2775406  
  5810.000000   2777657   2779958   2782303   2784658   2787005  
  5800.000000   2789313   2791587   2793817   2796022   2798181  
  5790.000000   2800288   2802285   2804133   2805752   2807087  
  5780.000000   2808057   2808608   2808671   2808221   2807242  
  5770.000000   2805789   2803941   2801840   2799620   2797424  
  5760.000000   2795333   2793405   2791629   2789993   2788462  
  5750.000000   2787028   2785683   2784438   2783288   2782219  
  5740.000000   2781204   2780211   2779220   2778218   2777218  
  5730.000000   2776222   2775247   2774284   2773330   2772376  
  5720.000000   2771427   2770496   2769610   2768786   2768033  
  5710.000000   2767340   2766687   2766057   2765449   2764879  
  5700.000000   2764378   2763975   2763676   2763464   2763292  
  5690.000000   2763110   2762869   2762554   2762166   2761733  
  5680.000000   2761273   2760802   2760301   2759744   2759085  
  5670.000000   2758288   2757314   2756147   2754766   2753173  
  5660.000000   2751370   2749390   2747270   2745077   2742873  
  5650.000000   2740718   2738638   2736640   2734702   2732798  
  5640.000000   2730903   2729015   2727142   2725302   2723511  
  5630.000000   2721771   2720081   2718432   2716829   2715283  
  5620.000000   2713823   2712465   2711223   2710083   2709022  
  5610.000000   2708004   2707002   2706000   2705003   2704017  
  5600.000000   2703054   2702115   2701194   2700274   2699348  
  5590.000000   2698410   2697462   2696507   2695547   2694577  
  5580.000000   2693591   2692590   2691582   2690587   2689623  
  5570.000000   2688703   2687818   2686938   2686025   2685041  
  5560.000000   2683968   2682808   2681585   2680333   2679079  
  5550.000000   2677837   2676609   2675392   2674183   2672994  
  5540.000000   2671839   2670733   2669679   2668664   2667664  
  5530.000000   2666657   2665628   2664579   2663521   2662472  
  5520.000000   2661435   2660405   2659361   2658287   2657173  
  5510.000000   2656027   2654864   2653705   2652558   2651419  
  5500.000000   2650268   2649088   2647866   2646606   2645321  
  5490.000000   2644028   2642729   2641419   2640077   2638690  
  5480.000000   2637253   2635780   2634290   2632805   2631325  
  5470.000000   2629834   2628295   2626677   2624955   2623136  
  5460.000000   2621236   2619286   2617302   2615292   2613247  
  5450.000000   2611164   2609044   2606909   2604788   2602711  
  5440.000000   2600696   2598740   2596836   2594974   2593165  
  5430.000000   2591424   2589779   2588231   2586770   2585350  
  5420.000000   2583933   2582484   2581020   2579584   2578261  
  5410.000000   2577116   2576194   2575475   2574919   2574451  
  5400.000000   2574035   2573641   2573298   2573026   2572864  
  5390.000000   2572811   2572868   2573005   2573234   2573563  
  5380.000000   2574054   2574744   2575691   2576882   2578310  
  5370.000000   2579906   2581642   2583461   2585376   2587370  
  5360.000000   2589488   2591719   2594117   2596679   2599490  
  5350.000000   2602577   2606055   2609950   2614343   2619193  
  5340.000000   2624517   2630232   2636361   2642852   2649778  
  5330.000000   2657114   2664934   2673182   2681904   2691027  
  5320.000000   2700623   2710666   2721291   2732509   2744469  
  5310.000000   2757145   2770629   2784835   2799818   2815496  
  5300.000000   2831954   2849162   2867256   2886238   2906245  
  5290.000000   2927245   2949296   2972270   2996114   3020628  
  5280.000000   3045737   3071305   3097374   3123952   3151184  
  5270.000000   3179114   3207794   3237106   3266879   3296858  
  5260.000000   3326829   3356659   3386326   3415909   3445483  
  5250.000000   3475105   3504677   3534052   3562939   3591146  
  5240.000000   3618456   3644883   3670424   3695275   3719502  
  5230.000000   3743268   3766508   3789222   3811200   3832375  
  5220.000000   3852562   3871808   3890075   3907550   3924277  
  5210.000000   3940445   3956017   3971047   3985362   3998931  
  5200.000000   4011583   4023375   4034259   4044398   4053802  
  5190.000000   4062612   4070769   4078329   4085186   4091392  
  5180.000000   4096885   4101771   4106026   4109750   4112879  
  5170.000000   4115456   4117394   4118745   4119473   4119687  
  5160.000000   4119392   4118692   4117553   4116016   4114005  
  5150.000000   4111552   4108622   4105296   4101592   4097606  
  5140.000000   4093343   4088861   4084131   4079189   4074018  
  5130.000000   4068670   4063145   4057493   4051701   4045790  
  5120.000000   4039735   4033555   4027252   4020868   4014426  
  5110.000000   4007964   4001486   3994999   3988487   3981952  
  5100.000000   3975395   3968842   3962314   3955839   3949422  
  5090.000000   3943068   3936763   3930503   3924283   3918109  
  5080.000000   3911980   3905891   3899817   3893725   3887573  
  5070.000000   3881334   3874988   3868544   3862018   3855441  
  5060.000000   3848828   3842200   3835555   3828900   3822229  
  5050.000000   3815547   3808848   3802131   3795378   3788575  
  5040.000000   3781705   3774764   3767761   3760723   3753682  
  5030.000000   3746672   3739720   3732838   3726028   3719285  
  5020.000000   3712608   3705996   3699461   3693006   3686647  
  5010.000000   3680376   3674205   3668123   3662149   3656286  
  5000.000000   3650575   3645029   3639697   3634585   3629731  
  4990.000000   3625124   3620795   3616722   3612932   3609399  
  4980.000000   3606147   3603144   3600422   3597955   3595795  
  4970.000000   3593932   3592434   3591290   3590552   3590185  
  4960.000000   3590215   3590587   3591327   3592392   3593829  
  4950.000000   3595612   3597796   3600348   3603309   3606628  
  4940.000000   3610335   3614384   3618818   3623600   3628781  
  4930.000000   3634322   3640257   3646536   3653188   3660167  
  4920.000000   3667514   3675201   3683277   3691717   3700554  
  4910.000000   3709752   3719320   3729217   3739436   3749935  
  4900.000000   3760694   3771664   3782809   3794079   3805424  
  4890.000000   3816800   3828151   3839434   3850576   3861527  
  4880.000000   3872201   3882555   3892509   3902051   3911122  
  4870.000000   3919730   3927819   3935399   3942404   3948850  
  4860.000000   3954685   3959950   3964627   3968789   3972435  
  4850.000000   3975646   3978426   3980852   3982933   3984750  
  4840.000000   3986323   3987728   3988981   3990135   3991186  
  4830.000000   3992165   3993063   3993906   3994698   3995473  
  4820.000000   3996245   3997040   3997868   3998740   3999658  
  4810.000000   4000622   4001637   4002699   4003812   4004970  
  4800.000000   4006174   4007415   4008698   4010023   4011404  
  4790.000000   4012850   4014380   4016004   4017733   4019569  
  4780.000000   4021515   4023563   4025699   4027899   4030131  
  4770.000000   4032353   4034522   4036601   4038565   4040408  
  4760.000000   4042138   4043775   4045337   4046845   4048300  
  4750.000000   4049708   4051060   4052358   4053596   4054783  
  4740.000000   4055912   4056984   4057977   4058878   4059657  
  4730.000000   4060303   4060804   4061170   4061422   4061589  
  4720.000000   4061702   4061788   4061871   4061965   4062089  
  4710.000000   4062254   4062485   4062804   4063246   4063836  
  4700.000000   4064608   4065576   4066756   4068143   4069733  
  4690.000000   4071504   4073443   4075522   4077727   4080026  
  4680.000000   4082400   4084801   4087199   4089538   4091784  
  4670.000000   4093896   4095873   4097715   4099468   4101176  
  4660.000000   4102910   4104725   4106684   4108823   4111174  
  4650.000000   4113747   4116543   4119549   4122744   4126098  
  4640.000000   4129573   4133128   4136719   4140307   4143852  
  4630.000000   4147324   4150686   4153917   4156983   4159867  
  4620.000000   4162538   4164985   4167183   4169130   4170804  
  4610.000000   4172218   4173358   4174254   4174907   4175365  
  4600.000000   4175642   4175791   4175821   4175777   4175648  
  4590.000000   4175454   4175163   4174770   4174224   4173510  
  4580.000000   4172577   4171416   4169998   4168341   4166452  
  4570.000000   4164372   4162125   4159754   4157272   4154703  
  4560.000000   4152043   4149311   4146511   4143675   4140826  
  4550.000000   4138004   4135229   4132518   4129861   4127240  
  4540.000000   4124629   4122004   4119356   4116684   4114009  
  4530.000000   4111343   4108713   4106120   4103582   4101087  
  4520.000000   4098660   4096293   4094033   4091880   4089899  
  4510.000000   4088090   4086525   4085205   4084216   4083564  
  4500.000000   4083354   4083594   4084386   4085721   4087691  
  4490.000000   4090269   4093545   4097495   4102220   4107697  
  4480.000000   4114023   4121153   4129152   4137945   4147562  
  4470.000000   4157908   4168999   4180739   4193142   4206116  
  4460.000000   4219672   4233718   4248249   4263169   4278452  
  4450.000000   4293995   4309758   4325652   4341641   4357671  
  4440.000000   4373726   4389789   4405847   4421898   4437907  
  4430.000000   4453864   4469706   4485415   4500903   4516151  
  4420.000000   4531057   4545599   4559662   4573223   4586159  
  4410.000000   4598450   4609974   4620720   4630587   4639590  
  4400.000000   4647672   4654902   4661284   4666943   4671929  
  4390.000000   4676395   4680405   4684105   4687550   4690858  
  4380.000000   4694067   4697262   4700463   4703725   4707054  
  4370.000000   4710486   4714027   4717709   4721545   4725568  
  4360.000000   4729789   4734233   4738890   4743764   4748801  
  4350.000000   4753984   4759221   4764488   4769691   4774827  
  4340.000000   4779819   4784661   4789240   4793448   4797032  
  4330.000000   4799711   4801110   4800908   4798854   4794905  
  4320.000000   4789216   4782194   4774378   4766399   4758809  
  4310.000000   4752054   4746362   4741806   4738293   4735676  
  4300.000000   4733775   4732449   4731597   4731147   4731067  
  4290.000000   4731300   4731827   4732586   4733570   4734745  
  4280.000000   4736121   4737691   4739451   4741388   4743458  
  4270.000000   4745620   4747789   4749882   4751751   4753233  
  4260.000000   4754100   4754132   4753104   4750882   4747419  
  4250.000000   4742830   4737324   4731239   4724913   4718696  
  4240.000000   4712826   4707475   4702666   4698374   4694481  
  4230.000000   4690875   4687432   4684057   4680681   4677253  
  4220.000000   4673767   4670211   4666638   4663080   4659642  
  4210.000000   4656388   4653435   4650836   4648666   4646928  
  4200.000000   4645637   4644747   4644237   4644039   4644124  
  4190.000000   4644420   4644905   4645510   4646229   4647004  
  4180.000000   4647859   4648761   4649765   4650870   4652158  
  4170.000000   4653649   4655440   4657554   4660082   4663033  
  4160.000000   4666473   4670380   4674793   4679666   4685027  
  4150.000000   4690824   4697090   4703775   4710919   4718471  
  4140.000000   4726472   4734869   4743706   4752933   4762601  
  4130.000000   4772663   4783177   4794103   4805503   4817351  
  4120.000000   4829712   4842569   4855984   4869936   4884474  
  4110.000000   4899566   4915240   4931449   4948195   4965408  
  4100.000000   4983061   5001066   5019375   5037910   5056635  
  4090.000000   5075507   5094508   5113620   5132819   5152091  
  4080.000000   5171390   5190700   5209958   5229146   5248179  
  4070.000000   5267019   5285540   5303687   5321316   5338395  
  4060.000000   5354816   5370600   5385678   5400105   5413822  
  4050.000000   5426904   5439304   5451126   5462339   5473051  
  4040.000000   5483195   5492829   5501824   5510200   5517827  
  4030.000000   5524763   5530934   5536437   5541229   5545381  
  4020.000000   5548800   5551535   5553553   5554918   5555574  
  4010.000000   5555647   5555204   5554248   5552542   5550141  
  4000.000000   5547391  
##END= 
