##TITLE= Sample 006 By ssteindl date Donnerstag, November 22 2018
##JCAMP-DX= 4.24
##DATA TYPE= INFRARED SPECTRUM
##ORIGIN= Exported PE Spectrum Data File
##OWNER= Sandra Steindl
##DATE= 18/11/22
##TIME= 13:13:14.00
##SPECTROMETER/DATA SYSTEM= PERKIN-ELMER Frontier FT-IR/NIR IR
##INSTRUMENT PARAMETERS=
  APODIZATION=stark
  DETECTOR=INGAAS
##RESOLUTION= 16.000000
##DELTAX= -2.000000
##XUNITS= 1/CM
##YUNITS= A
##XFACTOR= 1.00
##YFACTOR= 0.00000011920928955078
##FIRSTX= 10000.00
##LASTX= 4000.00
##NPOINTS= 3001
##FIRSTY= 0.222229
##MAXY= 0.643227
##MINY= 0.186635
##XYDATA= (X++(Y..Y))
 10000.000000   1864192   1867666   1870962   1873574   1874850  
  9990.000000   1874420   1872389   1869402   1866282   1863885  
  9980.000000   1862735   1863045   1864535   1866720   1868981  
  9970.000000   1870826   1871895   1871984   1870997   1868856  
  9960.000000   1865509   1860932   1855205   1848585   1841499  
  9950.000000   1834545   1828371   1823615   1820773   1820131  
  9940.000000   1821679   1825038   1829481   1833957   1837311  
  9930.000000   1838502   1836938   1832673   1826509   1819817  
  9920.000000   1814236   1811190   1811518   1815205   1821421  
  9910.000000   1828744   1835537   1840358   1842240   1840887  
  9900.000000   1836670   1830516   1823699   1817534   1813114  
  9890.000000   1811030   1811270   1813223   1815883   1818183  
  9880.000000   1819280   1818873   1817166   1814826   1812624  
  9870.000000   1811179   1810744   1811145   1811967   1812685  
  9860.000000   1812926   1812476   1811317   1809487   1807073  
  9850.000000   1804146   1800894   1797624   1794823   1792994  
  9840.000000   1792490   1793334   1795164   1797411   1799522  
  9830.000000   1801289   1802905   1804945   1807994   1812367  
  9820.000000   1817812   1823538   1828449   1831517   1832167  
  9810.000000   1830413   1826821   1822205   1817320   1812614  
  9800.000000   1808176   1803892   1799613   1795365   1791329  
  9790.000000   1787806   1785016   1783054   1781838   1781236  
  9780.000000   1781109   1781395   1782034   1782900   1783757  
  9770.000000   1784275   1784209   1783506   1782439   1781509  
  9760.000000   1781242   1781898   1783276   1784718   1785353  
  9750.000000   1784463   1781832   1777858   1773431   1769562  
  9740.000000   1766952   1765710   1765321   1764922   1763714  
  9730.000000   1761312   1757949   1754309   1751288   1749558  
  9720.000000   1749335   1750311   1751785   1753001   1753393  
  9710.000000   1752843   1751663   1750507   1750122   1751103  
  9700.000000   1753710   1757705   1762410   1766726   1769473  
  9690.000000   1769594   1766569   1760549   1752429   1743654  
  9680.000000   1735852   1730464   1728341   1729637   1733773  
  9670.000000   1739741   1746305   1752385   1757146   1760172  
  9660.000000   1761374   1760962   1759346   1757001   1754449  
  9650.000000   1752047   1750016   1748264   1746517   1744360  
  9640.000000   1741464   1737770   1733538   1729361   1725900  
  9630.000000   1723742   1723137   1724022   1726036   1728726  
  9620.000000   1731665   1734561   1737254   1739617   1741543  
  9610.000000   1742833   1743344   1742948   1741696   1739709  
  9600.000000   1737173   1734218   1730920   1727399   1723909  
  9590.000000   1720981   1719291   1719539   1722072   1726725  
  9580.000000   1732674   1738650   1743269   1745482   1744924  
  9570.000000   1741974   1737603   1732947   1728954   1726091  
  9560.000000   1724371   1723480   1723048   1722800   1722613  
  9550.000000   1722449   1722221   1721790   1720951   1719640  
  9540.000000   1717976   1716351   1715274   1715197   1716312  
  9530.000000   1718451   1721143   1723780   1725807   1726879  
  9520.000000   1726862   1725793   1723757   1720861   1717253  
  9510.000000   1713188   1709062   1705340   1702434   1700506  
  9500.000000   1699405   1698655   1697668   1695953   1693328  
  9490.000000   1689997   1686432   1683215   1680799   1679449  
  9480.000000   1679229   1680136   1682163   1685321   1689506  
  9470.000000   1694368   1699219   1703103   1705082   1704505  
  9460.000000   1701341   1696123   1689866   1683613   1678176  
  9450.000000   1673872   1670594   1668014   1665836   1664054  
  9440.000000   1662867   1662649   1663596   1665687   1668580  
  9430.000000   1671824   1675016   1677912   1680451   1682543  
  9420.000000   1684023   1684488   1683531   1680851   1676585  
  9410.000000   1671296   1665908   1661382   1658387   1657109  
  9400.000000   1657183   1657992   1658901   1659650   1660352  
  9390.000000   1661436   1663274   1665970   1669197   1672336  
  9380.000000   1674694   1675748   1675315   1673522   1670776  
  9370.000000   1667499   1664069   1660663   1657358   1654170  
  9360.000000   1651109   1648194   1645351   1642504   1639572  
  9350.000000   1636716   1634321   1633023   1633430   1635875  
  9340.000000   1640165   1645475   1650551   1653973   1654718  
  9330.000000   1652413   1647571   1641266   1634819   1629304  
  9320.000000   1625343   1623047   1622163   1622363   1623388  
  9310.000000   1625190   1627756   1631038   1634759   1638480  
  9300.000000   1641697   1643998   1645231   1645413   1644759  
  9290.000000   1643424   1641541   1639148   1636319   1633272  
  9280.000000   1630385   1628214   1627250   1627803   1629785  
  9270.000000   1632805   1636245   1639498   1642072   1643681  
  9260.000000   1644215   1643675   1642127   1639667   1636516  
  9250.000000   1633035   1629776   1627307   1626062   1626130  
  9240.000000   1627192   1628627   1629680   1629786   1628726  
  9230.000000   1626801   1624661   1623094   1622669   1623584  
  9220.000000   1625617   1628244   1630816   1632736   1633633  
  9210.000000   1633374   1632042   1629818   1626906   1623498  
  9200.000000   1619783   1615975   1612313   1609049   1606391  
  9190.000000   1604495   1603382   1602986   1603105   1603501  
  9180.000000   1603931   1604196   1604203   1603895   1603303  
  9170.000000   1602416   1601232   1599664   1597646   1595136  
  9160.000000   1592279   1589410   1587079   1585885   1586292  
  9150.000000   1588469   1592139   1596640   1601028   1604435  
  9140.000000   1606334   1606723   1606105   1605271   1605040  
  9130.000000   1605871   1607698   1609927   1611679   1612098  
  9120.000000   1610643   1607345   1602790   1597986   1593979  
  9110.000000   1591630   1591341   1592963   1595815   1598900  
  9100.000000   1601211   1601949   1600734   1597676   1593378  
  9090.000000   1588720   1584626   1581815   1580691   1581247  
  9080.000000   1583138   1585807   1588680   1591322   1593482  
  9070.000000   1595115   1596291   1597152   1597836   1598438  
  9060.000000   1599006   1599514   1599903   1600056   1599852  
  9050.000000   1599188   1598041   1596516   1594810   1593201  
  9040.000000   1591900   1591028   1590511   1590153   1589687  
  9030.000000   1588931   1587879   1586702   1585684   1585042  
  9020.000000   1584827   1584831   1584681   1583954   1582401  
  9010.000000   1580048   1577257   1574595   1572668   1571927  
  9000.000000   1572543   1574390   1577106   1580226   1583298  
  8990.000000   1585972   1588008   1589296   1589821   1589695  
  8980.000000   1589131   1588429   1587908   1587801   1588193  
  8970.000000   1588920   1589624   1589821   1589081   1587155  
  8960.000000   1584061   1580104   1575795   1571729   1568444  
  8950.000000   1566336   1565608   1566272   1568131   1570845  
  8940.000000   1573954   1576980   1579489   1581213   1582115  
  8930.000000   1582380   1582374   1582456   1582885   1583646  
  8920.000000   1584495   1585013   1584806   1583662   1581646  
  8910.000000   1579121   1576620   1574699   1573727   1573806  
  8900.000000   1574737   1576128   1577513   1578491   1578840  
  8890.000000   1578531   1577756   1576799   1575995   1575587  
  8880.000000   1575717   1576331   1577253   1578211   1578987  
  8870.000000   1579486   1579809   1580240   1581142   1582842  
  8860.000000   1585458   1588858   1592651   1596325   1599390  
  8850.000000   1601537   1602720   1603131   1603102   1602948  
  8840.000000   1602857   1602832   1602715   1602302   1601412  
  8830.000000   1600017   1598226   1596315   1594611   1593456  
  8820.000000   1593075   1593546   1594732   1596308   1597824  
  8810.000000   1598800   1598888   1597958   1596193   1594027  
  8800.000000   1592052   1590819   1590680   1591661   1593473  
  8790.000000   1595621   1597615   1599123   1600096   1600725  
  8780.000000   1601336   1602208   1603450   1604945   1606431  
  8770.000000   1607614   1608335   1608627   1608735   1608992  
  8760.000000   1609699   1611004   1612838   1614969   1617081  
  8750.000000   1618898   1620276   1621234   1621927   1622572  
  8740.000000   1623362   1624407   1625699   1627129   1628531  
  8730.000000   1629736   1630631   1631190   1631476   1631619  
  8720.000000   1631760   1632019   1632453   1633047   1633738  
  8710.000000   1634419   1635018   1635476   1635789   1635964  
  8700.000000   1636031   1636019   1635988   1636040   1636344  
  8690.000000   1637109   1638541   1640764   1643764   1647339  
  8680.000000   1651135   1654722   1657721   1659917   1661315  
  8670.000000   1662108   1662615   1663156   1663984   1665192  
  8660.000000   1666739   1668462   1670159   1671641   1672775  
  8650.000000   1673520   1673918   1674125   1674350   1674869  
  8640.000000   1675924   1677683   1680145   1683132   1686315  
  8630.000000   1689300   1691746   1693444   1694379   1694694  
  8620.000000   1694625   1694398   1694165   1693974   1693837  
  8610.000000   1693767   1693842   1694194   1694961   1696216  
  8600.000000   1697909   1699863   1701846   1703653   1705210  
  8590.000000   1706584   1707960   1709541   1711459   1713716  
  8580.000000   1716185   1718704   1721151   1723518   1725891  
  8570.000000   1728383   1731031   1733720   1736176   1738039  
  8560.000000   1739002   1738920   1737897   1736263   1734490  
  8550.000000   1733048   1732272   1732308   1733105   1734493  
  8540.000000   1736241   1738143   1740035   1741822   1743446  
  8530.000000   1744902   1746226   1747507   1748884   1750492  
  8520.000000   1752444   1754736   1757258   1759777   1762019  
  8510.000000   1763750   1764851   1765379   1765535   1765626  
  8500.000000   1765954   1766742   1768072   1769874   1771953  
  8490.000000   1774049   1775894   1777277   1778077   1778298  
  8480.000000   1778067   1777616   1777227   1777171   1777639  
  8470.000000   1778691   1780236   1782068   1783936   1785639  
  8460.000000   1787077   1788282   1789375   1790503   1791762  
  8450.000000   1793147   1794567   1795866   1796924   1797685  
  8440.000000   1798201   1798591   1798991   1799504   1800154  
  8430.000000   1800916   1801717   1802526   1803344   1804243  
  8420.000000   1805290   1806533   1807933   1809380   1810701  
  8410.000000   1811718   1812288   1812341   1811901   1811050  
  8400.000000   1809926   1808663   1807394   1806232   1805257  
  8390.000000   1804533   1804078   1803906   1804019   1804444  
  8380.000000   1805211   1806375   1807961   1809941   1812178  
  8370.000000   1814426   1816363   1817668   1818137   1817735  
  8360.000000   1816655   1815256   1813972   1813168   1813010  
  8350.000000   1813439   1814186   1814901   1815258   1815091  
  8340.000000   1814432   1813488   1812541   1811842   1811525  
  8330.000000   1811564   1811802   1812008   1811986   1811638  
  8320.000000   1810995   1810218   1809533   1809194   1809390  
  8310.000000   1810224   1811650   1813511   1815547   1817463  
  8300.000000   1818965   1819827   1819928   1819267   1817967  
  8290.000000   1816216   1814247   1812261   1810415   1808789  
  8280.000000   1807382   1806155   1805045   1804027   1803107  
  8270.000000   1802363   1801893   1801819   1802202   1803020  
  8260.000000   1804131   1805293   1806234   1806706   1806584  
  8250.000000   1805875   1804744   1803422   1802140   1801041  
  8240.000000   1800145   1799379   1798630   1797830   1796999  
  8230.000000   1796261   1795763   1795626   1795831   1796239  
  8220.000000   1796601   1796670   1796288   1795450   1794298  
  8210.000000   1793052   1791904   1790941   1790104   1789250  
  8200.000000   1788220   1786944   1785465   1783944   1782565  
  8190.000000   1781463   1780640   1779965   1779226   1778208  
  8180.000000   1776788   1774956   1772817   1770518   1768186  
  8170.000000   1765904   1763687   1761559   1759568   1757841  
  8160.000000   1756537   1755803   1755677   1756052   1756656  
  8150.000000   1757114   1757041   1756146   1754325   1751675  
  8140.000000   1748481   1745106   1741921   1739191   1737046  
  8130.000000   1735457   1734282   1733315   1732360   1731284  
  8120.000000   1730046   1728714   1727429   1726361   1725657  
  8110.000000   1725376   1725486   1725843   1726262   1726539  
  8100.000000   1726539   1726204   1725576   1724767   1723910  
  8090.000000   1723118   1722448   1721898   1721423   1720961  
  8080.000000   1720454   1719870   1719187   1718407   1717525  
  8070.000000   1716552   1715498   1714389   1713266   1712171  
  8060.000000   1711136   1710164   1709219   1708243   1707170  
  8050.000000   1705961   1704630   1703248   1701930   1700797  
  8040.000000   1699934   1699357   1699003   1698746   1698435  
  8030.000000   1697942   1697200   1696221   1695090   1693929  
  8020.000000   1692861   1691970   1691281   1690760   1690330  
  8010.000000   1689898   1689384   1688739   1687953   1687051  
  8000.000000   1686082   1685098   1684149   1683263   1682455  
  7990.000000   1681717   1681040   1680397   1679781   1679179  
  7980.000000   1678600   1678055   1677564   1677147   1676820  
  7970.000000   1676600   1676505   1676562   1676799   1677242  
  7960.000000   1677897   1678728   1679650   1680514   1681151  
  7950.000000   1681382   1681091   1680238   1678902   1677255  
  7940.000000   1675539   1674010   1672876   1672274   1672229  
  7930.000000   1672687   1673519   1674577   1675701   1676756  
  7920.000000   1677628   1678229   1678507   1678429   1678010  
  7910.000000   1677290   1676363   1675339   1674354   1673528  
  7900.000000   1672958   1672690   1672718   1672987   1673397  
  7890.000000   1673838   1674201   1674417   1674459   1674357  
  7880.000000   1674182   1674024   1673964   1674048   1674277  
  7870.000000   1674600   1674935   1675191   1675291   1675188  
  7860.000000   1674866   1674343   1673648   1672836   1671962  
  7850.000000   1671102   1670333   1669736   1669366   1669241  
  7840.000000   1669322   1669524   1669729   1669819   1669706  
  7830.000000   1669350   1668766   1667999   1667120   1666186  
  7820.000000   1665253   1664364   1663571   1662933   1662511  
  7810.000000   1662356   1662469   1662815   1663297   1663804  
  7800.000000   1664231   1664514   1664644   1664652   1664582  
  7790.000000   1664454   1664242   1663875   1663276   1662393  
  7780.000000   1661247   1659938   1658617   1657453   1656559  
  7770.000000   1655976   1655645   1655458   1655285   1655032  
  7760.000000   1654659   1654180   1653632   1653049   1652433  
  7750.000000   1651754   1650979   1650093   1649128   1648156  
  7740.000000   1647279   1646575   1646078   1645756   1645520  
  7730.000000   1645265   1644902   1644399   1643791   1643154  
  7720.000000   1642588   1642159   1641890   1641736   1641612  
  7710.000000   1641410   1641041   1640455   1639661   1638728  
  7700.000000   1637769   1636930   1636344   1636113   1636266  
  7690.000000   1636751   1637434   1638124   1638619   1638757  
  7680.000000   1638460   1637746   1636727   1635546   1634356  
  7670.000000   1633245   1632249   1631340   1630475   1629621  
  7660.000000   1628794   1628063   1627528   1627295   1627430  
  7650.000000   1627943   1628776   1629819   1630933   1631977  
  7640.000000   1632839   1633447   1633793   1633913   1633895  
  7630.000000   1633839   1633839   1633944   1634143   1634367  
  7620.000000   1634518   1634507   1634295   1633920   1633480  
  7610.000000   1633113   1632930   1632985   1633250   1633639  
  7600.000000   1634050   1634419   1634744   1635080   1635512  
  7590.000000   1636094   1636822   1637609   1638330   1638854  
  7580.000000   1639117   1639126   1638975   1638785   1638681  
  7570.000000   1638733   1638962   1639347   1639860   1640487  
  7560.000000   1641234   1642116   1643130   1644240   1645378  
  7550.000000   1646469   1647454   1648319   1649098   1649846  
  7540.000000   1650617   1651427   1652257   1653052   1653760  
  7530.000000   1654345   1654822   1655230   1655636   1656089  
  7520.000000   1656626   1657252   1657972   1658787   1659715  
  7510.000000   1660776   1661991   1663360   1664869   1666489  
  7500.000000   1668202   1669993   1671866   1673816   1675825  
  7490.000000   1677838   1679790   1681598   1683224   1684662  
  7480.000000   1685968   1687221   1688508   1689877   1691345  
  7470.000000   1692888   1694477   1696098   1697769   1699531  
  7460.000000   1701429   1703486   1705686   1707982   1710314  
  7450.000000   1712632   1714918   1717174   1719422   1721666  
  7440.000000   1723896   1726074   1728173   1730170   1732084  
  7430.000000   1733950   1735824   1737742   1739723   1741761  
  7420.000000   1743842   1745968   1748165   1750481   1752962  
  7410.000000   1755625   1758449   1761366   1764286   1767123  
  7400.000000   1769829   1772394   1774847   1777224   1779557  
  7390.000000   1781859   1784129   1786370   1788598   1790852  
  7380.000000   1793178   1795612   1798152   1800758   1803351  
  7370.000000   1805850   1808184   1810322   1812275   1814087  
  7360.000000   1815820   1817541   1819304   1821160   1823142  
  7350.000000   1825279   1827580   1830036   1832601   1835211  
  7340.000000   1837789   1840266   1842596   1844762   1846775  
  7330.000000   1848661   1850453   1852178   1853860   1855521  
  7320.000000   1857179   1858859   1860575   1862339   1864142  
  7310.000000   1865971   1867801   1869617   1871406   1873168  
  7300.000000   1874904   1876609   1878267   1879858   1881353  
  7290.000000   1882736   1884000   1885155   1886215   1887201  
  7280.000000   1888131   1889030   1889926   1890858   1891864  
  7270.000000   1892974   1894191   1895483   1896790   1898032  
  7260.000000   1899142   1900081   1900862   1901534   1902181  
  7250.000000   1902884   1903724   1904745   1905986   1907454  
  7240.000000   1909160   1911083   1913196   1915432   1917718  
  7230.000000   1919961   1922113   1924152   1926133   1928131  
  7220.000000   1930258   1932587   1935160   1937947   1940896  
  7210.000000   1943919   1946962   1949987   1953001   1956020  
  7200.000000   1959074   1962171   1965321   1968519   1971783  
  7190.000000   1975131   1978608   1982232   1986012   1989904  
  7180.000000   1993840   1997727   2001498   2005110   2008590  
  7170.000000   2011990   2015411   2018940   2022661   2026596  
  7160.000000   2030742   2035039   2039431   2043852   2048284  
  7150.000000   2052726   2057239   2061889   2066761   2071893  
  7140.000000   2077290   2082881   2088582   2094281   2099931  
  7130.000000   2105514   2111099   2116763   2122610   2128673  
  7120.000000   2134950   2141354   2147799   2154188   2160499  
  7110.000000   2166755   2173048   2179469   2186110   2193000  
  7100.000000   2200138   2207464   2214924   2222449   2230001  
  7090.000000   2237541   2245054   2252517   2259923   2267265  
  7080.000000   2274565   2281846   2289150   2296498   2303902  
  7070.000000   2311340   2318787   2326209   2333593   2340943  
  7060.000000   2348281   2355627   2363001   2370404   2377832  
  7050.000000   2385282   2392756   2400266   2407820   2415424  
  7040.000000   2423064   2430715   2438350   2445949   2453501  
  7030.000000   2461007   2468452   2475813   2483040   2490086  
  7020.000000   2496912   2503529   2509980   2516349   2522710  
  7010.000000   2529113   2535547   2541968   2548298   2554491  
  7000.000000   2560528   2566451   2572306   2578144   2583962  
  6990.000000   2589728   2595369   2600834   2606097   2611194  
  6980.000000   2616174   2621103   2625990   2630821   2635527  
  6970.000000   2640063   2644390   2648552   2652607   2656649  
  6960.000000   2660724   2664846   2668952   2672962   2676775  
  6950.000000   2680326   2683575   2686530   2689208   2691655  
  6940.000000   2693915   2696062   2698170   2700344   2702655  
  6930.000000   2705162   2707850   2710673   2713530   2716334  
  6920.000000   2719009   2721531   2723900   2726136   2728244  
  6910.000000   2730208   2731996   2733582   2734965   2736188  
  6900.000000   2737323   2738459   2739665   2740985   2742417  
  6890.000000   2743942   2745523   2747134   2748747   2750344  
  6880.000000   2751899   2753390   2754800   2756133   2757417  
  6870.000000   2758696   2760007   2761360   2762725   2764038  
  6860.000000   2765228   2766256   2767132   2767928   2768741  
  6850.000000   2769670   2770760   2772001   2773323   2774640  
  6840.000000   2775874   2776994   2778007   2778949   2779852  
  6830.000000   2780730   2781563   2782320   2782969   2783495  
  6820.000000   2783902   2784213   2784451   2784643   2784809  
  6810.000000   2784982   2785194   2785486   2785881   2786383  
  6800.000000   2786950   2787526   2788039   2788447   2788741  
  6790.000000   2788950   2789115   2789267   2789401   2789481  
  6780.000000   2789456   2789299   2789021   2788685   2788370  
  6770.000000   2788147   2788034   2787998   2787968   2787873  
  6760.000000   2787675   2787387   2787057   2786744   2786480  
  6750.000000   2786261   2786050   2785814   2785542   2785263  
  6740.000000   2785028   2784880   2784820   2784794   2784707  
  6730.000000   2784468   2784022   2783390   2782650   2781917  
  6720.000000   2781289   2780816   2780486   2780246   2780028  
  6710.000000   2779788   2779506   2779187   2778838   2778457  
  6700.000000   2778024   2777525   2776957   2776351   2775748  
  6690.000000   2775196   2774709   2774268   2773819   2773310  
  6680.000000   2772706   2772018   2771280   2770540   2769812  
  6670.000000   2769072   2768254   2767294   2766155   2764863  
  6660.000000   2763495   2762158   2760932   2759850   2758873  
  6650.000000   2757926   2756929   2755845   2754688   2753520  
  6640.000000   2752406   2751384   2750436   2749499   2748485  
  6630.000000   2747326   2745992   2744505   2742916   2741293  
  6620.000000   2739683   2738119   2736606   2735147   2733740  
  6610.000000   2732385   2731071   2729771   2728438   2727016  
  6600.000000   2725460   2723752   2721911   2719990   2718058  
  6590.000000   2716177   2714393   2712727   2711182   2709749  
  6580.000000   2708414   2707162   2705966   2704794   2703605  
  6570.000000   2702365   2701056   2699680   2698263   2696837  
  6560.000000   2695431   2694049   2692683   2691309   2689912  
  6550.000000   2688490   2687066   2685666   2684314   2683016  
  6540.000000   2681759   2680520   2679284   2678056   2676866  
  6530.000000   2675751   2674745   2673850   2673041   2672264  
  6520.000000   2671460   2670583   2669615   2668567   2667469  
  6510.000000   2666357   2665263   2664211   2663215   2662290  
  6500.000000   2661448   2660691   2660009   2659367   2658708  
  6490.000000   2657967   2657088   2656040   2654829   2653497  
  6480.000000   2652112   2650743   2649451   2648274   2647222  
  6470.000000   2646288   2645445   2644663   2643910   2643159  
  6460.000000   2642395   2641609   2640808   2640000   2639199  
  6450.000000   2638405   2637615   2636813   2635991   2635146  
  6440.000000   2634299   2633484   2632747   2632121   2631620  
  6430.000000   2631230   2630914   2630622   2630314   2629958  
  6420.000000   2629548   2629081   2628571   2628023   2627451  
  6410.000000   2626872   2626316   2625818   2625421   2625148  
  6400.000000   2625003   2624961   2624978   2625004   2625003  
  6390.000000   2624961   2624887   2624802   2624726   2624670  
  6380.000000   2624630   2624598   2624565   2624532   2624507  
  6370.000000   2624498   2624500   2624494   2624449   2624332  
  6360.000000   2624118   2623807   2623414   2622973   2622511  
  6350.000000   2622048   2621587   2621126   2620656   2620183  
  6340.000000   2619711   2619257   2618829   2618428   2618042  
  6330.000000   2617656   2617247   2616801   2616301   2615735  
  6320.000000   2615085   2614340   2613489   2612544   2611528  
  6310.000000   2610492   2609482   2608539   2607671   2606861  
  6300.000000   2606059   2605214   2604275   2603216   2602031  
  6290.000000   2600737   2599349   2597895   2596391   2594867  
  6280.000000   2593350   2591881   2590485   2589181   2587947  
  6270.000000   2586745   2585508   2584185   2582737   2581168  
  6260.000000   2579508   2577806   2576100   2574409   2572725  
  6250.000000   2571025   2569286   2567509   2565710   2563929  
  6240.000000   2562201   2560550   2558968   2557430   2555893  
  6230.000000   2554314   2552659   2550909   2549061   2547119  
  6220.000000   2545101   2543029   2540938   2538869   2536864  
  6210.000000   2534957   2533164   2531474   2529860   2528278  
  6200.000000   2526691   2525073   2523416   2521724   2520014  
  6190.000000   2518293   2516573   2514857   2513157   2511489  
  6180.000000   2509878   2508346   2506913   2505579   2504330  
  6170.000000   2503139   2501980   2500829   2499674   2498511  
  6160.000000   2497342   2496166   2494981   2493781   2492561  
  6150.000000   2491321   2490066   2488802   2487531   2486249  
  6140.000000   2484944   2483605   2482226   2480811   2479379  
  6130.000000   2477955   2476569   2475242   2473985   2472799  
  6120.000000   2471676   2470604   2469577   2468588   2467636  
  6110.000000   2466719   2465838   2464988   2464171   2463376  
  6100.000000   2462603   2461845   2461102   2460374   2459675  
  6090.000000   2459014   2458414   2457887   2457445   2457078  
  6080.000000   2456773   2456499   2456237   2455968   2455697  
  6070.000000   2455430   2455191   2454989   2454836   2454721  
  6060.000000   2454646   2454600   2454601   2454664   2454826  
  6050.000000   2455107   2455528   2456081   2456757   2457530  
  6040.000000   2458390   2459327   2460353   2461475   2462708  
  6030.000000   2464041   2465464   2466947   2468467   2470000  
  6020.000000   2471543   2473088   2474646   2476213   2477789  
  6010.000000   2479361   2480922   2482461   2483988   2485509  
  6000.000000   2487051   2488630   2490270   2491975   2493751  
  5990.000000   2495586   2497476   2499408   2501386   2503413  
  5980.000000   2505512   2507699   2510000   2512425   2514981  
  5970.000000   2517653   2520427   2523272   2526176   2529122  
  5960.000000   2532117   2535160   2538264   2541416   2544609  
  5950.000000   2547811   2551004   2554168   2557314   2560460  
  5940.000000   2563653   2566937   2570352   2573922   2577646  
  5930.000000   2581501   2585443   2589418   2593364   2597224  
  5920.000000   2600946   2604495   2607849   2611005   2613979  
  5910.000000   2616796   2619483   2622070   2624579   2627034  
  5900.000000   2629454   2631869   2634302   2636790   2639346  
  5890.000000   2641982   2644683   2647430   2650192   2652950  
  5880.000000   2655689   2658406   2661093   2663737   2666311  
  5870.000000   2668779   2671108   2673279   2675299   2677204  
  5860.000000   2679048   2680890   2682776   2684737   2686782  
  5850.000000   2688910   2691115   2693394   2695742   2698152  
  5840.000000   2700603   2703067   2705513   2707912   2710260  
  5830.000000   2712567   2714863   2717175   2719524   2721906  
  5820.000000   2724303   2726681   2729016   2731295   2733526  
  5810.000000   2735734   2737941   2740174   2742429   2744711  
  5800.000000   2746990   2749264   2751500   2753701   2755839  
  5790.000000   2757913   2759883   2761728   2763384   2764801  
  5780.000000   2765887   2766569   2766756   2766403   2765487  
  5770.000000   2764063   2762222   2760118   2757901   2755726  
  5760.000000   2753681   2751827   2750155   2748651   2747273  
  5750.000000   2746009   2744843   2743778   2742804   2741907  
  5740.000000   2741062   2740238   2739421   2738602   2737798  
  5730.000000   2737021   2736295   2735627   2735028   2734494  
  5720.000000   2734030   2733636   2733313   2733046   2732814  
  5710.000000   2732579   2732309   2731984   2731611   2731218  
  5700.000000   2730853   2730560   2730363   2730262   2730230  
  5690.000000   2730234   2730241   2730242   2730235   2730237  
  5680.000000   2730248   2730264   2730247   2730158   2729943  
  5670.000000   2729559   2728967   2728144   2727068   2725737  
  5660.000000   2724155   2722358   2720396   2718354   2716313  
  5650.000000   2714355   2712524   2710839   2709277   2707805  
  5640.000000   2706381   2704976   2703572   2702165   2700752  
  5630.000000   2699327   2697889   2696437   2694988   2693565  
  5620.000000   2692205   2690933   2689765   2688691   2687686  
  5610.000000   2686717   2685757   2684791   2683822   2682862  
  5600.000000   2681924   2681016   2680137   2679284   2678453  
  5590.000000   2677640   2676843   2676056   2675261   2674435  
  5580.000000   2673558   2672617   2671620   2670593   2669570  
  5570.000000   2668583   2667641   2666737   2665841   2664926  
  5560.000000   2663971   2662976   2661957   2660939   2659938  
  5550.000000   2658956   2657980   2656994   2655983   2654949  
  5540.000000   2653903   2652863   2651843   2650844   2649855  
  5530.000000   2648861   2647850   2646818   2645766   2644700  
  5520.000000   2643619   2642518   2641387   2640224   2639035  
  5510.000000   2637846   2636680   2635566   2634508   2633499  
  5500.000000   2632513   2631528   2630521   2629492   2628443  
  5490.000000   2627379   2626285   2625139   2623901   2622540  
  5480.000000   2621039   2619416   2617701   2615945   2614185  
  5470.000000   2612445   2610724   2609018   2607308   2605592  
  5460.000000   2603865   2602127   2600365   2598558   2596683  
  5450.000000   2594722   2592679   2590582   2588475   2586406  
  5440.000000   2584410   2582501   2580675   2578922   2577238  
  5430.000000   2575626   2574099   2572652   2571273   2569923  
  5420.000000   2568567   2567171   2565744   2564318   2562965  
  5410.000000   2561743   2560702   2559836   2559126   2558519  
  5400.000000   2557995   2557534   2557165   2556905   2556790  
  5390.000000   2556814   2556977   2557250   2557634   2558128  
  5380.000000   2558771   2559576   2560572   2561728   2563025  
  5370.000000   2564396   2565824   2567275   2568787   2570374  
  5360.000000   2572108   2574005   2576127   2578474   2581110  
  5350.000000   2584044   2587354   2591045   2595178   2599715  
  5340.000000   2604672   2609975   2615643   2621617   2627948  
  5330.000000   2634599   2641631   2649002   2656774   2664910  
  5320.000000   2673507   2682566   2692224   2702488   2713478  
  5310.000000   2725149   2737560   2750610   2764336   2778654  
  5300.000000   2793648   2809293   2825728   2842964   2861142  
  5290.000000   2880236   2900307   2921234   2942965   2965310  
  5280.000000   2988207   3011533   3035346   3059670   3084664  
  5270.000000   3110380   3136874   3164031   3191686   3219587  
  5260.000000   3247525   3275368   3303091   3330754   3358420  
  5250.000000   3386120   3413752   3441165   3468092   3494366  
  5240.000000   3519808   3544451   3568311   3591571   3614284  
  5230.000000   3636580   3658382   3679670   3700247   3720054  
  5220.000000   3738931   3756937   3774051   3790454   3806192  
  5210.000000   3821441   3836165   3850407   3863997   3876892  
  5200.000000   3888920   3900120   3910447   3920060   3928983  
  5190.000000   3937370   3945181   3952472   3959130   3965175  
  5180.000000   3970511   3975207   3979220   3982649   3985457  
  5170.000000   3987720   3989391   3990549   3991170   3991354  
  5160.000000   3991089   3990459   3989418   3988004   3986151  
  5150.000000   3983898   3981212   3978164   3974749   3971035  
  5140.000000   3967000   3962679   3958045   3953141   3947973  
  5130.000000   3942620   3937107   3931500   3925795   3920013  
  5120.000000   3914123   3908137   3902046   3895885   3889669  
  5110.000000   3883431   3877169   3870890   3864581   3858254  
  5100.000000   3851921   3845620   3839380   3833223   3827143  
  5090.000000   3821117   3815103   3809072   3803006   3796918  
  5080.000000   3790830   3784774   3778763   3772798   3766855  
  5070.000000   3760907   3754924   3748897   3742824   3736724  
  5060.000000   3730608   3724493   3718376   3712256   3706117  
  5050.000000   3699947   3693729   3687452   3681096   3674651  
  5040.000000   3668104   3661455   3654709   3647888   3641019  
  5030.000000   3634133   3627263   3620435   3613674   3606999  
  5020.000000   3600433   3593987   3587683   3581518   3575502  
  5010.000000   3569616   3563862   3558216   3552691   3547278  
  5000.000000   3542006   3536875   3531926   3527156   3522603  
  4990.000000   3518262   3514173   3510327   3506760   3503452  
  4980.000000   3500425   3497642   3495122   3492831   3490810  
  4970.000000   3489047   3487608   3486487   3485740   3485337  
  4960.000000   3485306   3485595   3486229   3487171   3488473  
  4950.000000   3490123   3492186   3494642   3497535   3500814  
  4940.000000   3504496   3508516   3512895   3517580   3522608  
  4930.000000   3527942   3533625   3539623   3545979   3552661  
  4920.000000   3559713   3567104   3574868   3582968   3591419  
  4910.000000   3600176   3609241   3618569   3628158   3637971  
  4900.000000   3648000   3658208   3668575   3679062   3689636  
  4890.000000   3700260   3710888   3721478   3731970   3742323  
  4880.000000   3752471   3762391   3772036   3781408   3790465  
  4870.000000   3799210   3807578   3815547   3823038   3830035  
  4860.000000   3836488   3842433   3847873   3852890   3857510  
  4850.000000   3861815   3865815   3869573   3873085   3876400  
  4840.000000   3879512   3882465   3885245   3887883   3890359  
  4830.000000   3892698   3894894   3896985   3898989   3900948  
  4820.000000   3902880   3904807   3906722   3908621   3910485  
  4810.000000   3912309   3914086   3915824   3917533   3919231  
  4800.000000   3920937   3922674   3924461   3926321   3928265  
  4790.000000   3930297   3932404   3934563   3936744   3938919  
  4780.000000   3941068   3943184   3945267   3947321   3949340  
  4770.000000   3951313   3953213   3955021   3956715   3958299  
  4760.000000   3959779   3961183   3962520   3963806   3965025  
  4750.000000   3966168   3967204   3968130   3968931   3969625  
  4740.000000   3970214   3970719   3971132   3971455   3971670  
  4730.000000   3971775   3971763   3971645   3971428   3971129  
  4720.000000   3970752   3970301   3969777   3969187   3968549  
  4710.000000   3967894   3967268   3966720   3966293   3966015  
  4700.000000   3965899   3965937   3966113   3966404   3966796  
  4690.000000   3967275   3967847   3968511   3969281   3970152  
  4680.000000   3971120   3972155   3973229   3974289   3975299  
  4670.000000   3976214   3977024   3977722   3978341   3978914  
  4660.000000   3979503   3980155   3980927   3981852   3982962  
  4650.000000   3984266   3985770   3987465   3989338   3991367  
  4640.000000   3993529   3995796   3998144   4000551   4002993  
  4630.000000   4005449   4007893   4010296   4012620   4014830  
  4620.000000   4016886   4018762   4020430   4021879   4023095  
  4610.000000   4024084   4024840   4025387   4025736   4025934  
  4600.000000   4026012   4026032   4026026   4026042   4026081  
  4590.000000   4026152   4026213   4026242   4026178   4025991  
  4580.000000   4025629   4025078   4024307   4023323   4022122  
  4570.000000   4020734   4019174   4017484   4015686   4013815  
  4560.000000   4011879   4009895   4007854   4005759   4003595  
  4550.000000   4001365   3999063   3996695   3994264   3991781  
  4540.000000   3989258   3986717   3984182   3981677   3979225  
  4530.000000   3976832   3974505   3972221   3969978   3967749  
  4520.000000   3965556   3963402   3961349   3959423   3957704  
  4510.000000   3956204   3954994   3954066   3953486   3953246  
  4500.000000   3953431   3954042   3955178   3956837   3959111  
  4490.000000   3961985   3965547   3969776   3974763   3980483  
  4480.000000   3987012   3994300   4002388   4011190   4020721  
  4470.000000   4030884   4041692   4053059   4065000   4077436  
  4460.000000   4090367   4103697   4117402   4131378   4145590  
  4450.000000   4159946   4174425   4188968   4203570   4218203  
  4440.000000   4232860   4247525   4262178   4276807   4291375  
  4430.000000   4305879   4320274   4334570   4348706   4362685  
  4420.000000   4376418   4389887   4402972   4415636   4427742  
  4410.000000   4439247   4450017   4460020   4469144   4477389  
  4400.000000   4484691   4491109   4496645   4501421   4505495  
  4390.000000   4509021   4512077   4514815   4517301   4519658  
  4380.000000   4521927   4524192   4526473   4528826   4531267  
  4370.000000   4533839   4536569   4539500   4542668   4546107  
  4360.000000   4549843   4553894   4558257   4562929   4567865  
  4350.000000   4573043   4578385   4583864   4589399   4594987  
  4340.000000   4600569   4606144   4611614   4616869   4621648  
  4330.000000   4625639   4628423   4629617   4628907   4626191  
  4320.000000   4621585   4615477   4608411   4601044   4593959  
  4310.000000   4587637   4582323   4578106   4574882   4572496  
  4300.000000   4570738   4569448   4568504   4567829   4567392  
  4290.000000   4567159   4567141   4567316   4567706   4568301  
  4280.000000   4569116   4570141   4571363   4572764   4574315  
  4270.000000   4576009   4577807   4579678   4581512   4583163  
  4260.000000   4584388   4584923   4584487   4582883   4580017  
  4250.000000   4575972   4570956   4565315   4559409   4553607  
  4240.000000   4548164   4543255   4538905   4535076   4531643  
  4230.000000   4528483   4525464   4522493   4519506   4516468  
  4220.000000   4513390   4510282   4507209   4504208   4501367  
  4210.000000   4498725   4496357   4494274   4492512   4491050  
  4200.000000   4489892   4488999   4488370   4487966   4487792  
  4190.000000   4487808   4488023   4488393   4488928   4489584  
  4180.000000   4490381   4491283   4492329   4493506   4494881  
  4170.000000   4496467   4498354   4500569   4503204   4506273  
  4160.000000   4509838   4513875   4518412   4523388   4528817  
  4150.000000   4534634   4540864   4547454   4554449   4561808  
  4140.000000   4569590   4577762   4586387   4595434   4604967  
  4130.000000   4614950   4625440   4636398   4647872   4659822  
  4120.000000   4672293   4685248   4698729   4712702   4727201  
  4110.000000   4742187   4757683   4773634   4790034   4806805  
  4100.000000   4823911   4841263   4858822   4876531   4894383  
  4090.000000   4912366   4930491   4948760   4967160   4985674  
  4080.000000   5004255   5022877   5041479   5060044   5078494  
  4070.000000   5096796   5114837   5132566   5149860   5166700  
  4060.000000   5183009   5198826   5214104   5228898   5243138  
  4050.000000   5256859   5269970   5282527   5294462   5305865  
  4040.000000   5316673   5326959   5336619   5345689   5354043  
  4030.000000   5361725   5368631   5374826   5380227   5384880  
  4020.000000   5388668   5391646   5393789   5395184   5395782  
  4010.000000   5395735   5395125   5393947   5391918   5389089  
  4000.000000   5385858  
##END= 
