##TITLE= Sample 008 By ssteindl date Donnerstag, November 22 2018
##JCAMP-DX= 4.24
##DATA TYPE= INFRARED SPECTRUM
##ORIGIN= Exported PE Spectrum Data File
##OWNER= Sandra Steindl
##DATE= 18/11/22
##TIME= 13:15:16.00
##SPECTROMETER/DATA SYSTEM= PERKIN-ELMER Frontier FT-IR/NIR IR
##INSTRUMENT PARAMETERS=
  APODIZATION=stark
  DETECTOR=INGAAS
##RESOLUTION= 16.000000
##DELTAX= -2.000000
##XUNITS= 1/CM
##YUNITS= A
##XFACTOR= 1.00
##YFACTOR= 0.00000011920928955078
##FIRSTX= 10000.00
##LASTX= 4000.00
##NPOINTS= 3001
##FIRSTY= 0.238151
##MAXY= 0.654358
##MINY= 0.195468
##XYDATA= (X++(Y..Y))
 10000.000000   1997751   1994753   1991166   1986709   1982287  
  9990.000000   1978973   1976885   1975204   1973202   1970404  
  9980.000000   1966429   1960987   1954139   1946313   1938190  
  9970.000000   1930685   1924938   1922016   1922659   1926877  
  9960.000000   1933895   1942121   1949564   1954299   1955025  
  9950.000000   1951479   1944566   1936148   1928574   1923996  
  9940.000000   1923827   1928290   1936374   1946069   1954885  
  9930.000000   1960545   1961544   1957620   1949703   1939723  
  9920.000000   1929928   1922336   1918135   1917455   1919470  
  9910.000000   1922726   1925679   1927103   1926338   1923327  
  9900.000000   1918398   1912112   1905070   1897890   1891263  
  9890.000000   1885877   1882418   1881278   1882454   1885403  
  9880.000000   1889168   1892656   1894967   1895696   1895032  
  9870.000000   1893612   1892271   1891634   1891981   1893123  
  9860.000000   1894656   1896109   1897217   1897921   1898364  
  9850.000000   1898710   1899077   1899478   1899883   1900294  
  9840.000000   1900733   1901289   1901982   1902828   1903780  
  9830.000000   1904896   1906315   1908331   1911193   1914978  
  9820.000000   1919344   1923509   1926360   1926805   1924148  
  9810.000000   1918425   1910445   1901590   1893368   1886946  
  9800.000000   1882821   1880772   1880039   1879681   1878889  
  9790.000000   1877216   1874605   1871301   1867718   1864276  
  9780.000000   1861409   1859454   1858734   1859375   1861319  
  9770.000000   1864192   1867409   1870337   1872514   1873886  
  9760.000000   1874787   1875880   1877819   1880998   1885321  
  9750.000000   1890158   1894558   1897474   1898180   1896371  
  9740.000000   1892309   1886591   1879997   1873249   1866880  
  9730.000000   1861287   1856708   1853414   1851628   1851632  
  9720.000000   1853566   1857467   1863049   1869766   1876727  
  9710.000000   1882878   1887166   1888785   1887448   1883407  
  9700.000000   1877520   1870917   1864811   1860053   1856986  
  9690.000000   1855330   1854343   1853153   1851019   1847710  
  9680.000000   1843461   1839028   1835319   1833213   1833221  
  9670.000000   1835388   1839264   1843971   1848440   1851551  
  9660.000000   1852483   1850806   1846723   1840928   1834519  
  9650.000000   1828651   1824233   1821692   1820870   1821193  
  9640.000000   1821942   1822615   1823118   1823778   1825076  
  9630.000000   1827309   1830314   1833386   1835553   1835897  
  9620.000000   1834045   1830288   1825598   1821246   1818385  
  9610.000000   1817678   1819090   1822050   1825665   1829141  
  9600.000000   1831924   1833854   1834969   1835433   1835325  
  9590.000000   1834676   1833466   1831727   1829567   1827123  
  9580.000000   1824517   1821740   1818675   1815126   1810949  
  9570.000000   1806151   1800930   1795646   1790704   1786457  
  9560.000000   1783119   1780789   1779462   1779106   1779652  
  9550.000000   1780984   1782935   1785237   1787634   1789829  
  9540.000000   1791642   1792899   1793518   1793381   1792413  
  9530.000000   1790576   1788011   1785124   1782575   1781187  
  9520.000000   1781623   1784170   1788486   1793690   1798590  
  9510.000000   1802063   1803439   1802621   1800086   1796565  
  9500.000000   1792780   1789163   1785828   1782703   1779756  
  9490.000000   1777223   1775581   1775433   1777146   1780679  
  9480.000000   1785430   1790461   1794719   1797386   1798072  
  9470.000000   1796841   1794145   1790579   1786757   1783154  
  9460.000000   1780103   1777796   1776294   1775540   1775318  
  9450.000000   1775298   1775092   1774394   1773093   1771319  
  9440.000000   1769394   1767657   1766318   1765341   1764500  
  9430.000000   1763542   1762355   1761121   1760256   1760314  
  9420.000000   1761708   1764546   1768484   1772805   1776608  
  9410.000000   1779043   1779573   1777996   1774541   1769657  
  9400.000000   1764009   1758269   1753049   1748809   1745752  
  9390.000000   1743915   1743113   1743169   1743892   1745276  
  9380.000000   1747398   1750426   1754364   1758893   1763247  
  9370.000000   1766301   1766956   1764469   1758901   1751051  
  9360.000000   1742367   1734403   1728388   1724809   1723297  
  9350.000000   1722915   1722575   1721586   1719855   1717909  
  9340.000000   1716566   1716585   1718310   1721505   1725425  
  9330.000000   1729054   1731509   1732267   1731338   1729133  
  9320.000000   1726344   1723727   1721937   1721383   1722105  
  9310.000000   1723765   1725725   1727202   1727491   1726157  
  9300.000000   1723184   1719020   1714435   1710316   1707347  
  9290.000000   1705833   1705653   1706376   1707497   1708615  
  9280.000000   1709539   1710267   1710837   1711249   1711352  
  9270.000000   1710944   1709878   1708222   1706326   1704705  
  9260.000000   1703865   1704027   1705022   1706296   1707111  
  9250.000000   1706776   1704918   1701611   1697399   1693069  
  9240.000000   1689421   1687018   1686083   1686500   1687892  
  9230.000000   1689793   1691789   1693640   1695306   1696915  
  9220.000000   1698650   1700668   1702983   1705418   1707624  
  9210.000000   1709167   1709710   1709105   1707505   1705295  
  9200.000000   1702977   1700995   1699538   1698534   1697639  
  9190.000000   1696460   1694688   1692319   1689644   1687173  
  9180.000000   1685397   1684619   1684803   1685586   1686375  
  9170.000000   1686569   1685778   1683918   1681254   1678268  
  9160.000000   1675544   1673556   1672554   1672484   1673026  
  9150.000000   1673693   1673997   1673611   1672509   1670954  
  9140.000000   1669430   1668445   1668373   1669251   1670784  
  9130.000000   1672395   1673489   1673628   1672734   1671095  
  9120.000000   1669266   1667882   1667426   1668106   1669819  
  9110.000000   1672256   1675038   1677808   1680288   1682277  
  9100.000000   1683633   1684254   1684090   1683214   1681852  
  9090.000000   1680374   1679156   1678501   1678474   1678942  
  9080.000000   1679549   1679954   1679911   1679427   1678671  
  9070.000000   1677853   1677060   1676151   1674806   1672599  
  9060.000000   1669218   1664612   1659115   1653348   1648051  
  9050.000000   1643903   1641360   1640591   1641445   1643568  
  9040.000000   1646489   1649702   1652707   1655070   1656510  
  9030.000000   1656914   1656397   1655223   1653803   1652503  
  9020.000000   1651607   1651162   1651076   1651134   1651141  
  9010.000000   1650996   1650698   1650342   1650012   1649778  
  9000.000000   1649650   1649654   1649855   1650390   1651413  
  8990.000000   1653001   1655058   1657286   1659243   1660485  
  8980.000000   1660709   1659889   1658277   1656319   1654478  
  8970.000000   1653074   1652197   1651718   1651389   1650959  
  8960.000000   1650275   1649299   1648088   1646717   1645251  
  8950.000000   1643739   1642264   1640961   1640035   1639702  
  8940.000000   1640146   1641413   1643403   1645871   1648530  
  8930.000000   1651109   1653418   1655361   1656917   1658111  
  8920.000000   1658989   1659627   1660136   1660672   1661387  
  8910.000000   1662374   1663600   1664892   1665964   1666515  
  8900.000000   1666320   1665333   1663695   1661686   1659613  
  8890.000000   1657729   1656167   1654967   1654105   1653564  
  8880.000000   1653343   1653473   1653945   1654700   1655601  
  8870.000000   1656484   1657212   1657728   1658065   1658294  
  8860.000000   1658487   1658634   1658672   1658493   1658044  
  8850.000000   1657352   1656544   1655790   1655237   1654931  
  8840.000000   1654813   1654753   1654644   1654457   1654271  
  8830.000000   1654224   1654440   1654948   1655652   1656382  
  8820.000000   1656971   1657353   1657600   1657894   1658446  
  8810.000000   1659380   1660680   1662154   1663533   1664532  
  8800.000000   1664980   1664820   1664139   1663094   1661893  
  8790.000000   1660748   1659865   1659447   1659671   1660662  
  8780.000000   1662433   1664859   1667691   1670600   1673276  
  8770.000000   1675486   1677138   1678253   1678944   1679332  
  8760.000000   1679534   1679648   1679792   1680123   1680824  
  8750.000000   1682063   1683895   1686229   1688784   1691193  
  8740.000000   1693077   1694197   1694502   1694153   1693445  
  8730.000000   1692704   1692179   1691986   1692122   1692504  
  8720.000000   1693034   1693625   1694205   1694694   1695002  
  8710.000000   1695040   1694772   1694250   1693632   1693149  
  8700.000000   1693036   1693450   1694412   1695808   1697449  
  8690.000000   1699156   1700840   1702512   1704256   1706130  
  8680.000000   1708114   1710043   1711681   1712763   1713142  
  8670.000000   1712823   1712003   1711002   1710196   1709915  
  8660.000000   1710376   1711657   1713697   1716333   1719315  
  8650.000000   1722359   1725165   1727488   1729195   1730303  
  8640.000000   1731006   1731595   1732402   1733650   1735400  
  8630.000000   1737497   1739635   1741478   1742788   1743544  
  8620.000000   1743938   1744330   1745085   1746459   1748485  
  8610.000000   1750971   1753582   1755937   1757759   1758918  
  8600.000000   1759477   1759617   1759575   1759569   1759757  
  8590.000000   1760249   1761106   1762398   1764179   1766505  
  8580.000000   1769350   1772624   1776120   1779581   1782706  
  8570.000000   1785241   1787008   1787934   1788055   1787481  
  8560.000000   1786386   1784960   1783404   1781907   1780648  
  8550.000000   1779765   1779326   1779316   1779627   1780105  
  8540.000000   1780577   1780945   1781210   1781494   1782007  
  8530.000000   1782966   1784534   1786722   1789406   1792317  
  8520.000000   1795167   1797679   1799692   1801159   1802161  
  8510.000000   1802852   1803410   1804003   1804773   1805833  
  8500.000000   1807259   1809078   1811246   1813638   1816041  
  8490.000000   1818214   1819942   1821110   1821745   1822011  
  8480.000000   1822174   1822499   1823181   1824269   1825687  
  8470.000000   1827264   1828819   1830232   1831481   1832657  
  8460.000000   1833896   1835356   1837128   1839238   1841610  
  8450.000000   1844127   1846639   1849010   1851123   1852897  
  8440.000000   1854282   1855257   1855816   1855965   1855725  
  8430.000000   1855142   1854284   1853263   1852214   1851308  
  8420.000000   1850687   1850471   1850677   1851267   1852109  
  8410.000000   1853063   1853983   1854784   1855432   1855939  
  8400.000000   1856313   1856536   1856563   1856331   1855819  
  8390.000000   1855060   1854172   1853308   1852601   1852107  
  8380.000000   1851772   1851474   1851069   1850495   1849810  
  8370.000000   1849191   1848859   1848975   1849553   1850429  
  8360.000000   1851319   1851915   1852023   1851626   1850906  
  8350.000000   1850146   1849624   1849503   1849784   1850333  
  8340.000000   1850955   1851493   1851884   1852171   1852434  
  8330.000000   1852744   1853094   1853418   1853610   1853593  
  8320.000000   1853358   1852969   1852529   1852108   1851707  
  8310.000000   1851242   1850590   1849657   1848429   1847009  
  8300.000000   1845583   1844368   1843528   1843127   1843097  
  8290.000000   1843295   1843533   1843673   1843632   1843435  
  8280.000000   1843163   1842932   1842822   1842847   1842943  
  8270.000000   1842966   1842734   1842055   1840804   1838945  
  8260.000000   1836584   1833934   1831284   1828927   1827082  
  8250.000000   1825858   1825215   1825022   1825090   1825276  
  8240.000000   1825493   1825740   1826053   1826465   1826956  
  8230.000000   1827416   1827672   1827518   1826802   1825466  
  8220.000000   1823596   1821394   1819139   1817129   1815588  
  8210.000000   1814639   1814236   1814208   1814287   1814199  
  8200.000000   1813730   1812786   1811403   1809735   1807977  
  8190.000000   1806302   1804796   1803458   1802218   1801012  
  8180.000000   1799826   1798724   1797811   1797186   1796860  
  8170.000000   1796719   1796529   1796005   1794920   1793185  
  8160.000000   1790902   1788315   1785733   1783412   1781481  
  8150.000000   1779919   1778597   1777369   1776151   1774965  
  8140.000000   1773912   1773097   1772553   1772190   1771818  
  8130.000000   1771204   1770183   1768714   1766917   1765031  
  8120.000000   1763336   1762068   1761347   1761167   1761413  
  8110.000000   1761910   1762471   1762925   1763131   1762973  
  8100.000000   1762368   1761271   1759700   1757748   1755581  
  8090.000000   1753414   1751459   1749887   1748779   1748137  
  8080.000000   1747873   1747861   1747943   1747960   1747755  
  8070.000000   1747186   1746150   1744590   1742550   1740164  
  8060.000000   1737668   1735337   1733430   1732113   1731417  
  8050.000000   1731232   1731357   1731570   1731700   1731667  
  8040.000000   1731480   1731195   1730867   1730506   1730076  
  8030.000000   1729512   1728783   1727911   1726996   1726178  
  8020.000000   1725581   1725258   1725154   1725125   1724975  
  8010.000000   1724538   1723734   1722597   1721258   1719895  
  8000.000000   1718667   1717666   1716895   1716290   1715756  
  7990.000000   1715212   1714623   1713995   1713368   1712777  
  7980.000000   1712241   1711743   1711249   1710720   1710142  
  7970.000000   1709524   1708907   1708340   1707868   1707518  
  7960.000000   1707297   1707194   1707191   1707263   1707389  
  7950.000000   1707534   1707660   1707709   1707630   1707372  
  7940.000000   1706916   1706276   1705508   1704704   1703979  
  7930.000000   1703445   1703195   1703285   1703714   1704431  
  7920.000000   1705332   1706280   1707132   1707762   1708096  
  7910.000000   1708112   1707861   1707427   1706924   1706440  
  7900.000000   1706036   1705726   1705492   1705309   1705161  
  7890.000000   1705069   1705071   1705230   1705581   1706135  
  7880.000000   1706843   1707614   1708330   1708873   1709157  
  7870.000000   1709139   1708830   1708277   1707550   1706726  
  7860.000000   1705871   1705045   1704292   1703652   1703149  
  7850.000000   1702799   1702585   1702467   1702373   1702226  
  7840.000000   1701957   1701531   1700972   1700346   1699756  
  7830.000000   1699296   1699024   1698936   1698971   1699036  
  7820.000000   1699048   1698967   1698815   1698670   1698616  
  7810.000000   1698714   1698952   1699249   1699476   1699508  
  7800.000000   1699276   1698792   1698147   1697463   1696835  
  7790.000000   1696292   1695779   1695192   1694432   1693471  
  7780.000000   1692375   1691299   1690422   1689883   1689710  
  7770.000000   1689806   1689980   1690013   1689738   1689090  
  7760.000000   1688123   1686979   1685826   1684812   1684019  
  7750.000000   1683470   1683145   1683004   1683005   1683096  
  7740.000000   1683203   1683226   1683044   1682558   1681725  
  7730.000000   1680601   1679339   1678145   1677224   1676690  
  7720.000000   1676539   1676629   1676744   1676661   1676228  
  7710.000000   1675411   1674300   1673068   1671913   1671005  
  7700.000000   1670446   1670263   1670417   1670826   1671387  
  7690.000000   1671988   1672522   1672898   1673057   1672976  
  7680.000000   1672682   1672231   1671697   1671130   1670553  
  7670.000000   1669943   1669265   1668483   1667602   1666674  
  7660.000000   1665783   1665031   1664488   1664185   1664103  
  7650.000000   1664194   1664401   1664684   1665027   1665418  
  7640.000000   1665849   1666285   1666682   1666987   1667175  
  7630.000000   1667247   1667240   1667205   1667184   1667189  
  7620.000000   1667206   1667206   1667174   1667115   1667063  
  7610.000000   1667048   1667082   1667132   1667129   1666997  
  7600.000000   1666698   1666256   1665770   1665379   1665218  
  7590.000000   1665361   1665798   1666433   1667127   1667749  
  7580.000000   1668228   1668563   1668817   1669069   1669384  
  7570.000000   1669780   1670247   1670745   1671255   1671772  
  7560.000000   1672323   1672926   1673588   1674286   1674984  
  7550.000000   1675654   1676301   1676970   1677730   1678642  
  7540.000000   1679730   1680954   1682227   1683431   1684467  
  7530.000000   1685275   1685857   1686259   1686550   1686785  
  7520.000000   1687004   1687226   1687469   1687764   1688169  
  7510.000000   1688739   1689525   1690533   1691730   1693030  
  7500.000000   1694336   1695551   1696625   1697554   1698394  
  7490.000000   1699225   1700161   1701295   1702714   1704448  
  7480.000000   1706488   1708760   1711155   1713533   1715768  
  7470.000000   1717764   1719501   1721020   1722428   1723845  
  7460.000000   1725383   1727099   1728997   1731020   1733091  
  7450.000000   1735129   1737077   1738912   1740637   1742280  
  7440.000000   1743881   1745492   1747174   1748987   1750988  
  7430.000000   1753205   1755628   1758191   1760787   1763294  
  7420.000000   1765610   1767685   1769546   1771284   1773029  
  7410.000000   1774902   1776981   1779261   1781669   1784078  
  7400.000000   1786358   1788409   1790205   1791796   1793306  
  7390.000000   1794893   1796705   1798837   1801304   1804037  
  7380.000000   1806896   1809719   1812372   1814791   1816998  
  7370.000000   1819080   1821156   1823315   1825585   1827913  
  7360.000000   1830195   1832315   1834200   1835862   1837392  
  7350.000000   1838949   1840688   1842720   1845046   1847572  
  7340.000000   1850128   1852530   1854633   1856369   1857770  
  7330.000000   1858935   1860005   1861116   1862364   1863790  
  7320.000000   1865370   1867044   1868738   1870406   1872040  
  7310.000000   1873684   1875412   1877306   1879402   1881680  
  7300.000000   1884049   1886370   1888500   1890334   1891854  
  7290.000000   1893118   1894242   1895346   1896503   1897722  
  7280.000000   1898943   1900087   1901092   1901965   1902777  
  7270.000000   1903650   1904693   1905966   1907439   1909006  
  7260.000000   1910526   1911870   1912977   1913857   1914596  
  7250.000000   1915303   1916083   1916989   1918040   1919205  
  7240.000000   1920460   1921775   1923157   1924611   1926161  
  7230.000000   1927802   1929537   1931351   1933253   1935249  
  7220.000000   1937382   1939678   1942177   1944881   1947794  
  7210.000000   1950880   1954113   1957442   1960828   1964213  
  7200.000000   1967562   1970830   1974015   1977129   1980235  
  7190.000000   1983402   1986719   1990232   1993957   1997837  
  7180.000000   2001790   2005704   2009502   2013136   2016626  
  7170.000000   2020023   2023424   2026913   2030583   2034478  
  7160.000000   2038630   2043017   2047613   2052356   2057199  
  7150.000000   2062082   2066981   2071884   2076827   2081850  
  7140.000000   2087019   2092361   2097893   2103572   2109358  
  7130.000000   2115181   2121010   2126810   2132597   2138372  
  7120.000000   2144162   2149967   2155810   2161701   2167685  
  7110.000000   2173805   2180122   2186669   2193466   2200478  
  7100.000000   2207662   2214940   2222264   2229588   2236908  
  7090.000000   2244217   2251527   2258831   2266131   2273426  
  7080.000000   2280744   2288115   2295591   2303193   2310919  
  7070.000000   2318707   2326472   2334115   2341571   2348825  
  7060.000000   2355927   2362967   2370052   2377263   2384641  
  7050.000000   2392176   2399819   2407509   2415186   2422810  
  7040.000000   2430354   2437812   2445174   2452441   2459609  
  7030.000000   2466685   2473674   2480589   2487438   2494224  
  7020.000000   2500943   2507592   2514166   2520674   2527125  
  7010.000000   2533537   2539916   2546272   2552597   2558896  
  7000.000000   2565158   2571399   2577612   2583807   2589964  
  6990.000000   2596071   2602092   2608005   2613775   2619387  
  6980.000000   2624807   2630009   2634947   2639598   2643943  
  6970.000000   2648020   2651894   2655682   2659481   2663388  
  6960.000000   2667417   2671550   2675697   2679780   2683712  
  6950.000000   2687472   2691052   2694490   2697800   2700995  
  6940.000000   2704046   2706929   2709613   2712103   2714416  
  6930.000000   2716602   2718693   2720727   2722707   2724645  
  6920.000000   2726537   2728411   2730289   2732213   2734194  
  6910.000000   2736233   2738294   2740337   2742312   2744195  
  6900.000000   2745976   2747672   2749298   2750876   2752409  
  6890.000000   2753898   2755333   2756711   2758026   2759273  
  6880.000000   2760442   2761526   2762514   2763419   2764266  
  6870.000000   2765103   2765982   2766942   2767989   2769094  
  6860.000000   2770195   2771229   2772147   2772947   2773669  
  6850.000000   2774392   2775197   2776149   2777262   2778511  
  6840.000000   2779825   2781122   2782325   2783389   2784299  
  6830.000000   2785077   2785759   2786388   2786988   2787570  
  6820.000000   2788117   2788607   2789014   2789337   2789589  
  6810.000000   2789819   2790076   2790416   2790858   2791398  
  6800.000000   2791990   2792569   2793068   2793435   2793648  
  6790.000000   2793714   2793657   2793511   2793304   2793065  
  6780.000000   2792815   2792586   2792409   2792320   2792342  
  6770.000000   2792484   2792724   2793027   2793345   2793635  
  6760.000000   2793861   2794004   2794048   2793982   2793801  
  6750.000000   2793505   2793111   2792653   2792182   2791747  
  6740.000000   2791385   2791105   2790893   2790716   2790545  
  6730.000000   2790369   2790194   2790044   2789932   2789857  
  6720.000000   2789796   2789718   2789600   2789447   2789289  
  6710.000000   2789173   2789128   2789152   2789193   2789178  
  6700.000000   2789028   2788703   2788210   2787605   2786960  
  6690.000000   2786332   2785732   2785128   2784455   2783658  
  6680.000000   2782710   2781644   2780518   2779417   2778398  
  6670.000000   2777497   2776701   2775982   2775293   2774601  
  6660.000000   2773869   2773073   2772179   2771164   2770014  
  6650.000000   2768744   2767397   2766035   2764718   2763476  
  6640.000000   2762292   2761116   2759873   2758516   2757035  
  6630.000000   2755481   2753935   2752487   2751189   2750043  
  6620.000000   2748991   2747950   2746833   2745585   2744184  
  6610.000000   2742651   2741019   2739325   2737596   2735847  
  6600.000000   2734089   2732324   2730556   2728779   2726976  
  6590.000000   2725128   2723221   2721262   2719286   2717358  
  6580.000000   2715548   2713920   2712497   2711261   2710156  
  6570.000000   2709103   2708031   2706887   2705647   2704303  
  6560.000000   2702864   2701336   2699729   2698054   2696339  
  6550.000000   2694619   2692939   2691338   2689837   2688436  
  6540.000000   2687111   2685831   2684567   2683298   2682014  
  6530.000000   2680708   2679372   2677994   2676568   2675099  
  6520.000000   2673613   2672155   2670779   2669531   2668437  
  6510.000000   2667490   2666657   2665891   2665143   2664374  
  6500.000000   2663560   2662689   2661759   2660770   2659729  
  6490.000000   2658647   2657543   2656437   2655345   2654268  
  6480.000000   2653197   2652111   2650995   2649851   2648703  
  6470.000000   2647595   2646568   2645652   2644847   2644119  
  6460.000000   2643419   2642692   2641905   2641047   2640131  
  6450.000000   2639179   2638214   2637246   2636279   2635309  
  6440.000000   2634343   2633393   2632480   2631622   2630835  
  6430.000000   2630121   2629481   2628914   2628425   2628013  
  6420.000000   2627676   2627389   2627117   2626806   2626416  
  6410.000000   2625924   2625344   2624718   2624110   2623576  
  6400.000000   2623155   2622856   2622667   2622563   2622521  
  6390.000000   2622526   2622566   2622625   2622675   2622677  
  6380.000000   2622592   2622396   2622091   2621705   2621289  
  6370.000000   2620892   2620549   2620268   2620030   2619807  
  6360.000000   2619566   2619288   2618963   2618595   2618183  
  6350.000000   2617732   2617237   2616702   2616132   2615541  
  6340.000000   2614935   2614318   2613678   2613001   2612269  
  6330.000000   2611484   2610662   2609839   2609050   2608325  
  6320.000000   2607662   2607042   2606423   2605770   2605055  
  6310.000000   2604277   2603440   2602565   2601656   2600714  
  6300.000000   2599727   2598692   2597605   2596480   2595326  
  6290.000000   2594152   2592948   2591701   2590384   2588991  
  6280.000000   2587520   2585998   2584447   2582893   2581339  
  6270.000000   2579782   2578200   2576586   2574934   2573259  
  6260.000000   2571571   2569880   2568171   2566428   2564626  
  6250.000000   2562761   2560852   2558945   2557088   2555320  
  6240.000000   2553646   2552044   2550466   2548865   2547211  
  6230.000000   2545499   2543747   2541977   2540202   2538420  
  6220.000000   2536615   2534773   2532889   2530979   2529069  
  6210.000000   2527185   2525342   2523534   2521742   2519949  
  6200.000000   2518151   2516362   2514612   2512930   2511330  
  6190.000000   2509799   2508309   2506826   2505327   2503812  
  6180.000000   2502307   2500844   2499452   2498138   2496888  
  6170.000000   2495669   2494448   2493197   2491907   2490584  
  6160.000000   2489243   2487897   2486557   2485222   2483893  
  6150.000000   2482566   2481240   2479917   2478601   2477296  
  6140.000000   2476013   2474765   2473567   2472433   2471366  
  6130.000000   2470353   2469370   2468382   2467359   2466291  
  6120.000000   2465190   2464091   2463037   2462063   2461189  
  6110.000000   2460401   2459674   2458968   2458256   2457520  
  6100.000000   2456763   2455993   2455231   2454487   2453777  
  6090.000000   2453111   2452509   2451982   2451546   2451197  
  6080.000000   2450930   2450717   2450543   2450390   2450269  
  6070.000000   2450192   2450189   2450270   2450440   2450677  
  6060.000000   2450962   2451270   2451606   2451976   2452419  
  6050.000000   2452951   2453591   2454319   2455116   2455942  
  6040.000000   2456785   2457644   2458556   2459560   2460707  
  6030.000000   2462023   2463522   2465183   2466983   2468873  
  6020.000000   2470817   2472762   2474676   2476513   2478261  
  6010.000000   2479906   2481477   2483011   2484571   2486211  
  6000.000000   2487980   2489895   2491956   2494136   2496408  
  5990.000000   2498735   2501099   2503481   2505881   2508293  
  5980.000000   2510731   2513202   2515737   2518356   2521096  
  5970.000000   2523969   2526985   2530116   2533338   2536604  
  5960.000000   2539889   2543170   2546458   2549764   2553119  
  5950.000000   2556538   2560039   2563620   2567281   2571014  
  5940.000000   2574814   2578676   2582592   2586552   2590538  
  5930.000000   2594532   2598508   2602446   2606320   2610108  
  5920.000000   2613787   2617334   2620727   2623955   2627010  
  5910.000000   2629901   2632644   2635264   2637788   2640255  
  5900.000000   2642696   2645156   2647666   2650263   2652957  
  5890.000000   2655759   2658643   2661587   2664551   2667507  
  5880.000000   2670425   2673281   2676048   2678691   2681172  
  5870.000000   2683450   2685506   2687340   2688990   2690521  
  5860.000000   2692013   2693541   2695164   2696918   2698816  
  5850.000000   2700862   2703051   2705378   2707828   2710374  
  5840.000000   2712971   2715568   2718115   2720581   2722966  
  5830.000000   2725295   2727612   2729954   2732341   2734762  
  5820.000000   2737189   2739586   2741926   2744204   2746427  
  5810.000000   2748613   2750766   2752892   2754970   2757003  
  5800.000000   2758985   2760955   2762936   2764978   2767075  
  5790.000000   2769221   2771340   2773362   2775171   2776684  
  5780.000000   2777799   2778459   2778600   2778203   2777265  
  5770.000000   2775843   2774023   2771949   2769761   2767611  
  5760.000000   2765593   2763771   2762136   2760666   2759310  
  5750.000000   2758037   2756819   2755653   2754536   2753467  
  5740.000000   2752445   2751471   2750553   2749700   2748931  
  5730.000000   2748241   2747618   2747023   2746415   2745755  
  5720.000000   2745032   2744256   2743466   2742705   2742004  
  5710.000000   2741369   2740786   2740225   2739662   2739084  
  5700.000000   2738501   2737932   2737394   2736898   2736437  
  5690.000000   2736006   2735594   2735208   2734848   2734525  
  5680.000000   2734223   2733916   2733551   2733071   2732420  
  5670.000000   2731562   2730479   2729175   2727661   2725961  
  5660.000000   2724099   2722112   2720042   2717952   2715895  
  5650.000000   2713927   2712068   2710323   2708662   2707054  
  5640.000000   2705461   2703868   2702272   2700680   2699106  
  5630.000000   2697553   2696026   2694521   2693044   2691601  
  5620.000000   2690209   2688873   2687599   2686375   2685190  
  5610.000000   2684029   2682892   2681788   2680734   2679740  
  5600.000000   2678807   2677919   2677049   2676173   2675278  
  5590.000000   2674364   2673446   2672536   2671642   2670752  
  5580.000000   2669849   2668912   2667933   2666917   2665884  
  5570.000000   2664857   2663849   2662865   2661893   2660918  
  5560.000000   2659928   2658919   2657893   2656851   2655791  
  5550.000000   2654704   2653582   2652424   2651245   2650074  
  5540.000000   2648940   2647863   2646840   2645846   2644842  
  5530.000000   2643796   2642697   2641563   2640432   2639348  
  5520.000000   2638340   2637407   2636524   2635649   2634739  
  5510.000000   2633767   2632721   2631609   2630440   2629230  
  5500.000000   2627990   2626737   2625493   2624289   2623149  
  5490.000000   2622085   2621077   2620085   2619047   2617908  
  5480.000000   2616629   2615208   2613663   2612035   2610359  
  5470.000000   2608661   2606946   2605214   2603456   2601676  
  5460.000000   2599873   2598050   2596193   2594285   2592303  
  5450.000000   2590236   2588094   2585914   2583747   2581640  
  5440.000000   2579625   2577699   2575845   2574036   2572258  
  5430.000000   2570510   2568812   2567173   2565599   2564069  
  5420.000000   2562568   2561078   2559617   2558215   2556934  
  5410.000000   2555809   2554865   2554069   2553387   2552761  
  5400.000000   2552181   2551644   2551200   2550881   2550732  
  5390.000000   2550740   2550894   2551143   2551477   2551887  
  5380.000000   2552415   2553088   2553952   2554996   2556217  
  5370.000000   2557560   2559016   2560547   2562186   2563931  
  5360.000000   2565836   2567894   2570151   2572596   2575296  
  5350.000000   2578272   2581625   2585383   2589627   2594322  
  5340.000000   2599487   2605032   2610969   2617227   2623852  
  5330.000000   2630802   2638140   2645815   2653890   2662324  
  5320.000000   2671220   2680587   2690579   2701220   2712648  
  5310.000000   2724823   2737806   2751481   2765873   2780880  
  5300.000000   2796570   2812912   2830039   2847964   2866829  
  5290.000000   2886616   2907394   2929049   2951542   2974688  
  5280.000000   2998422   3022615   3047311   3072518   3098380  
  5270.000000   3124943   3152270   3180257   3208757   3237534  
  5260.000000   3266390   3295191   3323904   3352579   3381266  
  5250.000000   3409988   3438637   3467061   3494988   3522247  
  5240.000000   3548652   3574232   3598996   3623129   3646688  
  5230.000000   3669815   3692444   3714573   3736010   3756698  
  5220.000000   3776471   3795371   3813354   3830583   3847086  
  5210.000000   3863033   3878394   3893237   3907418   3920930  
  5200.000000   3933623   3945551   3956659   3967085   3976815  
  5190.000000   3985965   3994460   4002339   4009482   4015930  
  5180.000000   4021610   4026626   4030957   4034714   4037856  
  5170.000000   4040446   4042415   4043823   4044634   4044952  
  5160.000000   4044776   4044204   4043204   4041823   4039991  
  5150.000000   4037743   4035041   4031960   4028502   4024754  
  5140.000000   4020706   4016403   4011809   4006950   4001804  
  5130.000000   3996422   3990816   3985052   3979144   3973139  
  5120.000000   3967031   3960850   3954589   3948280   3941927  
  5110.000000   3935557   3929170   3922780   3916378   3909976  
  5100.000000   3903574   3897187   3890819   3884480   3878161  
  5090.000000   3871863   3865578   3859314   3853081   3846899  
  5080.000000   3840779   3834727   3828725   3822754   3816781  
  5070.000000   3810785   3804747   3798670   3792550   3786391  
  5060.000000   3780184   3773919   3767578   3761154   3754642  
  5050.000000   3748058   3741414   3734733   3728022   3721292  
  5040.000000   3714539   3707766   3700974   3694170   3687361  
  5030.000000   3680555   3673754   3666956   3660167   3653390  
  5020.000000   3646652   3639978   3633412   3626982   3620722  
  5010.000000   3614635   3608730   3602984   3597399   3591955  
  5000.000000   3586670   3581537   3576590   3571827   3567282  
  4990.000000   3562945   3558849   3554978   3551367   3548000  
  4980.000000   3544914   3542088   3539563   3537316   3535393  
  4970.000000   3533775   3532513   3531589   3531046   3530849  
  4960.000000   3531032   3531548   3532432   3533646   3535240  
  4950.000000   3537190   3539552   3542299   3545473   3549029  
  4940.000000   3552995   3557319   3562029   3567080   3572514  
  4930.000000   3578292   3584461   3590989   3597919   3605215  
  4920.000000   3612913   3620969   3629400   3638155   3647238  
  4910.000000   3656602   3666255   3676165   3686346   3696772  
  4900.000000   3707444   3718324   3729384   3740578   3751861  
  4890.000000   3763188   3774508   3785775   3796919   3807891  
  4880.000000   3818607   3829028   3839082   3848762   3858019  
  4870.000000   3866866   3875256   3883199   3890634   3897571  
  4860.000000   3903958   3909825   3915143   3919964   3924273  
  4850.000000   3928130   3931527   3934533   3937163   3939509  
  4840.000000   3941611   3943567   3945411   3947212   3948969  
  4830.000000   3950705   3952393   3954036   3955608   3957113  
  4820.000000   3958542   3959909   3961222   3962502   3963771  
  4810.000000   3965057   3966388   3967789   3969277   3970858  
  4800.000000   3972527   3974272   3976079   3977931   3979814  
  4790.000000   3981718   3983636   3985561   3987495   3989438  
  4780.000000   3991400   3993389   3995413   3997472   3999554  
  4770.000000   4001637   4003689   4005682   4007592   4009417  
  4760.000000   4011158   4012836   4014463   4016053   4017594  
  4750.000000   4019077   4020469   4021754   4022904   4023922  
  4740.000000   4024804   4025571   4026235   4026819   4027329  
  4730.000000   4027774   4028148   4028446   4028654   4028769  
  4720.000000   4028788   4028726   4028604   4028454   4028312  
  4710.000000   4028209   4028178   4028234   4028391   4028656  
  4700.000000   4029037   4029544   4030191   4030989   4031952  
  4690.000000   4033081   4034375   4035814   4037382   4039041  
  4680.000000   4040763   4042497   4044206   4045833   4047350  
  4670.000000   4048720   4049949   4051048   4052077   4053093  
  4660.000000   4054178   4055396   4056807   4058439   4060307  
  4650.000000   4062402   4064703   4067180   4069805   4072543  
  4640.000000   4075365   4078244   4081154   4084081   4087005  
  4630.000000   4089914   4092786   4095599   4098314   4100896  
  4620.000000   4103294   4105475   4107396   4109047   4110408  
  4610.000000   4111494   4112304   4112875   4113219   4113389  
  4600.000000   4113412   4113351   4113234   4113114   4112991  
  4590.000000   4112880   4112735   4112526   4112180   4111660  
  4580.000000   4110906   4109911   4108659   4107181   4105492  
  4570.000000   4103638   4101636   4099519   4097293   4094975  
  4560.000000   4092562   4090073   4087509   4084898   4082251  
  4550.000000   4079596   4076943   4074307   4071684   4069073  
  4540.000000   4066461   4063842   4061213   4058576   4055948  
  4530.000000   4053340   4050776   4048259   4045809   4043414  
  4520.000000   4041092   4038828   4036658   4034576   4032646  
  4510.000000   4030878   4029362   4028115   4027238   4026746  
  4500.000000   4026734   4027199   4028225   4029786   4031961  
  4490.000000   4034722   4038162   4042265   4047139   4052764  
  4480.000000   4059229   4066483   4074572   4083407   4093009  
  4470.000000   4103277   4114235   4125797   4137990   4150732  
  4460.000000   4164036   4177809   4192033   4206605   4221490  
  4450.000000   4236592   4251882   4267293   4282810   4298400  
  4440.000000   4314054   4329753   4345474   4361194   4376863  
  4430.000000   4392459   4407911   4423206   4438263   4453073  
  4420.000000   4467542   4481655   4495296   4508441   4520962  
  4410.000000   4532832   4543923   4554220   4563614   4572122  
  4400.000000   4579681   4586359   4592155   4597191   4601519  
  4390.000000   4605293   4608587   4611555   4614265   4616841  
  4380.000000   4619323   4621796   4624272   4626804   4629398  
  4370.000000   4632099   4634927   4637924   4641117   4644539  
  4360.000000   4648202   4652115   4656265   4660645   4665204  
  4350.000000   4669923   4674722   4679578   4684412   4689229  
  4340.000000   4693977   4698675   4703244   4707600   4711505  
  4330.000000   4714668   4716685   4717183   4715857   4712608  
  4320.000000   4707558   4701094   4693757   4686188   4678952  
  4310.000000   4672506   4667081   4662755   4659434   4656976  
  4300.000000   4655199   4653963   4653158   4652702   4652547  
  4290.000000   4652630   4652929   4653393   4654030   4654825  
  4280.000000   4655799   4656951   4658280   4659775   4661404  
  4270.000000   4663153   4664972   4666815   4668564   4670071  
  4260.000000   4671103   4671414   4670748   4668931   4665887  
  4250.000000   4661701   4656570   4650815   4644770   4638784  
  4240.000000   4633099   4627900   4623231   4619083   4615351  
  4230.000000   4611926   4608674   4605482   4602264   4598956  
  4220.000000   4595551   4592047   4588510   4584989   4581596  
  4210.000000   4578400   4575514   4572988   4570898   4569246  
  4200.000000   4568051   4567263   4566853   4566739   4566881  
  4190.000000   4567197   4567671   4568246   4568941   4569724  
  4180.000000   4570634   4571649   4572818   4574123   4575630  
  4170.000000   4577344   4579350   4581672   4584401   4587551  
  4160.000000   4591193   4595305   4599925   4605005   4610566  
  4150.000000   4616550   4622985   4629820   4637101   4644791  
  4140.000000   4652952   4661556   4670667   4680240   4690314  
  4130.000000   4700813   4711749   4723038   4734705   4746706  
  4120.000000   4759115   4771943   4785293   4799191   4813717  
  4110.000000   4828859   4844642   4861004   4877921   4895298  
  4100.000000   4913086   4931187   4949552   4968112   4986842  
  4090.000000   5005708   5024699   5043791   5062954   5082158  
  4080.000000   5101352   5120516   5139596   5158589   5177430  
  4070.000000   5196102   5214498   5232571   5250188   5267320  
  4060.000000   5283860   5299829   5315154   5329881   5343932  
  4050.000000   5357362   5370102   5382241   5393743   5404720  
  4040.000000   5415123   5425020   5434294   5442962   5450880  
  4030.000000   5458086   5464482   5470149   5475037   5479221  
  4020.000000   5482618   5485300   5487250   5488550   5489142  
  4010.000000   5489156   5488658   5487632   5485803   5483219  
  4000.000000   5480253  
##END= 
