##TITLE= Sample 027 By ssteindl date Montag, November 26 2018
##JCAMP-DX= 4.24
##DATA TYPE= INFRARED SPECTRUM
##ORIGIN= Exported PE Spectrum Data File
##OWNER= Sandra Steindl
##DATE= 18/11/26
##TIME= 11:46:04.00
##SPECTROMETER/DATA SYSTEM= PERKIN-ELMER Frontier FT-IR/NIR IR
##INSTRUMENT PARAMETERS=
  APODIZATION=stark
  DETECTOR=INGAAS
##RESOLUTION= 16.000000
##DELTAX= -2.000000
##XUNITS= 1/CM
##YUNITS= A
##XFACTOR= 1.00
##YFACTOR= 0.00000011920928955078
##FIRSTX= 10000.00
##LASTX= 4000.00
##NPOINTS= 3001
##FIRSTY= 0.263605
##MAXY= 0.659458
##MINY= 0.207269
##XYDATA= (X++(Y..Y))
 10000.000000   2211281   2205634   2200638   2197279   2195948  
  9990.000000   2196310   2197752   2199768   2202046   2204562  
  9980.000000   2207511   2211063   2215165   2219391   2223139  
  9970.000000   2225672   2226433   2225114   2221754   2216667  
  9960.000000   2210285   2203141   2195788   2188948   2183437  
  9950.000000   2180113   2179558   2181796   2186058   2190846  
  9940.000000   2194233   2194442   2190450   2182400   2171694  
  9930.000000   2160557   2151415   2146105   2145400   2148826  
  9920.000000   2154904   2161682   2167324   2170649   2171317  
  9910.000000   2169816   2167110   2164275   2162148   2161071  
  9900.000000   2160960   2161295   2161511   2161021   2159515  
  9890.000000   2156894   2153275   2148974   2144344   2139892  
  9880.000000   2136102   2133565   2132771   2134107   2137617  
  9870.000000   2142966   2149354   2155663   2160657   2163255  
  9860.000000   2162831   2159266   2153074   2145087   2136424  
  9850.000000   2128031   2120692   2114767   2110326   2107193  
  9840.000000   2105070   2103746   2103076   2103203   2104379  
  9830.000000   2107086   2111715   2118525   2127334   2137452  
  9820.000000   2147728   2156709   2163084   2165901   2164922  
  9810.000000   2160526   2153622   2145294   2136508   2127948  
  9800.000000   2119969   2112800   2106648   2101870   2098824  
  9790.000000   2097766   2098532   2100539   2102777   2104164  
  9780.000000   2103875   2101654   2097957   2093752   2090257  
  9770.000000   2088455   2088868   2091387   2095408   2100047  
  9760.000000   2104389   2107708   2109522   2109659   2108187  
  9750.000000   2105423   2101851   2098050   2094575   2091767  
  9740.000000   2089684   2088001   2086172   2083599   2079890  
  9730.000000   2075067   2069546   2064088   2059463   2056282  
  9720.000000   2054780   2054846   2056158   2058308   2060975  
  9710.000000   2063851   2066644   2068920   2070178   2069920  
  9700.000000   2067913   2064325   2059845   2055501   2052427  
  9690.000000   2051445   2052823   2056161   2060521   2064763  
  9680.000000   2067865   2069263   2068905   2067219   2064876  
  9670.000000   2062580   2060886   2060109   2060314   2061310  
  9660.000000   2062723   2064063   2064819   2064605   2063198  
  9650.000000   2060687   2057380   2053846   2050692   2048464  
  9640.000000   2047435   2047549   2048423   2049468   2050055  
  9630.000000   2049656   2047958   2044885   2040609   2035469  
  9620.000000   2029950   2024546   2019745   2015895   2013191  
  9610.000000   2011627   2011027   2011126   2011637   2012365  
  9600.000000   2013225   2014260   2015582   2017262   2019278  
  9590.000000   2021421   2023380   2024767   2025311   2024888  
  9580.000000   2023628   2021837   2019918   2018249   2017060  
  9570.000000   2016409   2016152   2016071   2015938   2015656  
  9560.000000   2015252   2014888   2014688   2014700   2014755  
  9550.000000   2014567   2013809   2012292   2010078   2007461  
  9540.000000   2004878   2002681   2001011   1999661   1998216  
  9530.000000   1996175   1993257   1989515   1985409   1981624  
  9520.000000   1978837   1977474   1977578   1978890   1981008  
  9510.000000   1983623   1986598   1989987   1993852   1998138  
  9500.000000   2002527   2006506   2009492   2011060   2011105  
  9490.000000   2009851   2007756   2005262   2002634   1999850  
  9480.000000   1996697   1992944   1988487   1983488   1978255  
  9470.000000   1973205   1968641   1964776   1961711   1959559  
  9460.000000   1958487   1958649   1960074   1962453   1965151  
  9450.000000   1967242   1967854   1966428   1963055   1958484  
  9440.000000   1953990   1950928   1950293   1952347   1956555  
  9430.000000   1961820   1966875   1970695   1972734   1972992  
  9420.000000   1971861   1969921   1967699   1965552   1963662  
  9410.000000   1962074   1960808   1959836   1959107   1958486  
  9400.000000   1957762   1956730   1955205   1953191   1950824  
  9390.000000   1948429   1946385   1945038   1944610   1945142  
  9380.000000   1946496   1948367   1950315   1951813   1952366  
  9370.000000   1951622   1949528   1946341   1942632   1939099  
  9360.000000   1936403   1934920   1934617   1935051   1935555  
  9350.000000   1935547   1934775   1933443   1932074   1931295  
  9340.000000   1931525   1932820   1934805   1936849   1938302  
  9330.000000   1938779   1938289   1937173   1935913   1934900  
  9320.000000   1934309   1934048   1933833   1933292   1932104  
  9310.000000   1930084   1927227   1923698   1919774   1915834  
  9300.000000   1912283   1909542   1907927   1907559   1908289  
  9290.000000   1909688   1911190   1912218   1912397   1911617  
  9280.000000   1910065   1908109   1906180   1904619   1903637  
  9270.000000   1903300   1903617   1904560   1906081   1908040  
  9260.000000   1910169   1912105   1913436   1913865   1913275  
  9250.000000   1911846   1909992   1908253   1907090   1906704  
  9240.000000   1907010   1907676   1908293   1908462   1907873  
  9230.000000   1906360   1903900   1900650   1896893   1893064  
  9220.000000   1889687   1887360   1886585   1887599   1890190  
  9210.000000   1893716   1897259   1899877   1900898   1900073  
  9200.000000   1897685   1894343   1890791   1887599   1885044  
  9190.000000   1883103   1881576   1880317   1879311   1878759  
  9180.000000   1878906   1879976   1881975   1884678   1887628  
  9170.000000   1890224   1891906   1892206   1890907   1887965  
  9160.000000   1883599   1878256   1872602   1867419   1863415  
  9150.000000   1861151   1860875   1862499   1865568   1869397  
  9140.000000   1873244   1876455   1878551   1879217   1878333  
  9130.000000   1875938   1872305   1867863   1863264   1859266  
  9120.000000   1856656   1855985   1857346   1860337   1864099  
  9110.000000   1867652   1870104   1871046   1870613   1869427  
  9100.000000   1868303   1867909   1868529   1869892   1871323  
  9090.000000   1871956   1871125   1868533   1864371   1859245  
  9080.000000   1854003   1849509   1846373   1844887   1844952  
  9070.000000   1846180   1847979   1849742   1851004   1851545  
  9060.000000   1851410   1850848   1850204   1849761   1849634  
  9050.000000   1849691   1849659   1849218   1848209   1846692  
  9040.000000   1844957   1843433   1842499   1842353   1842890  
  9030.000000   1843788   1844627   1845057   1844913   1844227  
  9020.000000   1843199   1842035   1840880   1839728   1838503  
  9010.000000   1837121   1835597   1834071   1832786   1832022  
  9000.000000   1831982   1832767   1834301   1836438   1838953  
  8990.000000   1841623   1844202   1846447   1848134   1849038  
  8980.000000   1849012   1847986   1846072   1843476   1840502  
  8970.000000   1837433   1834505   1831855   1829524   1827546  
  8960.000000   1825967   1824921   1824539   1824972   1826273  
  8950.000000   1828382   1831062   1833952   1836640   1838725  
  8940.000000   1839905   1840021   1839141   1837484   1835420  
  8930.000000   1833338   1831605   1830436   1829842   1829638  
  8920.000000   1829508   1829150   1828350   1827133   1825719  
  8910.000000   1824501   1823857   1824040   1825060   1826653  
  8900.000000   1828368   1829675   1830172   1829640   1828124  
  8890.000000   1825867   1823259   1820709   1818554   1817011  
  8880.000000   1816175   1816032   1816500   1817429   1818652  
  8870.000000   1819971   1821201   1822170   1822766   1822944  
  8860.000000   1822755   1822334   1821889   1821650   1821835  
  8850.000000   1822601   1824009   1826002   1828399   1830926  
  8840.000000   1833270   1835129   1836263   1836549   1836001  
  8830.000000   1834761   1833069   1831216   1829506   1828205  
  8820.000000   1827497   1827456   1828023   1829025   1830183  
  8810.000000   1831205   1831823   1831903   1831460   1830682  
  8800.000000   1829866   1829328   1829318   1829912   1831009  
  8790.000000   1832333   1833537   1834288   1834377   1833779  
  8780.000000   1832651   1831299   1830070   1829280   1829117  
  8770.000000   1829616   1830657   1831997   1833353   1834441  
  8760.000000   1835062   1835103   1834569   1833540   1832169  
  8750.000000   1830631   1829124   1827833   1826931   1826552  
  8740.000000   1826776   1827627   1829056   1830961   1833184  
  8730.000000   1835545   1837864   1839977   1841756   1843102  
  8720.000000   1843972   1844366   1844365   1844099   1843749  
  8710.000000   1843503   1843510   1843848   1844496   1845346  
  8700.000000   1846234   1847005   1847545   1847819   1847848  
  8690.000000   1847699   1847445   1847162   1846930   1846844  
  8680.000000   1847030   1847611   1848676   1850207   1852054  
  8670.000000   1853942   1855548   1856602   1856993   1856802  
  8660.000000   1856299   1855831   1855722   1856139   1857078  
  8650.000000   1858363   1859776   1861107   1862248   1863178  
  8640.000000   1863943   1864609   1865226   1865868   1866637  
  8630.000000   1867710   1869293   1871585   1874670   1878447  
  8620.000000   1882598   1886647   1890102   1892575   1893900  
  8610.000000   1894130   1893507   1892344   1890940   1889518  
  8600.000000   1888234   1887227   1886632   1886608   1887247  
  8590.000000   1888570   1890422   1892550   1894606   1896303  
  8580.000000   1897487   1898165   1898475   1898571   1898583  
  8570.000000   1898513   1898297   1897844   1897144   1896304  
  8560.000000   1895532   1895086   1895166   1895868   1897132  
  8550.000000   1898815   1900736   1902731   1904680   1906476  
  8540.000000   1908030   1909214   1909909   1910026   1909596  
  8530.000000   1908776   1907835   1907102   1906876   1907365  
  8520.000000   1908608   1910520   1912899   1915507   1918066  
  8510.000000   1920324   1922067   1923146   1923518   1923247  
  8500.000000   1922547   1921683   1920936   1920471   1920325  
  8490.000000   1920391   1920495   1920498   1920388   1920334  
  8480.000000   1920621   1921548   1923285   1925790   1928812  
  8470.000000   1931961   1934843   1937175   1938872   1940022  
  8460.000000   1940829   1941517   1942272   1943203   1944347  
  8450.000000   1945699   1947222   1948855   1950476   1951939  
  8440.000000   1953078   1953787   1954052   1953979   1953758  
  8430.000000   1953589   1953594   1953752   1953909   1953860  
  8420.000000   1953461   1952729   1951846   1951135   1950901  
  8410.000000   1951352   1952472   1954059   1955786   1957332  
  8400.000000   1958472   1959128   1959337   1959197   1958796  
  8390.000000   1958184   1957376   1956406   1955342   1954307  
  8380.000000   1953425   1952784   1952381   1952135   1951902  
  8370.000000   1951547   1950982   1950199   1949245   1948177  
  8360.000000   1947030   1945810   1944527   1943232   1942047  
  8350.000000   1941141   1940684   1940772   1941364   1942266  
  8340.000000   1943185   1943814   1943952   1943541   1942689  
  8330.000000   1941600   1940516   1939621   1939009   1938677  
  8320.000000   1938567   1938612   1938761   1938996   1939300  
  8310.000000   1939662   1940037   1940382   1940638   1940763  
  8300.000000   1940726   1940509   1940105   1939491   1938662  
  8290.000000   1937610   1936365   1934970   1933486   1931964  
  8280.000000   1930441   1928958   1927556   1926322   1925358  
  8270.000000   1924800   1924750   1925250   1926222   1927481  
  8260.000000   1928757   1929765   1930286   1930200   1929518  
  8250.000000   1928346   1926854   1925219   1923592   1922089  
  8240.000000   1920786   1919735   1918945   1918399   1918024  
  8230.000000   1917727   1917389   1916922   1916275   1915449  
  8220.000000   1914474   1913385   1912191   1910867   1909378  
  8210.000000   1907720   1905959   1904243   1902756   1901666  
  8200.000000   1901032   1900779   1900686   1900464   1899842  
  8190.000000   1898658   1896915   1894757   1892415   1890108  
  8180.000000   1887981   1886079   1884368   1882792   1881321  
  8170.000000   1879993   1878878   1878057   1877542   1877265  
  8160.000000   1877068   1876753   1876149   1875147   1873747  
  8150.000000   1872019   1870098   1868104   1866139   1864251  
  8140.000000   1862456   1860759   1859171   1857726   1856461  
  8130.000000   1855417   1854603   1854003   1853561   1853191  
  8120.000000   1852799   1852284   1851577   1850633   1849471  
  8110.000000   1848146   1846759   1845417   1844220   1843231  
  8100.000000   1842467   1841904   1841489   1841176   1840935  
  8090.000000   1840763   1840662   1840626   1840609   1840527  
  8080.000000   1840268   1839734   1838869   1837691   1836282  
  8070.000000   1834772   1833288   1831919   1830687   1829556  
  8060.000000   1828448   1827279   1825986   1824541   1822954  
  8050.000000   1821254   1819485   1817697   1815952   1814327  
  8040.000000   1812915   1811806   1811066   1810706   1810670  
  8030.000000   1810829   1811023   1811086   1810906   1810440  
  8020.000000   1809727   1808860   1807956   1807114   1806401  
  8010.000000   1805834   1805398   1805056   1804761   1804470  
  8000.000000   1804135   1803716   1803176   1802496   1801684  
  7990.000000   1800778   1799847   1798967   1798201   1797581  
  7980.000000   1797094   1796703   1796357   1796035   1795743  
  7970.000000   1795528   1795438   1795499   1795684   1795900  
  7960.000000   1796021   1795909   1795479   1794709   1793664  
  7950.000000   1792457   1791219   1790058   1789038   1788180  
  7940.000000   1787490   1786984   1786700   1786694   1787006  
  7930.000000   1787618   1788436   1789284   1789956   1790270  
  7920.000000   1790145   1789627   1788891   1788185   1787746  
  7910.000000   1787720   1788113   1788790   1789528   1790090  
  7900.000000   1790299   1790093   1789515   1788694   1787773  
  7890.000000   1786873   1786056   1785332   1784684   1784088  
  7880.000000   1783545   1783062   1782652   1782309   1782003  
  7870.000000   1781692   1781344   1780972   1780639   1780454  
  7860.000000   1780539   1780987   1781818   1782967   1784290  
  7850.000000   1785601   1786718   1787501   1787881   1787859  
  7840.000000   1787491   1786867   1786083   1785240   1784418  
  7830.000000   1783689   1783095   1782654   1782342   1782105  
  7820.000000   1781853   1781499   1780963   1780211   1779252  
  7810.000000   1778141   1776964   1775810   1774753   1773833  
  7800.000000   1773061   1772419   1771879   1771412   1771001  
  7790.000000   1770646   1770355   1770151   1770050   1770065  
  7780.000000   1770184   1770377   1770594   1770764   1770821  
  7770.000000   1770703   1770375   1769828   1769083   1768182  
  7760.000000   1767180   1766136   1765101   1764123   1763240  
  7750.000000   1762480   1761856   1761357   1760950   1760578  
  7740.000000   1760172   1759673   1759044   1758301   1757497  
  7730.000000   1756727   1756093   1755678   1755523   1755604  
  7720.000000   1755845   1756123   1756304   1756259   1755897  
  7710.000000   1755169   1754090   1752727   1751204   1749679  
  7700.000000   1748326   1747305   1746720   1746610   1746917  
  7690.000000   1747522   1748253   1748957   1749519   1749902  
  7680.000000   1750135   1750274   1750369   1750416   1750355  
  7670.000000   1750080   1749502   1748580   1747369   1746009  
  7660.000000   1744691   1743595   1742827   1742392   1742189  
  7650.000000   1742067   1741880   1741549   1741082   1740569  
  7640.000000   1740137   1739893   1739884   1740079   1740390  
  7630.000000   1740701   1740920   1740992   1740926   1740759  
  7620.000000   1740545   1740327   1740128   1739950   1739787  
  7610.000000   1739631   1739478   1739326   1739173   1739022  
  7600.000000   1738878   1738760   1738695   1738716   1738845  
  7590.000000   1739083   1739399   1739732   1740018   1740202  
  7580.000000   1740269   1740239   1740165   1740093   1740053  
  7570.000000   1740028   1739981   1739866   1739674   1739446  
  7560.000000   1739279   1739296   1739603   1740257   1741234  
  7550.000000   1742440   1743735   1744976   1746063   1746949  
  7540.000000   1747653   1748220   1748710   1749165   1749605  
  7530.000000   1750026   1750418   1750774   1751106   1751435  
  7520.000000   1751800   1752230   1752754   1753381   1754109  
  7510.000000   1754923   1755802   1756721   1757663   1758620  
  7500.000000   1759606   1760645   1761778   1763036   1764439  
  7490.000000   1765965   1767567   1769154   1770629   1771897  
  7480.000000   1772911   1773677   1774268   1774804   1775433  
  7470.000000   1776290   1777463   1778964   1780727   1782620  
  7460.000000   1784485   1786171   1787581   1788686   1789544  
  7450.000000   1790255   1790946   1791716   1792631   1793709  
  7440.000000   1794937   1796292   1797763   1799358   1801093  
  7430.000000   1802978   1804994   1807087   1809179   1811187  
  7420.000000   1813056   1814763   1816336   1817822   1819281  
  7410.000000   1820754   1822265   1823818   1825419   1827080  
  7400.000000   1828829   1830690   1832677   1834763   1836892  
  7390.000000   1838981   1840953   1842758   1844398   1845920  
  7380.000000   1847410   1848964   1850656   1852533   1854600  
  7370.000000   1856837   1859200   1861637   1864084   1866476  
  7360.000000   1868744   1870832   1872704   1874357   1875825  
  7350.000000   1877168   1878463   1879772   1881138   1882572  
  7340.000000   1884061   1885588   1887144   1888741   1890401  
  7330.000000   1892152   1894007   1895964   1897992   1900056  
  7320.000000   1902115   1904144   1906127   1908059   1909936  
  7310.000000   1911744   1913465   1915070   1916534   1917846  
  7300.000000   1919008   1920048   1921008   1921945   1922910  
  7290.000000   1923954   1925096   1926336   1927640   1928961  
  7280.000000   1930238   1931424   1932492   1933445   1934318  
  7270.000000   1935161   1936032   1936965   1937971   1939025  
  7260.000000   1940086   1941101   1942041   1942897   1943710  
  7250.000000   1944543   1945487   1946613   1947971   1949553  
  7240.000000   1951306   1953130   1954934   1956636   1958225  
  7230.000000   1959732   1961252   1962869   1964658   1966619  
  7220.000000   1968716   1970865   1973004   1975103   1977210  
  7210.000000   1979416   1981842   1984569   1987617   1990913  
  7200.000000   1994331   1997724   2000995   2004109   2007121  
  7190.000000   2010115   2013191   2016390   2019709   2023070  
  7180.000000   2026394   2029606   2032698   2035698   2038687  
  7170.000000   2041734   2044901   2048203   2051637   2055175  
  7160.000000   2058804   2062508   2066295   2070160   2074110  
  7150.000000   2078136   2082249   2086455   2090788   2095263  
  7140.000000   2099896   2104646   2109464   2114260   2118986  
  7130.000000   2123613   2128196   2132821   2137623   2142699  
  7120.000000   2148122   2153877   2159916   2166136   2172462  
  7110.000000   2178822   2185201   2191587   2197992   2204405  
  7100.000000   2210823   2217224   2223612   2229986   2236375  
  7090.000000   2242795   2249268   2255788   2262352   2268943  
  7080.000000   2275556   2282183   2288825   2295470   2302104  
  7070.000000   2308707   2315271   2321806   2328351   2334951  
  7060.000000   2341647   2348443   2355307   2362168   2368950  
  7050.000000   2375598   2382107   2388522   2394919   2401370  
  7040.000000   2407912   2414532   2421173   2427767   2434262  
  7030.000000   2440650   2446955   2453229   2459513   2465825  
  7020.000000   2472144   2478430   2484632   2490719   2496666  
  7010.000000   2502472   2508130   2513640   2518998   2524220  
  7000.000000   2529331   2534393   2539459   2544588   2549791  
  6990.000000   2555062   2560345   2565595   2570762   2575837  
  6980.000000   2580815   2585707   2590492   2595133   2599564  
  6970.000000   2603731   2607597   2611187   2614562   2617831  
  6960.000000   2621088   2624424   2627869   2631428   2635052  
  6950.000000   2638686   2642242   2645649   2648819   2651699  
  6940.000000   2654249   2656491   2658482   2660337   2662172  
  6930.000000   2664099   2666176   2668415   2670760   2673144  
  6920.000000   2675485   2677740   2679888   2681943   2683923  
  6910.000000   2685847   2687713   2689511   2691224   2692842  
  6900.000000   2694358   2695782   2697125   2698415   2699682  
  6890.000000   2700973   2702335   2703811   2705417   2707131  
  6880.000000   2708891   2710609   2712195   2713592   2714790  
  6870.000000   2715833   2716801   2717782   2718839   2719999  
  6860.000000   2721256   2722586   2723961   2725366   2726783  
  6850.000000   2728195   2729566   2730851   2732004   2733006  
  6840.000000   2733870   2734651   2735420   2736237   2737123  
  6830.000000   2738054   2738967   2739797   2740493   2741055  
  6820.000000   2741514   2741930   2742352   2742813   2743312  
  6810.000000   2743838   2744375   2744924   2745485   2746067  
  6800.000000   2746652   2747207   2747681   2748030   2748233  
  6790.000000   2748308   2748300   2748265   2748243   2748244  
  6780.000000   2748247   2748218   2748134   2747998   2747842  
  6770.000000   2747717   2747665   2747706   2747828   2748000  
  6760.000000   2748184   2748359   2748523   2748692   2748888  
  6750.000000   2749126   2749406   2749722   2750059   2750410  
  6740.000000   2750768   2751124   2751460   2751746   2751944  
  6730.000000   2752025   2751976   2751816   2751589   2751356  
  6720.000000   2751175   2751089   2751113   2751240   2751434  
  6710.000000   2751650   2751825   2751899   2751815   2751535  
  6700.000000   2751052   2750398   2749643   2748879   2748188  
  6690.000000   2747626   2747197   2746868   2746574   2746264  
  6680.000000   2745906   2745509   2745099   2744707   2744334  
  6670.000000   2743955   2743514   2742958   2742255   2741412  
  6660.000000   2740464   2739465   2738452   2737444   2736428  
  6650.000000   2735388   2734308   2733201   2732091   2731013  
  6640.000000   2729977   2728976   2727968   2726913   2725773  
  6630.000000   2724546   2723254   2721940   2720636   2719364  
  6620.000000   2718111   2716858   2715578   2714265   2712925  
  6610.000000   2711582   2710252   2708937   2707616   2706255  
  6600.000000   2704815   2703273   2701620   2699870   2698044  
  6590.000000   2696173   2694283   2692408   2690576   2688822  
  6580.000000   2687168   2685625   2684176   2682788   2681416  
  6570.000000   2680022   2678586   2677115   2675638   2674184  
  6560.000000   2672770   2671389   2670011   2668596   2667113  
  6550.000000   2665552   2663934   2662295   2660681   2659132  
  6540.000000   2657672   2656307   2655034   2653842   2652713  
  6530.000000   2651625   2650552   2649467   2648347   2647185  
  6520.000000   2645989   2644787   2643608   2642475   2641390  
  6510.000000   2640333   2639271   2638173   2637026   2635838  
  6500.000000   2634636   2633454   2632310   2631199   2630097  
  6490.000000   2628967   2627776   2626514   2625191   2623837  
  6480.000000   2622489   2621178   2619921   2618728   2617594  
  6470.000000   2616519   2615497   2614524   2613593   2612688  
  6460.000000   2611789   2610876   2609933   2608947   2607917  
  6450.000000   2606843   2605734   2604600   2603464   2602352  
  6440.000000   2601304   2600353   2599524   2598815   2598202  
  6430.000000   2597633   2597058   2596431   2595740   2594994  
  6420.000000   2594232   2593491   2592807   2592194   2591658  
  6410.000000   2591191   2590797   2590479   2590249   2590106  
  6400.000000   2590041   2590025   2590024   2590004   2589948  
  6390.000000   2589854   2589737   2589613   2589497   2589391  
  6380.000000   2589290   2589187   2589082   2588980   2588889  
  6370.000000   2588809   2588727   2588622   2588467   2588252  
  6360.000000   2587983   2587694   2587424   2587211   2587066  
  6350.000000   2586972   2586884   2586755   2586542   2586228  
  6340.000000   2585815   2585323   2584772   2584178   2583543  
  6330.000000   2582870   2582159   2581424   2580680   2579948  
  6320.000000   2579235   2578545   2577862   2577174   2576467  
  6310.000000   2575742   2575000   2574250   2573489   2572711  
  6300.000000   2571897   2571034   2570110   2569125   2568081  
  6290.000000   2566981   2565820   2564595   2563298   2561938  
  6280.000000   2560531   2559115   2557716   2556363   2555052  
  6270.000000   2553766   2552472   2551145   2549771   2548357  
  6260.000000   2546920   2545476   2544019   2542528   2540963  
  6250.000000   2539290   2537494   2535595   2533640   2531691  
  6240.000000   2529804   2528018   2526335   2524742   2523204  
  6230.000000   2521691   2520177   2518647   2517094   2515516  
  6220.000000   2513914   2512289   2510651   2509005   2507366  
  6210.000000   2505736   2504121   2502513   2500912   2499319  
  6200.000000   2497748   2496217   2494747   2493351   2492027  
  6190.000000   2490758   2489522   2488295   2487066   2485835  
  6180.000000   2484614   2483412   2482232   2481063   2479891  
  6170.000000   2478697   2477474   2476223   2474961   2473705  
  6160.000000   2472474   2471280   2470127   2469018   2467952  
  6150.000000   2466924   2465928   2464948   2463962   2462944  
  6140.000000   2461877   2460754   2459592   2458416   2457261  
  6130.000000   2456152   2455102   2454105   2453152   2452229  
  6120.000000   2451337   2450482   2449677   2448924   2448220  
  6110.000000   2447549   2446897   2446254   2445635   2445061  
  6100.000000   2444570   2444182   2443906   2443719   2443591  
  6090.000000   2443481   2443369   2443247   2443137   2443056  
  6080.000000   2443034   2443078   2443193   2443364   2443592  
  6070.000000   2443865   2444192   2444570   2445006   2445490  
  6060.000000   2446027   2446611   2447259   2447981   2448802  
  6050.000000   2449727   2450759   2451875   2453058   2454281  
  6040.000000   2455544   2456850   2458231   2459701   2461282  
  6030.000000   2462962   2464728   2466548   2468407   2470289  
  6020.000000   2472205   2474161   2476174   2478244   2480372  
  6010.000000   2482544   2484759   2487010   2489305   2491643  
  6000.000000   2494029   2496448   2498891   2501339   2503791  
  5990.000000   2506240   2508705   2511191   2513713   2516267  
  5980.000000   2518858   2521479   2524146   2526874   2529697  
  5970.000000   2532639   2535720   2538931   2542259   2545665  
  5960.000000   2549124   2552606   2556108   2559621   2563156  
  5950.000000   2566708   2570284   2573882   2577517   2581204  
  5940.000000   2584972   2588843   2592834   2596941   2601143  
  5930.000000   2605405   2609682   2613936   2618127   2622225  
  5920.000000   2626198   2630012   2633634   2637035   2640202  
  5910.000000   2643142   2645880   2648463   2650942   2653378  
  5900.000000   2655816   2658306   2660876   2663557   2666354  
  5890.000000   2669270   2672274   2675332   2678385   2681387  
  5880.000000   2684287   2687058   2689682   2692157   2694485  
  5870.000000   2696675   2698738   2700695   2702575   2704412  
  5860.000000   2706243   2708094   2709977   2711887   2713816  
  5850.000000   2715755   2717712   2719708   2721779   2723954  
  5840.000000   2726253   2728669   2731180   2733749   2736347  
  5830.000000   2738948   2741550   2744150   2746755   2749360  
  5820.000000   2751960   2754547   2757121   2759689   2762266  
  5810.000000   2764868   2767495   2770143   2772784   2775406  
  5800.000000   2777981   2780525   2783036   2785547   2788040  
  5790.000000   2790512   2792889   2795109   2797056   2798642  
  5780.000000   2799750   2800313   2800253   2799557   2798227  
  5770.000000   2796340   2793998   2791366   2788592   2785839  
  5760.000000   2783199   2780743   2778466   2776362   2774390  
  5750.000000   2772542   2770803   2769180   2767667   2766253  
  5740.000000   2764915   2763622   2762361   2761122   2759920  
  5730.000000   2758763   2757671   2756635   2755650   2754691  
  5720.000000   2753751   2752821   2751914   2751038   2750211  
  5710.000000   2749432   2748703   2748015   2747371   2746771  
  5700.000000   2746222   2745724   2745263   2744818   2744360  
  5690.000000   2743875   2743359   2742841   2742350   2741923  
  5680.000000   2741560   2741244   2740913   2740499   2739923  
  5670.000000   2739131   2738081   2736763   2735171   2733321  
  5660.000000   2731231   2728944   2726510   2724006   2721504  
  5650.000000   2719073   2716748   2714541   2712431   2710390  
  5640.000000   2708391   2706432   2704522   2702683   2700936  
  5630.000000   2699280   2697708   2696196   2694731   2693301  
  5620.000000   2691919   2690590   2689331   2688134   2686992  
  5610.000000   2685883   2684798   2683734   2682703   2681721  
  5600.000000   2680802   2679943   2679132   2678346   2677562  
  5590.000000   2676767   2675957   2675137   2674312   2673483  
  5580.000000   2672647   2671800   2670936   2670062   2669182  
  5570.000000   2668303   2667421   2666526   2665601   2664631  
  5560.000000   2663606   2662534   2661426   2660299   2659160  
  5550.000000   2658012   2656848   2655667   2654473   2653284  
  5540.000000   2652123   2651010   2649950   2648935   2647940  
  5530.000000   2646942   2645923   2644883   2643834   2642789  
  5520.000000   2641758   2640737   2639712   2638666   2637586  
  5510.000000   2636474   2635336   2634189   2633039   2631890  
  5500.000000   2630736   2629579   2628419   2627273   2626148  
  5490.000000   2625047   2623946   2622810   2621588   2620248  
  5480.000000   2618775   2617190   2615535   2613865   2612217  
  5470.000000   2610610   2609031   2607456   2605856   2604219  
  5460.000000   2602540   2600829   2599089   2597322   2595515  
  5450.000000   2593662   2591760   2589823   2587877   2585951  
  5440.000000   2584067   2582233   2580450   2578712   2577022  
  5430.000000   2575380   2573796   2572258   2570754   2569249  
  5420.000000   2567727   2566178   2564640   2563166   2561839  
  5410.000000   2560704   2559787   2559047   2558434   2557875  
  5400.000000   2557345   2556834   2556390   2556054   2555880  
  5390.000000   2555874   2556040   2556340   2556772   2557325  
  5380.000000   2558036   2558920   2560007   2561265   2562674  
  5370.000000   2564160   2565698   2567248   2568842   2570490  
  5360.000000   2572265   2574179   2576296   2578613   2581193  
  5350.000000   2584038   2587233   2590788   2594781   2599191  
  5340.000000   2604062   2609338   2615054   2621156   2627696  
  5330.000000   2634623   2641988   2649727   2657886   2666412  
  5320.000000   2675392   2684816   2694822   2705418   2716739  
  5310.000000   2728750   2741529   2754989   2769179   2784013  
  5300.000000   2799572   2815819   2832885   2850772   2869619  
  5290.000000   2889401   2910185   2931847   2954338   2977463  
  5280.000000   3001158   3025305   3049971   3075192   3101139  
  5270.000000   3127868   3155430   3183688   3212451   3241442  
  5260.000000   3270445   3299334   3328113   3356876   3385713  
  5250.000000   3414671   3443636   3472435   3500766   3528434  
  5240.000000   3555243   3581226   3606401   3630962   3654962  
  5230.000000   3678525   3701558   3724030   3745731   3766602  
  5220.000000   3786491   3805470   3823529   3840864   3857529  
  5210.000000   3873709   3889373   3904570   3919131   3933013  
  5200.000000   3946034   3958230   3969542   3980125   3989998  
  5190.000000   3999312   4008031   4016217   4023762   4030695  
  5180.000000   4036929   4042541   4047496   4051894   4055691  
  5170.000000   4058952   4061613   4063728   4065255   4066282  
  5160.000000   4066792   4066873   4066491   4065699   4064450  
  5150.000000   4062799   4060730   4058331   4055609   4052636  
  5140.000000   4049386   4045882   4042072   4037976   4033580  
  5130.000000   4028948   4024109   4019138   4014053   4008890  
  5120.000000   4003637   3998309   3992900   3987442   3981944  
  5110.000000   3976438   3970921   3965394   3959837   3954244  
  5100.000000   3948611   3942962   3937320   3931720   3926182  
  5090.000000   3920719   3915328   3910006   3904745   3899545  
  5080.000000   3894401   3889312   3884257   3879219   3874165  
  5070.000000   3869074   3863924   3858711   3853427   3848076  
  5060.000000   3842646   3837133   3831515   3825784   3819925  
  5050.000000   3813942   3807829   3801597   3795240   3788770  
  5040.000000   3782187   3775514   3768772   3761998   3755222  
  5030.000000   3748474   3741764   3735093   3728446   3721810  
  5020.000000   3715174   3708537   3701913   3695317   3688777  
  5010.000000   3682306   3675929   3669646   3663477   3657417  
  5000.000000   3651491   3645697   3640070   3634617   3629383  
  4990.000000   3624374   3619636   3615159   3610969   3607032  
  4980.000000   3603358   3599900   3596682   3593682   3590960  
  4970.000000   3588526   3586460   3584762   3583487   3582596  
  4960.000000   3582105   3581949   3582146   3582646   3583495  
  4950.000000   3584670   3586230   3588152   3590484   3593190  
  4940.000000   3596311   3599809   3603734   3608049   3612800  
  4930.000000   3617938   3623489   3629395   3635676   3642289  
  4920.000000   3649270   3656594   3664302   3672364   3680796  
  4910.000000   3689547   3698612   3707938   3717524   3727341  
  4900.000000   3737398   3747680   3758185   3768884   3779736  
  4890.000000   3790684   3801646   3812546   3823281   3833786  
  4880.000000   3843979   3853837   3863315   3872432   3881156  
  4870.000000   3889504   3897413   3904869   3911783   3918138  
  4860.000000   3923868   3929005   3933537   3937546   3941053  
  4850.000000   3944153   3946865   3949273   3951388   3953285  
  4840.000000   3954976   3956531   3957959   3959313   3960591  
  4830.000000   3961825   3963006   3964153   3965258   3966336  
  4820.000000   3967388   3968433   3969482   3970558   3971681  
  4810.000000   3972871   3974142   3975495   3976926   3978418  
  4800.000000   3979961   3981543   3983173   3984859   3986626  
  4790.000000   3988487   3990460   3992538   3994715   3996970  
  4780.000000   3999286   4001645   4004036   4006451   4008881  
  4770.000000   4011317   4013750   4016171   4018571   4020946  
  4760.000000   4023289   4025592   4027836   4030007   4032078  
  4750.000000   4034033   4035856   4037551   4039121   4040583  
  4740.000000   4041948   4043232   4044437   4045573   4046639  
  4730.000000   4047643   4048590   4049489   4050349   4051176  
  4720.000000   4051980   4052767   4053550   4054336   4055147  
  4710.000000   4055993   4056898   4057877   4058952   4060140  
  4700.000000   4061464   4062937   4064575   4066379   4068351  
  4690.000000   4070476   4072743   4075128   4077613   4080165  
  4680.000000   4082755   4085334   4087866   4090298   4092609  
  4670.000000   4094774   4096810   4098738   4100610   4102470  
  4660.000000   4104376   4106369   4108498   4110797   4113306  
  4650.000000   4116052   4119057   4122322   4125831   4129545  
  4640.000000   4133413   4137381   4141393   4145412   4149399  
  4630.000000   4153329   4157167   4160881   4164423   4167754  
  4620.000000   4170826   4173614   4176086   4178243   4180071  
  4610.000000   4181595   4182818   4183790   4184537   4185129  
  4600.000000   4185599   4186016   4186388   4186750   4187071  
  4590.000000   4187349   4187528   4187585   4187458   4187125  
  4580.000000   4186533   4185673   4184519   4183095   4181414  
  4570.000000   4179536   4177498   4175365   4173159   4170914  
  4560.000000   4168621   4166285   4163884   4161426   4158902  
  4550.000000   4156328   4153704   4151043   4148343   4145611  
  4540.000000   4142852   4140084   4137327   4134604   4131939  
  4530.000000   4129334   4126797   4124307   4121862   4119440  
  4520.000000   4117059   4114713   4112449   4110269   4108236  
  4510.000000   4106356   4104706   4103300   4102238   4101538  
  4500.000000   4101306   4101545   4102342   4103675   4105621  
  4490.000000   4108153   4111370   4115260   4119936   4125381  
  4480.000000   4131681   4138777   4146713   4155397   4164852  
  4470.000000   4174987   4185829   4197294   4209404   4222065  
  4460.000000   4235278   4248938   4263030   4277455   4292192  
  4450.000000   4307154   4322321   4337620   4353029   4368502  
  4440.000000   4384021   4399566   4415121   4430678   4446202  
  4430.000000   4461682   4477060   4492322   4507389   4522244  
  4420.000000   4536793   4551012   4564788   4578091   4590798  
  4410.000000   4602880   4614223   4624814   4634564   4643490  
  4400.000000   4651543   4658789   4665237   4671011   4676178  
  4390.000000   4680903   4685279   4689466   4693531   4697575  
  4380.000000   4701603   4705648   4709678   4713704   4717717  
  4370.000000   4721766   4725895   4730181   4734679   4739434  
  4360.000000   4744450   4749708   4755147   4760721   4766343  
  4350.000000   4771991   4777586   4783156   4788649   4794135  
  4340.000000   4799588   4805063   4810467   4815697   4820440  
  4330.000000   4824316   4826785   4827351   4825581   4821316  
  4320.000000   4814676   4806141   4796413   4786345   4776709  
  4310.000000   4768137   4760956   4755271   4750937   4747728  
  4300.000000   4745369   4743650   4742428   4741617   4741192  
  4290.000000   4741103   4741342   4741838   4742582   4743516  
  4280.000000   4744647   4745951   4747432   4749080   4750879  
  4270.000000   4752827   4754887   4757028   4759134   4761050  
  4260.000000   4762509   4763214   4762834   4761121   4757937  
  4250.000000   4753342   4747551   4740947   4733952   4727008  
  4240.000000   4720436   4714473   4709177   4704532   4700411  
  4230.000000   4696683   4693194   4689822   4686471   4683070  
  4220.000000   4679601   4676054   4672496   4668978   4665628  
  4210.000000   4662520   4659775   4657429   4655531   4654052  
  4200.000000   4652977   4652243   4651824   4651660   4651746  
  4190.000000   4652032   4652522   4653163   4653951   4654827  
  4180.000000   4655792   4656793   4657859   4658966   4660183  
  4170.000000   4661525   4663093   4664927   4667131   4669732  
  4160.000000   4672808   4676345   4680382   4684873   4689838  
  4150.000000   4695227   4701071   4707331   4714056   4721213  
  4140.000000   4728856   4736939   4745503   4754480   4763894  
  4130.000000   4773667   4783824   4794304   4805164   4816387  
  4120.000000   4828065   4840212   4852925   4866212   4880140  
  4110.000000   4894689   4909890   4925693   4942091   4959001  
  4100.000000   4976371   4994088   5012075   5030227   5048494  
  4090.000000   5066828   5085220   5103668   5122171   5140729  
  4080.000000   5159307   5177891   5196419   5214871   5233165  
  4070.000000   5251270   5269071   5286519   5303477   5319914  
  4060.000000   5335721   5350922   5365457   5379393   5392687  
  4050.000000   5405423   5417558   5429189   5440270   5450889  
  4040.000000   5460971   5470561   5479537   5487915   5495570  
  4030.000000   5502545   5508750   5514255   5518995   5523024  
  4020.000000   5526247   5528729   5530460   5531538   5531930  
  4010.000000   5531783   5531171   5530093   5528289   5525798  
  4000.000000   5522956  
##END= 
