##TITLE= Sample 010 By ssteindl date Montag, November 26 2018
##JCAMP-DX= 4.24
##DATA TYPE= INFRARED SPECTRUM
##ORIGIN= Exported PE Spectrum Data File
##OWNER= Sandra Steindl
##DATE= 18/11/26
##TIME= 11:30:29.00
##SPECTROMETER/DATA SYSTEM= PERKIN-ELMER Frontier FT-IR/NIR IR
##INSTRUMENT PARAMETERS=
  APODIZATION=stark
  DETECTOR=INGAAS
##RESOLUTION= 16.000000
##DELTAX= -2.000000
##XUNITS= 1/CM
##YUNITS= A
##XFACTOR= 1.00
##YFACTOR= 0.00000011920928955078
##FIRSTX= 10000.00
##LASTX= 4000.00
##NPOINTS= 3001
##FIRSTY= 0.275049
##MAXY= 0.655704
##MINY= 0.209023
##XYDATA= (X++(Y..Y))
 10000.000000   2307280   2300114   2292051   2282697   2273720  
  9990.000000   2267446   2264951   2265895   2269604   2275248  
  9980.000000   2281586   2287153   2290947   2292529   2292008  
  9970.000000   2289865   2286941   2284032   2281705   2280113  
  9960.000000   2279121   2278385   2277591   2276558   2275224  
  9950.000000   2273650   2271841   2269822   2267573   2265183  
  9940.000000   2262818   2260727   2259121   2258023   2257255  
  9930.000000   2256398   2255032   2252826   2249775   2246125  
  9920.000000   2242342   2238870   2236012   2233867   2232400  
  9910.000000   2231621   2231658   2232808   2235361   2239423  
  9900.000000   2244751   2250707   2256432   2261029   2263872  
  9890.000000   2264673   2263535   2260809   2256958   2252500  
  9880.000000   2247933   2243844   2240784   2239290   2239611  
  9870.000000   2241632   2244742   2247958   2250150   2250343  
  9860.000000   2247996   2243074   2236059   2227704   2218931  
  9850.000000   2210617   2203606   2198657   2196359   2197065  
  9840.000000   2200601   2206311   2213013   2219411   2224406  
  9830.000000   2227498   2228845   2229086   2228960   2228808  
  9820.000000   2228459   2227160   2224157   2218961   2211892  
  9810.000000   2203884   2196259   2190104   2185832   2183122  
  9800.000000   2181120   2179125   2176955   2175308   2175396  
  9790.000000   2178516   2185285   2195331   2207222   2218946  
  9780.000000   2228538   2234634   2236808   2235418   2231354  
  9770.000000   2225557   2218809   2211630   2204403   2197497  
  9760.000000   2191285   2186081   2181932   2178609   2175572  
  9750.000000   2172318   2168519   2164313   2160202   2156864  
  9740.000000   2154875   2154366   2155071   2156333   2157524  
  9730.000000   2158181   2158243   2157906   2157534   2157421  
  9720.000000   2157761   2158641   2160131   2162341   2165357  
  9710.000000   2169144   2173413   2177624   2181103   2183281  
  9700.000000   2183900   2183120   2181404   2179297   2177142  
  9690.000000   2174945   2172432   2169290   2165425   2161151  
  9680.000000   2157062   2153837   2151841   2151005   2150782  
  9670.000000   2150473   2149501   2147718   2145417   2143164  
  9660.000000   2141498   2140624   2140375   2140247   2139757  
  9650.000000   2138593   2136810   2134667   2132476   2130389  
  9640.000000   2128350   2126245   2124074   2122154   2121055  
  9630.000000   2121422   2123622   2127495   2132286   2136850  
  9620.000000   2140014   2140980   2139550   2136129   2131518  
  9610.000000   2126583   2122031   2118242   2115352   2113286  
  9600.000000   2111900   2110941   2110073   2108853   2106831  
  9590.000000   2103723   2099604   2095028   2090956   2088483  
  9580.000000   2088457   2091131   2096027   2102105   2108096  
  9570.000000   2112982   2116234   2117956   2118663   2119029  
  9560.000000   2119572   2120452   2121484   2122184   2122038  
  9550.000000   2120572   2117536   2112878   2106774   2099641  
  9540.000000   2092072   2084879   2078863   2074758   2072936  
  9530.000000   2073386   2075670   2079106   2082960   2086632  
  9520.000000   2089728   2091992   2093248   2093277   2091953  
  9510.000000   2089247   2085503   2081338   2077653   2075284  
  9500.000000   2074734   2075967   2078336   2080905   2082706  
  9490.000000   2083263   2082660   2081593   2080937   2081399  
  9480.000000   2083147   2085732   2088277   2089764   2089438  
  9470.000000   2086970   2082546   2076698   2070095   2063379  
  9460.000000   2057053   2051545   2047187   2044279   2042961  
  9450.000000   2043185   2044575   2046544   2048342   2049348  
  9440.000000   2049218   2048008   2046139   2044129   2042435  
  9430.000000   2041163   2040132   2038892   2036989   2034109  
  9420.000000   2030271   2025832   2021420   2017751   2015380  
  9410.000000   2014580   2015220   2016877   2018925   2020730  
  9400.000000   2021836   2022058   2021566   2020742   2020043  
  9390.000000   2019748   2019844   2020023   2019827   2018873  
  9380.000000   2017030   2014537   2011941   2009956   2009156  
  9370.000000   2009752   2011436   2013468   2014943   2015051  
  9360.000000   2013388   2009992   2005368   2000257   1995441  
  9350.000000   1991537   1988883   1987590   1987588   1988774  
  9340.000000   1990991   1994093   1997819   2001844   2005711  
  9330.000000   2008948   2011128   2011952   2011353   2009414  
  9320.000000   2006406   2002600   1998269   1993583   1988684  
  9310.000000   1983710   1978872   1974468   1970841   1968329  
  9300.000000   1967134   1967272   1968477   1970313   1972256  
  9290.000000   1973900   1975069   1975852   1976566   1977582  
  9280.000000   1979205   1981454   1984075   1986542   1988313  
  9270.000000   1988949   1988298   1986498   1983922   1981071  
  9260.000000   1978408   1976306   1974959   1974461   1974770  
  9250.000000   1975798   1977325   1979066   1980626   1981627  
  9240.000000   1981777   1980977   1979368   1977265   1975057  
  9230.000000   1973001   1971150   1969320   1967237   1964697  
  9220.000000   1961702   1958545   1955717   1953757   1953012  
  9210.000000   1953523   1954980   1956853   1958553   1959613  
  9200.000000   1959807   1959166   1957912   1956341   1954725  
  9190.000000   1953272   1952128   1951375   1951024   1950986  
  9180.000000   1951077   1951024   1950536   1949369   1947438  
  9170.000000   1944853   1941925   1939041   1936561   1934683  
  9160.000000   1933428   1932676   1932247   1932024   1931983  
  9150.000000   1932227   1932883   1934043   1935684   1937645  
  9140.000000   1939681   1941489   1942808   1943407   1943136  
  9130.000000   1941937   1939861   1937098   1933958   1930888  
  9120.000000   1928384   1926889   1926609   1927460   1929026  
  9110.000000   1930672   1931677   1931458   1929750   1926669  
  9100.000000   1922705   1918524   1914825   1912084   1910491  
  9090.000000   1909890   1909914   1910108   1910119   1909818  
  9080.000000   1909322   1908958   1909065   1909918   1911554  
  9070.000000   1913818   1916376   1918853   1920961   1922552  
  9060.000000   1923651   1924303   1924527   1924188   1923070  
  9050.000000   1920888   1917467   1912882   1907528   1902078  
  9040.000000   1897254   1893764   1892063   1892336   1894378  
  9030.000000   1897753   1901880   1906110   1909787   1912282  
  9020.000000   1913138   1912062   1909067   1904472   1899004  
  9010.000000   1893582   1889157   1886442   1885761   1886980  
  9000.000000   1889529   1892661   1895641   1898003   1899560  
  8990.000000   1900416   1900812   1900979   1901051   1901001  
  8980.000000   1900762   1900235   1899416   1898350   1897147  
  8970.000000   1895909   1894692   1893521   1892379   1891313  
  8960.000000   1890408   1889821   1889684   1890088   1890995  
  8950.000000   1892252   1893588   1894720   1895431   1895615  
  8940.000000   1895295   1894564   1893575   1892421   1891132  
  8930.000000   1889647   1887893   1885821   1883473   1881023  
  8920.000000   1878745   1876979   1875983   1875912   1876725  
  8910.000000   1878229   1880090   1881955   1883534   1884646  
  8900.000000   1885219   1885253   1884796   1883880   1882563  
  8890.000000   1880903   1879051   1877184   1875515   1874184  
  8880.000000   1873245   1872614   1872112   1871560   1870860  
  8870.000000   1870087   1869440   1869209   1869638   1870838  
  8860.000000   1872749   1875150   1877772   1880334   1882630  
  8850.000000   1884476   1885727   1886224   1885853   1884598  
  8840.000000   1882629   1880348   1878323   1877171   1877310  
  8830.000000   1878853   1881488   1884614   1887494   1889525  
  8820.000000   1890412   1890216   1889266   1887949   1886558  
  8810.000000   1885166   1883700   1882029   1880140   1878205  
  8800.000000   1876576   1875670   1875791   1877026   1879180  
  8790.000000   1881867   1884630   1887068   1888933   1890121  
  8780.000000   1890667   1890669   1890271   1889642   1888984  
  8770.000000   1888534   1888519   1889107   1890329   1892059  
  8760.000000   1894005   1895816   1897139   1897741   1897521  
  8750.000000   1896526   1894900   1892844   1890581   1888327  
  8740.000000   1886305   1884703   1883662   1883219   1883275  
  8730.000000   1883615   1883954   1884065   1883837   1883348  
  8720.000000   1882836   1882597   1882897   1883827   1885302  
  8710.000000   1887035   1888672   1889854   1890354   1890107  
  8700.000000   1889237   1888026   1886858   1886151   1886262  
  8690.000000   1887402   1889547   1892418   1895509   1898217  
  8680.000000   1900003   1900548   1899868   1898306   1896442  
  8670.000000   1894861   1893983   1893892   1894390   1895073  
  8660.000000   1895551   1895586   1895199   1894653   1894319  
  8650.000000   1894564   1895580   1897393   1899862   1902779  
  8640.000000   1905947   1909192   1912396   1915390   1917975  
  8630.000000   1919892   1920935   1920985   1920108   1918551  
  8620.000000   1916721   1915090   1914066   1913938   1914790  
  8610.000000   1916572   1919055   1921972   1924988   1927815  
  8600.000000   1930186   1931929   1932968   1933340   1933190  
  8590.000000   1932691   1932023   1931269   1930441   1929458  
  8580.000000   1928235   1926746   1925079   1923457   1922167  
  8570.000000   1921500   1921630   1922572   1924164   1926127  
  8560.000000   1928154   1929988   1931501   1932673   1933597  
  8550.000000   1934383   1935142   1935924   1936751   1937597  
  8540.000000   1938451   1939299   1940153   1941029   1941933  
  8530.000000   1942868   1943829   1944827   1945890   1947056  
  8520.000000   1948363   1949811   1951336   1952816   1954087  
  8510.000000   1955012   1955519   1955671   1955650   1955738  
  8500.000000   1956206   1957247   1958879   1960941   1963110  
  8490.000000   1965005   1966301   1966808   1966523   1965607  
  8480.000000   1964334   1962991   1961807   1960921   1960378  
  8470.000000   1960183   1960320   1960791   1961603   1962758  
  8460.000000   1964210   1965851   1967506   1968971   1970079  
  8450.000000   1970721   1970909   1970737   1970404   1970117  
  8440.000000   1970062   1970348   1971001   1971972   1973155  
  8430.000000   1974437   1975731   1976999   1978241   1979467  
  8420.000000   1980671   1981806   1982788   1983517   1983924  
  8410.000000   1984022   1983924   1983833   1983963   1984491  
  8400.000000   1985473   1986849   1988421   1989960   1991239  
  8390.000000   1992134   1992602   1992693   1992479   1992030  
  8380.000000   1991379   1990541   1989536   1988421   1987282  
  8370.000000   1986212   1985254   1984386   1983507   1982495  
  8360.000000   1981249   1979771   1978171   1976646   1975398  
  8350.000000   1974553   1974112   1973953   1973899   1973782  
  8340.000000   1973526   1973147   1972742   1972408   1972186  
  8330.000000   1972034   1971855   1971561   1971142   1970686  
  8320.000000   1970356   1970319   1970664   1971333   1972117  
  8310.000000   1972722   1972869   1972394   1971303   1969762  
  8300.000000   1968045   1966443   1965178   1964353   1963943  
  8290.000000   1963837   1963884   1963951   1963937   1963800  
  8280.000000   1963523   1963137   1962676   1962195   1961739  
  8270.000000   1961357   1961101   1961000   1961056   1961205  
  8260.000000   1961330   1961263   1960826   1959876   1958359  
  8250.000000   1956356   1954093   1951914   1950174   1949155  
  8240.000000   1948943   1949420   1950270   1951091   1951505  
  8230.000000   1951288   1950418   1949067   1947505   1945989  
  8220.000000   1944669   1943553   1942545   1941515   1940376  
  8210.000000   1939132   1937860   1936668   1935606   1934660  
  8200.000000   1933722   1932677   1931438   1930021   1928521  
  8190.000000   1927090   1925843   1924815   1923924   1923014  
  8180.000000   1921915   1920504   1918756   1916733   1914554  
  8170.000000   1912336   1910158   1908046   1905991   1903981  
  8160.000000   1902033   1900197   1898541   1897124   1895964  
  8150.000000   1895032   1894256   1893545   1892817   1892005  
  8140.000000   1891089   1890060   1888950   1887778   1886583  
  8130.000000   1885380   1884183   1882984   1881762   1880506  
  8120.000000   1879222   1877969   1876844   1875979   1875481  
  8110.000000   1875388   1875628   1876012   1876283   1876177  
  8100.000000   1875512   1874238   1872458   1870380   1868254  
  8090.000000   1866291   1864604   1863209   1862054   1861076  
  8080.000000   1860235   1859531   1858975   1858555   1858201  
  8070.000000   1857785   1857150   1856167   1854795   1853101  
  8060.000000   1851271   1849552   1848188   1847352   1847094  
  8050.000000   1847331   1847872   1848469   1848880   1848921  
  8040.000000   1848500   1847623   1846381   1844912   1843376  
  8030.000000   1841905   1840596   1839490   1838589   1837859  
  8020.000000   1837255   1836728   1836228   1835713   1835149  
  8010.000000   1834521   1833834   1833125   1832453   1831880  
  8000.000000   1831451   1831172   1831005   1830877   1830712  
  7990.000000   1830459   1830116   1829721   1829333   1828986  
  7980.000000   1828665   1828294   1827769   1826998   1825955  
  7970.000000   1824705   1823384   1822169   1821201   1820558  
  7960.000000   1820230   1820151   1820234   1820408   1820632  
  7950.000000   1820875   1821083   1821150   1820934   1820284  
  7940.000000   1819127   1817497   1815578   1813644   1811993  
  7930.000000   1810843   1810266   1810183   1810400   1810706  
  7920.000000   1810942   1811058   1811095   1811141   1811259  
  7910.000000   1811447   1811645   1811752   1811710   1811504  
  7900.000000   1811204   1810889   1810622   1810399   1810147  
  7890.000000   1809776   1809223   1808529   1807832   1807348  
  7880.000000   1807275   1807726   1808655   1809869   1811078  
  7870.000000   1811987   1812388   1812212   1811543   1810565  
  7860.000000   1809495   1808507   1807700   1807078   1806585  
  7850.000000   1806141   1805681   1805182   1804662   1804176  
  7840.000000   1803779   1803528   1803438   1803506   1803680  
  7830.000000   1803894   1804070   1804142   1804070   1803849  
  7820.000000   1803508   1803080   1802596   1802050   1801408  
  7810.000000   1800610   1799612   1798409   1797062   1795701  
  7800.000000   1794488   1793593   1793120   1793098   1793455  
  7790.000000   1794051   1794711   1795269   1795606   1795658  
  7780.000000   1795420   1794920   1794218   1793376   1792465  
  7770.000000   1791557   1790725   1790036   1789537   1789255  
  7760.000000   1789174   1789255   1789418   1789579   1789644  
  7750.000000   1789540   1789212   1788638   1787830   1786831  
  7740.000000   1785711   1784551   1783428   1782398   1781485  
  7730.000000   1780681   1779952   1779255   1778554   1777835  
  7720.000000   1777099   1776364   1775652   1774976   1774346  
  7710.000000   1773765   1773242   1772789   1772422   1772146  
  7700.000000   1771948   1771796   1771643   1771445   1771182  
  7690.000000   1770857   1770506   1770163   1769844   1769520  
  7680.000000   1769124   1768572   1767805   1766827   1765720  
  7670.000000   1764638   1763755   1763211   1763056   1763225  
  7660.000000   1763558   1763835   1763859   1763504   1762764  
  7650.000000   1761731   1760579   1759489   1758611   1758026  
  7640.000000   1757747   1757731   1757916   1758243   1758671  
  7630.000000   1759183   1759760   1760383   1761006   1761568  
  7620.000000   1761999   1762233   1762236   1762000   1761557  
  7610.000000   1760954   1760251   1759493   1758711   1757920  
  7600.000000   1757124   1756332   1755563   1754852   1754243  
  7590.000000   1753782   1753501   1753409   1753495   1753723  
  7580.000000   1754056   1754456   1754907   1755397   1755934  
  7570.000000   1756516   1757142   1757791   1758440   1759063  
  7560.000000   1759648   1760190   1760706   1761210   1761718  
  7550.000000   1762223   1762701   1763108   1763398   1763533  
  7540.000000   1763505   1763333   1763081   1762830   1762681  
  7530.000000   1762722   1763019   1763593   1764424   1765456  
  7520.000000   1766608   1767796   1768950   1770028   1771025  
  7510.000000   1771967   1772905   1773890   1774970   1776159  
  7500.000000   1777443   1778760   1780023   1781131   1782003  
  7490.000000   1782592   1782913   1783036   1783084   1783191  
  7480.000000   1783481   1784019   1784813   1785812   1786934  
  7470.000000   1788100   1789266   1790428   1791626   1792906  
  7460.000000   1794309   1795830   1797439   1799068   1800667  
  7450.000000   1802192   1803643   1805035   1806404   1807764  
  7440.000000   1809127   1810481   1811822   1813154   1814511  
  7430.000000   1815941   1817499   1819223   1821127   1823188  
  7420.000000   1825367   1827613   1829882   1832140   1834365  
  7410.000000   1836537   1838644   1840670   1842614   1844482  
  7400.000000   1846300   1848100   1849911   1851747   1853607  
  7390.000000   1855473   1857332   1859176   1861018   1862874  
  7380.000000   1864758   1866658   1868539   1870352   1872055  
  7370.000000   1873640   1875150   1876669   1878298   1880127  
  7360.000000   1882193   1884478   1886906   1889376   1891791  
  7350.000000   1894078   1896199   1898138   1899897   1901473  
  7340.000000   1902865   1904085   1905167   1906182   1907221  
  7330.000000   1908385   1909745   1911331   1913104   1914989  
  7320.000000   1916885   1918706   1920396   1921937   1923344  
  7310.000000   1924641   1925852   1926989   1928054   1929055  
  7300.000000   1930010   1930959   1931952   1933048   1934286  
  7290.000000   1935686   1937231   1938874   1940538   1942139  
  7280.000000   1943591   1944828   1945807   1946530   1947043  
  7270.000000   1947431   1947805   1948273   1948923   1949793  
  7260.000000   1950876   1952109   1953407   1954670   1955827  
  7250.000000   1956824   1957662   1958368   1959013   1959678  
  7240.000000   1960473   1961488   1962813   1964494   1966552  
  7230.000000   1968950   1971623   1974463   1977368   1980229  
  7220.000000   1982982   1985577   1988021   1990326   1992546  
  7210.000000   1994721   1996915   1999166   2001518   2003996  
  7200.000000   2006625   2009414   2012379   2015526   2018867  
  7190.000000   2022397   2026103   2029939   2033840   2037708  
  7180.000000   2041450   2044977   2048255   2051283   2054130  
  7170.000000   2056876   2059634   2062478   2065468   2068608  
  7160.000000   2071886   2075270   2078756   2082356   2086123  
  7150.000000   2090114   2094388   2098960   2103808   2108848  
  7140.000000   2113987   2119110   2124165   2129124   2134047  
  7130.000000   2138997   2144071   2149309   2154738   2160307  
  7120.000000   2165962   2171618   2177242   2182830   2188437  
  7110.000000   2194134   2200001   2206080   2212389   2218894  
  7100.000000   2225562   2232337   2239191   2246083   2252984  
  7090.000000   2259827   2266552   2273077   2279368   2285428  
  7080.000000   2291345   2297253   2303320   2309675   2316386  
  7070.000000   2323426   2330695   2338052   2345378   2352594  
  7060.000000   2359692   2366704   2373681   2380659   2387649  
  7050.000000   2394634   2401600   2408540   2415473   2422427  
  7040.000000   2429419   2436440   2443442   2450359   2457128  
  7030.000000   2463720   2470153   2476492   2482813   2489191  
  7020.000000   2495650   2502178   2508713   2515188   2521538  
  7010.000000   2527734   2533769   2539674   2545476   2551216  
  7000.000000   2556912   2562587   2568236   2573856   2579419  
  6990.000000   2584894   2590229   2595382   2600309   2605006  
  6980.000000   2609479   2613781   2617965   2622105   2626246  
  6970.000000   2630430   2634659   2638935   2643221   2647493  
  6960.000000   2651695   2655795   2659743   2663518   2667096  
  6950.000000   2670485   2673692   2676742   2679648   2682426  
  6940.000000   2685071   2687588   2689975   2692254   2694444  
  6930.000000   2696591   2698728   2700896   2703105   2705364  
  6920.000000   2707649   2709941   2712202   2714406   2716531  
  6910.000000   2718571   2720527   2722411   2724231   2725998  
  6900.000000   2727703   2729337   2730883   2732341   2733721  
  6890.000000   2735062   2736409   2737813   2739297   2740857  
  6880.000000   2742448   2744004   2745456   2746757   2747893  
  6870.000000   2748894   2749819   2750740   2751715   2752779  
  6860.000000   2753940   2755185   2756484   2757807   2759123  
  6850.000000   2760411   2761651   2762833   2763951   2765008  
  6840.000000   2766010   2766969   2767891   2768781   2769637  
  6830.000000   2770459   2771246   2772003   2772732   2773437  
  6820.000000   2774104   2774725   2775284   2775789   2776257  
  6810.000000   2776733   2777260   2777870   2778553   2779262  
  6800.000000   2779911   2780411   2780697   2780752   2780611  
  6790.000000   2780349   2780048   2779778   2779575   2779458  
  6780.000000   2779430   2779506   2779703   2780041   2780507  
  6770.000000   2781046   2781559   2781931   2782071   2781947  
  6760.000000   2781603   2781148   2780714   2780412   2780291  
  6750.000000   2780336   2780484   2780666   2780837   2780996  
  6740.000000   2781168   2781392   2781678   2782009   2782334  
  6730.000000   2782600   2782770   2782832   2782802   2782702  
  6720.000000   2782542   2782320   2782022   2781652   2781237  
  6710.000000   2780839   2780524   2780346   2780308   2780368  
  6700.000000   2780437   2780428   2780273   2779961   2779521  
  6690.000000   2779017   2778507   2778028   2777580   2777150  
  6680.000000   2776714   2776266   2775803   2775339   2774867  
  6670.000000   2774372   2773814   2773162   2772393   2771515  
  6660.000000   2770556   2769553   2768528   2767484   2766397  
  6650.000000   2765242   2763996   2762672   2761296   2759916  
  6640.000000   2758562   2757254   2755979   2754718   2753443  
  6630.000000   2752149   2750837   2749526   2748224   2746935  
  6620.000000   2745646   2744346   2743024   2741682   2740326  
  6610.000000   2738962   2737580   2736159   2734667   2733084  
  6600.000000   2731412   2729683   2727944   2726244   2724603  
  6590.000000   2723011   2721419   2719772   2718024   2716170  
  6580.000000   2714238   2712289   2710386   2708581   2706889  
  6570.000000   2705299   2703778   2702286   2700792   2699270  
  6560.000000   2697706   2696090   2694422   2692709   2690974  
  6550.000000   2689255   2687595   2686035   2684599   2683286  
  6540.000000   2682074   2680925   2679806   2678687   2677554  
  6530.000000   2676393   2675195   2673943   2672625   2671235  
  6520.000000   2669795   2668345   2666945   2665656   2664520  
  6510.000000   2663548   2662712   2661962   2661233   2660471  
  6500.000000   2659638   2658721   2657718   2656644   2655517  
  6490.000000   2654360   2653199   2652060   2650964   2649916  
  6480.000000   2648904   2647887   2646817   2645642   2644331  
  6470.000000   2642885   2641337   2639751   2638199   2636751  
  6460.000000   2635456   2634345   2633419   2632662   2632036  
  6450.000000   2631490   2630964   2630393   2629724   2628918  
  6440.000000   2627972   2626906   2625774   2624633   2623545  
  6430.000000   2622549   2621668   2620901   2620235   2619653  
  6420.000000   2619140   2618683   2618274   2617905   2617574  
  6410.000000   2617275   2617008   2616769   2616553   2616347  
  6400.000000   2616138   2615905   2615640   2615343   2615033  
  6390.000000   2614739   2614495   2614323   2614230   2614198  
  6380.000000   2614197   2614187   2614135   2614019   2613833  
  6370.000000   2613582   2613278   2612937   2612576   2612213  
  6360.000000   2611868   2611560   2611297   2611083   2610906  
  6350.000000   2610750   2610594   2610428   2610243   2610038  
  6340.000000   2609806   2609532   2609186   2608739   2608167  
  6330.000000   2607468   2606663   2605794   2604908   2604042  
  6320.000000   2603209   2602403   2601597   2600779   2599942  
  6310.000000   2599108   2598299   2597542   2596832   2596148  
  6300.000000   2595438   2594659   2593771   2592768   2591660  
  6290.000000   2590474   2589226   2587923   2586554   2585107  
  6280.000000   2583573   2581971   2580330   2578701   2577123  
  6270.000000   2575624   2574198   2572825   2571460   2570068  
  6260.000000   2568612   2567077   2565456   2563755   2561987  
  6250.000000   2560168   2558315   2556450   2554590   2552753  
  6240.000000   2550946   2549170   2547421   2545692   2543973  
  6230.000000   2542258   2540537   2538805   2537053   2535278  
  6220.000000   2533486   2531691   2529921   2528205   2526569  
  6210.000000   2525022   2523556   2522138   2520726   2519278  
  6200.000000   2517768   2516187   2514552   2512893   2511253  
  6190.000000   2509668   2508170   2506772   2505471   2504245  
  6180.000000   2503059   2501865   2500623   2499301   2497897  
  6170.000000   2496429   2494943   2493490   2492115   2490841  
  6160.000000   2489667   2488564   2487496   2486426   2485329  
  6150.000000   2484193   2483018   2481807   2480567   2479302  
  6140.000000   2478024   2476749   2475503   2474308   2473180  
  6130.000000   2472113   2471084   2470059   2469005   2467906  
  6120.000000   2466776   2465645   2464559   2463554   2462649  
  6110.000000   2461834   2461087   2460371   2459664   2458954  
  6100.000000   2458254   2457583   2456971   2456441   2456017  
  6090.000000   2455709   2455527   2455462   2455502   2455611  
  6080.000000   2455751   2455873   2455947   2455953   2455912  
  6070.000000   2455856   2455841   2455909   2456097   2456414  
  6060.000000   2456860   2457415   2458072   2458815   2459646  
  6050.000000   2460551   2461528   2462554   2463620   2464711  
  6040.000000   2465841   2467021   2468288   2469659   2471152  
  6030.000000   2472755   2474448   2476192   2477956   2479713  
  6020.000000   2481457   2483188   2484926   2486682   2488480  
  6010.000000   2490328   2492237   2494199   2496208   2498235  
  6000.000000   2500263   2502265   2504236   2506181   2508133  
  5990.000000   2510130   2512223   2514439   2516802   2519301  
  5980.000000   2521924   2524639   2527428   2530271   2533167  
  5970.000000   2536105   2539089   2542106   2545158   2548238  
  5960.000000   2551358   2554523   2557751   2561042   2564403  
  5950.000000   2567819   2571289   2574804   2578374   2582013  
  5940.000000   2585737   2589556   2593463   2597439   2601450  
  5930.000000   2605462   2609444   2613379   2617248   2621039  
  5920.000000   2624733   2628306   2631731   2634991   2638080  
  5910.000000   2641009   2643797   2646471   2649048   2651545  
  5900.000000   2653971   2656349   2658701   2661070   2663489  
  5890.000000   2665995   2668593   2671279   2674019   2676786  
  5880.000000   2679547   2682285   2684988   2687645   2690235  
  5870.000000   2692726   2695082   2697271   2699283   2701135  
  5860.000000   2702870   2704548   2706231   2707968   2709792  
  5850.000000   2711722   2713762   2715911   2718165   2720513  
  5840.000000   2722940   2725426   2727953   2730506   2733086  
  5830.000000   2735696   2738346   2741033   2743741   2746437  
  5820.000000   2749086   2751660   2754158   2756602   2759036  
  5810.000000   2761507   2764034   2766619   2769218   2771791  
  5800.000000   2774280   2776681   2778986   2781248   2783485  
  5790.000000   2785734   2787957   2790110   2792073   2793738  
  5780.000000   2794959   2795634   2795669   2795041   2793758  
  5770.000000   2791911   2789614   2787039   2784340   2781676  
  5760.000000   2779142   2776808   2774674   2772729   2770925  
  5750.000000   2769238   2767631   2766095   2764615   2763191  
  5740.000000   2761826   2760530   2759323   2758219   2757237  
  5730.000000   2756366   2755589   2754856   2754126   2753350  
  5720.000000   2752514   2751619   2750696   2749776   2748891  
  5710.000000   2748057   2747281   2746557   2745889   2745277  
  5700.000000   2744732   2744258   2743850   2743492   2743160  
  5690.000000   2742836   2742504   2742172   2741846   2741538  
  5680.000000   2741242   2740945   2740611   2740212   2739710  
  5670.000000   2739088   2738320   2737388   2736257   2734898  
  5660.000000   2733281   2731406   2729302   2727042   2724716  
  5650.000000   2722423   2720232   2718183   2716267   2714456  
  5640.000000   2712703   2710978   2709262   2707555   2705871  
  5630.000000   2704219   2702611   2701052   2699551   2698114  
  5620.000000   2696753   2695474   2694280   2693162   2692110  
  5610.000000   2691105   2690140   2689208   2688310   2687445  
  5600.000000   2686610   2685793   2684986   2684181   2683384  
  5590.000000   2682605   2681858   2681150   2680475   2679817  
  5580.000000   2679151   2678457   2677727   2676962   2676169  
  5570.000000   2675356   2674514   2673630   2672683   2671664  
  5560.000000   2670577   2669445   2668298   2667162   2666046  
  5550.000000   2664940   2663816   2662650   2661430   2660167  
  5540.000000   2658885   2657619   2656394   2655223   2654101  
  5530.000000   2653019   2651965   2650938   2649942   2648981  
  5520.000000   2648051   2647138   2646221   2645280   2644303  
  5510.000000   2643293   2642256   2641203   2640132   2639040  
  5500.000000   2637910   2636739   2635529   2634298   2633065  
  5490.000000   2631846   2630628   2629390   2628091   2626703  
  5480.000000   2625212   2623638   2622011   2620378   2618764  
  5470.000000   2617180   2615610   2614029   2612409   2610736  
  5460.000000   2609001   2607205   2605346   2603420   2601422  
  5450.000000   2599360   2597256   2595148   2593079   2591082  
  5440.000000   2589170   2587331   2585545   2583789   2582061  
  5430.000000   2580369   2578733   2577152   2575619   2574094  
  5420.000000   2572552   2570970   2569381   2567838   2566431  
  5410.000000   2565220   2564241   2563461   2562825   2562251  
  5400.000000   2561696   2561137   2560610   2560151   2559821  
  5390.000000   2559637   2559617   2559735   2559991   2560375  
  5380.000000   2560915   2561617   2562511   2563574   2564801  
  5370.000000   2566145   2567602   2569140   2570792   2572546  
  5360.000000   2574446   2576473   2578671   2581028   2583619  
  5350.000000   2586470   2589687   2593296   2597373   2601882  
  5340.000000   2606842   2612176   2617906   2623976   2630444  
  5330.000000   2637267   2644503   2652092   2660085   2668433  
  5320.000000   2677231   2686483   2696334   2706796   2717994  
  5310.000000   2729880   2742514   2755792   2769762   2784348  
  5300.000000   2799646   2815636   2832454   2850101   2868706  
  5290.000000   2888238   2908763   2930176   2952452   2975423  
  5280.000000   2999040   3023177   3047873   3073120   3099041  
  5270.000000   3125658   3153007   3180960   3209352   3237938  
  5260.000000   3266527   3295002   3323365   3351701   3380093  
  5250.000000   3408588   3437085   3465422   3493311   3520562  
  5240.000000   3546971   3572562   3597345   3621510   3645116  
  5230.000000   3668301   3690990   3713166   3734631   3755327  
  5220.000000   3775099   3794007   3812027   3829335   3845964  
  5210.000000   3862076   3877621   3892639   3906962   3920563  
  5200.000000   3933282   3945179   3956215   3966552   3976204  
  5190.000000   3985310   3993816   4001767   4009043   4015671  
  5180.000000   4021570   4026830   4031432   4035496   4038993  
  5170.000000   4042002   4044464   4046434   4047863   4048826  
  5160.000000   4049294   4049338   4048913   4048059   4046717  
  5150.000000   4044931   4042677   4040033   4037006   4033675  
  5140.000000   4030031   4026117   4021907   4017442   4012720  
  5130.000000   4007811   4002741   3997584   3992352   3987079  
  5120.000000   3981749   3976373   3970932   3965439   3959885  
  5110.000000   3954279   3948613   3942888   3937101   3931272  
  5100.000000   3925424   3919599   3913833   3908159   3902587  
  5090.000000   3897117   3891729   3886412   3881148   3875936  
  5080.000000   3870768   3865641   3860537   3855436   3850305  
  5070.000000   3845126   3839874   3834548   3829138   3823650  
  5060.000000   3818074   3812413   3806655   3800811   3794879  
  5050.000000   3788878   3782809   3776682   3770479   3764192  
  5040.000000   3757795   3751287   3744668   3737966   3731209  
  5030.000000   3724437   3717678   3710954   3704271   3697626  
  5020.000000   3691016   3684434   3677885   3671373   3664914  
  5010.000000   3658518   3652209   3645994   3639897   3633915  
  5000.000000   3628067   3622341   3616756   3611302   3606017  
  4990.000000   3600911   3596044   3591437   3587152   3583187  
  4980.000000   3579575   3576278   3573305   3570606   3568198  
  4970.000000   3566050   3564206   3562649   3561436   3560543  
  4960.000000   3560022   3559842   3560050   3560619   3561603  
  4950.000000   3562973   3564777   3566973   3569596   3572594  
  4940.000000   3576001   3579775   3583959   3588517   3593491  
  4930.000000   3598834   3604573   3610654   3617105   3623883  
  4920.000000   3631030   3638516   3646377   3654575   3663121  
  4910.000000   3671960   3681087   3690453   3700061   3709879  
  4900.000000   3719916   3730148   3740569   3751151   3761864  
  4890.000000   3772669   3783516   3794357   3805114   3815731  
  4880.000000   3826118   3836227   3845977   3855351   3864293  
  4870.000000   3872807   3880847   3888428   3895502   3902092  
  4860.000000   3908162   3913753   3918845   3923493   3927682  
  4850.000000   3931467   3934836   3937851   3940519   3942917  
  4840.000000   3945070   3947058   3948901   3950660   3952339  
  4830.000000   3953975   3955567   3957141   3958694   3960238  
  4820.000000   3961763   3963263   3964722   3966135   3967505  
  4810.000000   3968847   3970190   3971565   3973007   3974538  
  4800.000000   3976177   3977928   3979795   3981773   3983859  
  4790.000000   3986041   3988309   3990643   3993025   3995439  
  4780.000000   3997874   4000327   4002796   4005278   4007764  
  4770.000000   4010237   4012671   4015044   4017334   4019537  
  4760.000000   4021652   4023693   4025662   4027571   4029405  
  4750.000000   4031161   4032816   4034364   4035792   4037109  
  4740.000000   4038312   4039421   4040440   4041389   4042271  
  4730.000000   4043103   4043884   4044621   4045307   4045935  
  4720.000000   4046497   4046988   4047414   4047788   4048136  
  4710.000000   4048487   4048873   4049316   4049837   4050442  
  4700.000000   4051140   4051934   4052830   4053832   4054950  
  4690.000000   4056185   4057539   4059000   4060561   4062198  
  4680.000000   4063894   4065615   4067344   4069047   4070713  
  4670.000000   4072317   4073864   4075348   4076792   4078211  
  4660.000000   4079643   4081122   4082703   4084435   4086377  
  4650.000000   4088573   4091054   4093825   4096864   4100121  
  4640.000000   4103528   4107014   4110512   4113973   4117365  
  4630.000000   4120673   4123886   4126997   4129987   4132834  
  4620.000000   4135501   4137953   4140148   4142065   4143677  
  4610.000000   4144998   4146039   4146860   4147507   4148065  
  4600.000000   4148576   4149103   4149644   4150209   4150747  
  4590.000000   4151235   4151614   4151862   4151935   4151825  
  4580.000000   4151498   4150944   4150132   4149064   4147732  
  4570.000000   4146169   4144407   4142507   4140509   4138464  
  4560.000000   4136380   4134274   4132128   4129942   4127700  
  4550.000000   4125414   4123082   4120721   4118331   4115919  
  4540.000000   4113484   4111031   4108573   4106125   4103710  
  4530.000000   4101336   4099013   4096720   4094452   4092176  
  4520.000000   4089904   4087629   4085407   4083261   4081274  
  4510.000000   4079474   4077941   4076686   4075788   4075248  
  4500.000000   4075155   4075507   4076398   4077814   4079836  
  4490.000000   4082433   4085685   4089562   4094157   4099451  
  4480.000000   4105539   4112391   4120077   4128533   4137795  
  4470.000000   4147769   4158467   4169788   4181736   4194211  
  4460.000000   4207213   4220645   4234497   4248675   4263157  
  4450.000000   4277855   4292740   4307738   4322825   4337953  
  4440.000000   4353105   4368259   4383397   4398513   4413577  
  4430.000000   4428585   4443489   4458281   4472888   4487293  
  4420.000000   4501397   4515174   4528506   4541366   4553633  
  4410.000000   4565283   4576200   4586368   4595688   4604168  
  4400.000000   4611749   4618491   4624396   4629581   4634104  
  4390.000000   4638115   4641699   4645009   4648126   4651179  
  4380.000000   4654219   4657331   4660529   4663853   4667300  
  4370.000000   4670890   4674631   4678552   4682675   4687029  
  4360.000000   4691633   4696497   4701604   4706938   4712438  
  4350.000000   4718072   4723748   4729447   4735088   4740697  
  4340.000000   4746234   4751741   4757145   4762363   4767128  
  4330.000000   4771105   4773811   4774796   4773664   4770262  
  4320.000000   4764689   4757364   4748903   4740062   4731520  
  4310.000000   4723841   4717325   4712089   4708038   4705015  
  4300.000000   4702815   4701281   4700290   4699753   4699612  
  4290.000000   4699786   4700231   4700868   4701688   4702659  
  4280.000000   4703804   4705120   4706612   4708264   4710040  
  4270.000000   4711919   4713852   4715803   4717668   4719310  
  4260.000000   4720493   4720953   4720389   4718584   4715415  
  4250.000000   4710949   4705389   4699096   4692451   4685859  
  4240.000000   4679603   4673893   4668778   4664245   4660183  
  4230.000000   4656481   4653002   4649635   4646287   4642886  
  4220.000000   4639407   4635835   4632228   4628637   4625181  
  4210.000000   4621937   4619022   4616478   4614362   4612655  
  4200.000000   4611350   4610380   4609711   4609265   4609013  
  4190.000000   4608893   4608908   4609025   4609284   4609669  
  4180.000000   4610235   4610961   4611892   4612998   4614324  
  4170.000000   4615857   4617671   4619785   4622295   4625221  
  4160.000000   4628639   4632532   4636935   4641799   4647147  
  4150.000000   4652927   4659169   4665824   4672922   4680404  
  4140.000000   4688300   4696552   4705211   4714245   4723729  
  4130.000000   4733643   4744057   4754930   4766300   4778109  
  4120.000000   4790383   4803080   4816256   4829904   4844098  
  4110.000000   4858840   4874179   4890075   4906518   4923414  
  4100.000000   4940703   4958273   4976060   4993983   5012012  
  4090.000000   5030115   5048284   5066506   5084758   5103027  
  4080.000000   5121272   5139488   5157634   5175722   5193699  
  4070.000000   5211563   5229216   5246622   5263654   5280277  
  4060.000000   5296378   5311958   5326928   5341317   5355043  
  4050.000000   5368156   5380598   5392467   5403741   5414538  
  4040.000000   5424814   5434634   5443880   5452563   5460539  
  4030.000000   5467840   5474368   5480197   5485271   5489655  
  4020.000000   5493252   5496122   5498237   5499670   5500361  
  4010.000000   5500442   5499985   5498980   5497153   5494554  
  4000.000000   5491565  
##END= 
