##TITLE= Sample 028 By ssteindl date Montag, November 26 2018
##JCAMP-DX= 4.24
##DATA TYPE= INFRARED SPECTRUM
##ORIGIN= Exported PE Spectrum Data File
##OWNER= Sandra Steindl
##DATE= 18/11/26
##TIME= 11:46:58.00
##SPECTROMETER/DATA SYSTEM= PERKIN-ELMER Frontier FT-IR/NIR IR
##INSTRUMENT PARAMETERS=
  APODIZATION=stark
  DETECTOR=INGAAS
##RESOLUTION= 16.000000
##DELTAX= -2.000000
##XUNITS= 1/CM
##YUNITS= A
##XFACTOR= 1.00
##YFACTOR= 0.00000011920928955078
##FIRSTX= 10000.00
##LASTX= 4000.00
##NPOINTS= 3001
##FIRSTY= 0.270933
##MAXY= 0.623106
##MINY= 0.215605
##XYDATA= (X++(Y..Y))
 10000.000000   2272751   2269391   2266182   2263025   2259495  
  9990.000000   2255266   2250586   2246228   2242998   2241516  
  9980.000000   2242062   2244548   2248482   2253078   2257531  
  9970.000000   2261053   2263065   2263099   2260965   2256633  
  9960.000000   2250377   2242722   2234511   2226800   2220741  
  9950.000000   2217314   2217095   2220051   2225529   2232406  
  9940.000000   2239358   2245165   2248970   2250423   2249755  
  9930.000000   2247663   2245192   2243435   2243323   2245370  
  9920.000000   2249545   2255305   2261690   2267647   2272207  
  9910.000000   2274836   2275406   2274280   2272037   2269301  
  9900.000000   2266508   2263771   2260965   2257782   2253970  
  9890.000000   2249404   2244144   2238430   2232568   2226955  
  9880.000000   2221991   2218151   2215889   2215590   2217392  
  9870.000000   2221068   2225995   2231243   2235835   2238982  
  9860.000000   2240372   2240167   2238987   2237557   2236502  
  9850.000000   2236060   2236107   2236264   2236142   2235552  
  9840.000000   2234582   2233544   2232783   2232534   2232789  
  9830.000000   2233355   2233881   2234033   2233533   2232284  
  9820.000000   2230379   2228121   2225974   2224466   2224007  
  9810.000000   2224770   2226507   2228617   2230216   2230472  
  9800.000000   2228871   2225492   2220998   2216443   2212838  
  9790.000000   2210744   2210014   2209844   2209128   2206924  
  9780.000000   2202877   2197338   2191200   2185508   2181069  
  9770.000000   2178191   2176719   2176179   2176091   2176116  
  9760.000000   2176137   2176135   2176095   2175913   2175512  
  9750.000000   2174946   2174542   2174832   2176329   2179216  
  9740.000000   2183116   2187138   2190197   2191491   2190901  
  9730.000000   2189083   2187180   2186291   2186899   2188595  
  9720.000000   2190221   2190370   2188100   2183366   2177139  
  9710.000000   2170967   2166315   2163953   2163665   2164492  
  9700.000000   2165264   2165220   2164375   2163434   2163382  
  9690.000000   2164908   2168018   2172028   2175898   2178745  
  9680.000000   2180249   2180757   2181045   2181898   2183686  
  9670.000000   2186238   2188941   2191110   2192294   2192444  
  9660.000000   2191805   2190663   2189071   2186786   2183372  
  9650.000000   2178554   2172476   2165847   2159754   2155286  
  9640.000000   2153103   2153156   2154708   2156633   2157865  
  9630.000000   2157787   2156406   2154255   2152086   2150568  
  9620.000000   2150052   2150563   2151915   2153870   2156291  
  9610.000000   2159082   2162129   2165129   2167557   2168744  
  9600.000000   2168087   2165296   2160607   2154756   2148862  
  9590.000000   2144049   2141140   2140387   2141394   2143321  
  9580.000000   2145142   2146095   2145858   2144710   2143309  
  9570.000000   2142482   2142848   2144627   2147547   2150923  
  9560.000000   2153923   2155756   2155955   2154408   2151365  
  9550.000000   2147279   2142660   2137967   2133567   2129765  
  9540.000000   2126809   2124890   2124062   2124213   2125022  
  9530.000000   2126057   2126875   2127178   2126915   2126265  
  9520.000000   2125547   2125033   2124829   2124802   2124701  
  9510.000000   2124299   2123582   2122796   2122371   2122721  
  9500.000000   2123997   2125969   2128027   2129404   2129463  
  9490.000000   2127961   2125159   2121708   2118393   2115823  
  9480.000000   2114220   2113408   2112918   2112258   2111104  
  9470.000000   2109441   2107538   2105810   2104628   2104157  
  9460.000000   2104292   2104707   2104969   2104700   2103686  
  9450.000000   2101946   2099726   2097442   2095574   2094550  
  9440.000000   2094604   2095689   2097445   2099269   2100475  
  9430.000000   2100484   2099006   2096118   2092263   2088102  
  9420.000000   2084355   2081552   2079939   2079395   2079561  
  9410.000000   2079941   2080100   2079768   2078901   2077691  
  9400.000000   2076466   2075635   2075543   2076426   2078333  
  9390.000000   2081107   2084404   2087740   2090593   2092514  
  9380.000000   2093207   2092583   2090742   2087932   2084511  
  9370.000000   2080851   2077323   2074189   2071595   2069527  
  9360.000000   2067811   2066178   2064321   2062068   2059456  
  9350.000000   2056812   2054654   2053527   2053787   2055429  
  9340.000000   2058047   2060904   2063198   2064293   2064017  
  9330.000000   2062644   2060835   2059269   2058445   2058460  
  9320.000000   2059067   2059783   2060114   2059783   2058835  
  9310.000000   2057641   2056703   2056494   2057277   2059074  
  9300.000000   2061657   2064629   2067466   2069639   2070691  
  9290.000000   2070370   2068683   2065956   2062782   2059913  
  9280.000000   2058026   2057477   2058120   2059334   2060225  
  9270.000000   2059943   2057966   2054306   2049499   2044461  
  9260.000000   2040142   2037221   2035893   2035890   2036682  
  9250.000000   2037677   2038438   2038724   2038518   2037916  
  9240.000000   2037042   2035991   2034830   2033652   2032625  
  9230.000000   2031978   2031945   2032654   2034052   2035915  
  9220.000000   2037884   2039586   2040698   2041033   2040558  
  9210.000000   2039351   2037580   2035421   2033069   2030667  
  9200.000000   2028322   2026074   2023933   2021894   2019976  
  9190.000000   2018270   2016922   2016152   2016129   2016938  
  9180.000000   2018465   2020434   2022465   2024192   2025390  
  9170.000000   2025990   2026116   2025933   2025615   2025179  
  9160.000000   2024555   2023580   2022158   2020325   2018263  
  9150.000000   2016293   2014719   2013841   2013808   2014699  
  9140.000000   2016438   2018913   2021908   2025123   2028110  
  9130.000000   2030314   2031183   2030292   2027537   2023144  
  9120.000000   2017710   2011980   2006698   2002343   1999040  
  9110.000000   1996612   1994692   1993002   1991421   1990128  
  9100.000000   1989454   1989797   1991389   1994171   1997742  
  9090.000000   2001436   2004521   2006320   2006437   2004780  
  9080.000000   2001685   1997738   1993708   1990294   1988023  
  9070.000000   1987066   1987223   1987988   1988719   1988880  
  9060.000000   1988186   1986770   1985101   1983869   1983707  
  9050.000000   1985001   1987762   1991572   1995734   1999440  
  9040.000000   2002050   2003179   2002773   2001083   1998580  
  9030.000000   1995844   1993409   1991725   1991090   1991607  
  9020.000000   1993131   1995315   1997651   1999599   2000643  
  9010.000000   2000483   1999085   1996710   1993817   1990951  
  9000.000000   1988612   1987110   1986506   1986614   1987104  
  8990.000000   1987610   1987842   1987666   1987106   1986329  
  8980.000000   1985529   1984880   1984457   1984231   1984110  
  8970.000000   1983983   1983810   1983616   1983478   1983458  
  8960.000000   1983533   1983593   1983447   1982923   1981945  
  8950.000000   1980617   1979218   1978116   1977609   1977809  
  8940.000000   1978556   1979480   1980104   1980047   1979161  
  8930.000000   1977596   1975731   1974022   1972824   1972248  
  8920.000000   1972136   1972137   1971865   1971045   1969619  
  8910.000000   1967751   1965759   1963990   1962709   1962024  
  8900.000000   1961895   1962160   1962643   1963169   1963655  
  8890.000000   1964050   1964376   1964638   1964850   1964990  
  8880.000000   1965044   1965003   1964926   1964938   1965245  
  8870.000000   1966080   1967617   1969911   1972817   1976028  
  8860.000000   1979114   1981653   1983360   1984170   1984262  
  8850.000000   1983957   1983585   1983343   1983218   1983036  
  8840.000000   1982542   1981585   1980179   1978573   1977129  
  8830.000000   1976222   1976051   1976581   1977535   1978490  
  8820.000000   1979021   1978808   1977733   1975871   1973472  
  8810.000000   1970888   1968521   1966769   1965977   1966356  
  8800.000000   1967922   1970453   1973503   1976496   1978857  
  8790.000000   1980200   1980433   1979804   1978781   1977888  
  8780.000000   1977507   1977750   1978453   1979256   1979779  
  8770.000000   1979741   1979050   1977784   1976117   1974226  
  8760.000000   1972234   1970212   1968224   1966365   1964786  
  8750.000000   1963641   1963044   1963011   1963458   1964224  
  8740.000000   1965146   1966109   1967091   1968106   1969181  
  8730.000000   1970270   1971282   1972089   1972627   1972933  
  8720.000000   1973165   1973552   1974290   1975469   1977016  
  8710.000000   1978732   1980359   1981685   1982606   1983127  
  8700.000000   1983331   1983288   1983023   1982505   1981693  
  8690.000000   1980603   1979337   1978112   1977182   1976801  
  8680.000000   1977124   1978191   1979908   1982082   1984448  
  8670.000000   1986705   1988554   1989719   1990020   1989389  
  8660.000000   1987959   1986026   1984054   1982514   1981790  
  8650.000000   1982034   1983154   1984843   1986703   1988397  
  8640.000000   1989744   1990779   1991668   1992660   1993930  
  8630.000000   1995568   1997532   1999733   2002077   2004500  
  8620.000000   2006941   2009289   2011359   2012873   2013535  
  8610.000000   2013103   2011515   2008920   2005686   2002300  
  8600.000000   1999255   1996938   1995551   1995133   1995574  
  8590.000000   1996730   1998437   2000579   2003027   2005665  
  8580.000000   2008328   2010842   2013033   2014768   2016013  
  8570.000000   2016796   2017232   2017421   2017448   2017314  
  8560.000000   2016965   2016311   2015276   2013859   2012158  
  8550.000000   2010374   2008756   2007563   2006968   2007030  
  8540.000000   2007646   2008610   2009661   2010573   2011228  
  8530.000000   2011632   2011929   2012292   2012883   2013739  
  8520.000000   2014801   2015878   2016762   2017271   2017350  
  8510.000000   2017077   2016645   2016321   2016363   2016975  
  8500.000000   2018237   2020117   2022465   2025043   2027545  
  8490.000000   2029656   2031101   2031703   2031416   2030361  
  8480.000000   2028813   2027145   2025737   2024877   2024705  
  8470.000000   2025154   2025988   2026867   2027461   2027538  
  8460.000000   2027021   2026008   2024755   2023594   2022865  
  8450.000000   2022824   2023608   2025195   2027417   2029997  
  8440.000000   2032617   2034999   2036947   2038412   2039468  
  8430.000000   2040289   2041059   2041917   2042905   2043949  
  8420.000000   2044896   2045556   2045782   2045508   2044767  
  8410.000000   2043666   2042346   2040950   2039580   2038307  
  8400.000000   2037153   2036154   2035348   2034825   2034670  
  8390.000000   2034978   2035782   2037056   2038666   2040401  
  8380.000000   2041994   2043180   2043761   2043638   2042859  
  8370.000000   2041578   2040036   2038462   2037030   2035805  
  8360.000000   2034756   2033791   2032813   2031788   2030762  
  8350.000000   2029870   2029261   2029064   2029312   2029944  
  8340.000000   2030799   2031680   2032412   2032885   2033085  
  8330.000000   2033070   2032951   2032828   2032762   2032744  
  8320.000000   2032707   2032543   2032145   2031453   2030482  
  8310.000000   2029338   2028183   2027209   2026563   2026313  
  8300.000000   2026408   2026696   2026963   2027010   2026724  
  8290.000000   2026114   2025303   2024478   2023823   2023449  
  8280.000000   2023364   2023475   2023646   2023752   2023735  
  8270.000000   2023607   2023431   2023273   2023167   2023088  
  8260.000000   2022972   2022747   2022367   2021841   2021218  
  8250.000000   2020574   2019970   2019451   2019027   2018703  
  8240.000000   2018477   2018346   2018295   2018273   2018189  
  8230.000000   2017914   2017318   2016312   2014897   2013172  
  8220.000000   2011316   2009536   2008019   2006882   2006162  
  8210.000000   2005828   2005795   2005967   2006229   2006480  
  8200.000000   2006606   2006516   2006142   2005482   2004600  
  8190.000000   2003624   2002691   2001901   2001255   2000661  
  8180.000000   1999955   1998977   1997625   1995912   1993941  
  8170.000000   1991870   1989823   1987851   1985905   1983900  
  8160.000000   1981770   1979542   1977338   1975354   1973764  
  8150.000000   1972655   1971963   1971503   1971033   1970353  
  8140.000000   1969383   1968168   1966843   1965536   1964312  
  8130.000000   1963122   1961854   1960372   1958621   1956639  
  8120.000000   1954578   1952621   1950924   1949545   1948428  
  8110.000000   1947455   1946497   1945491   1944461   1943506  
  8100.000000   1942745   1942264   1942063   1942058   1942099  
  8090.000000   1942029   1941727   1941139   1940285   1939222  
  8080.000000   1938042   1936812   1935582   1934352   1933095  
  8070.000000   1931756   1930279   1928638   1926854   1925028  
  8060.000000   1923319   1921939   1921072   1920827   1921179  
  8050.000000   1921950   1922850   1923539   1923735   1923279  
  8040.000000   1922193   1920643   1918899   1917228   1915832  
  8030.000000   1914793   1914080   1913590   1913199   1912815  
  8020.000000   1912402   1911971   1911558   1911188   1910849  
  8010.000000   1910496   1910062   1909480   1908726   1907818  
  8000.000000   1906840   1905908   1905148   1904660   1904480  
  7990.000000   1904573   1904827   1905096   1905223   1905099  
  7980.000000   1904685   1904024   1903220   1902397   1901660  
  7970.000000   1901048   1900535   1900026   1899412   1898594  
  7960.000000   1897535   1896267   1894893   1893558   1892410  
  7950.000000   1891572   1891099   1890990   1891177   1891566  
  7940.000000   1892054   1892555   1893019   1893417   1893740  
  7930.000000   1893954   1894011   1893827   1893322   1892440  
  7920.000000   1891202   1889715   1888169   1886798   1885810  
  7910.000000   1885342   1885398   1885867   1886541   1887188  
  7900.000000   1887602   1887658   1887317   1886622   1885673  
  7890.000000   1884598   1883536   1882617   1881952   1881604  
  7880.000000   1881574   1881782   1882069   1882239   1882111  
  7870.000000   1881583   1880672   1879512   1878311   1877270  
  7860.000000   1876515   1876053   1875786   1875575   1875310  
  7850.000000   1874977   1874658   1874505   1874638   1875104  
  7840.000000   1875814   1876587   1877201   1877472   1877321  
  7830.000000   1876763   1875898   1874830   1873634   1872335  
  7820.000000   1870926   1869420   1867878   1866434   1865241  
  7810.000000   1864439   1864076   1864101   1864350   1864626  
  7800.000000   1864738   1864574   1864116   1863426   1862615  
  7790.000000   1861780   1860982   1860223   1859470   1858668  
  7780.000000   1857780   1856795   1855738   1854658   1853614  
  7770.000000   1852663   1851840   1851161   1850610   1850147  
  7760.000000   1849714   1849243   1848680   1847988   1847162  
  7750.000000   1846225   1845226   1844217   1843252   1842366  
  7740.000000   1841580   1840897   1840304   1839784   1839316  
  7730.000000   1838889   1838506   1838185   1837955   1837833  
  7720.000000   1837812   1837839   1837819   1837631   1837178  
  7710.000000   1836420   1835410   1834289   1833251   1832481  
  7700.000000   1832092   1832086   1832348   1832697   1832941  
  7690.000000   1832957   1832719   1832302   1831835   1831442  
  7680.000000   1831188   1831054   1830959   1830789   1830460  
  7670.000000   1829933   1829233   1828426   1827589   1826794  
  7660.000000   1826083   1825486   1825008   1824652   1824406  
  7650.000000   1824251   1824147   1824046   1823895   1823652  
  7640.000000   1823294   1822807   1822195   1821449   1820563  
  7630.000000   1819530   1818366   1817121   1815891   1814800  
  7620.000000   1813969   1813487   1813372   1813578   1813998  
  7610.000000   1814504   1814978   1815338   1815549   1815614  
  7600.000000   1815555   1815397   1815161   1814859   1814500  
  7590.000000   1814089   1813633   1813137   1812611   1812067  
  7580.000000   1811528   1811025   1810591   1810252   1810010  
  7570.000000   1809836   1809680   1809490   1809245   1808967  
  7560.000000   1808729   1808623   1808732   1809087   1809653  
  7550.000000   1810339   1811033   1811643   1812136   1812541  
  7540.000000   1812931   1813374   1813912   1814528   1815166  
  7530.000000   1815739   1816185   1816469   1816605   1816627  
  7520.000000   1816583   1816515   1816463   1816470   1816600  
  7510.000000   1816922   1817506   1818385   1819547   1820914  
  7500.000000   1822368   1823782   1825062   1826175   1827153  
  7490.000000   1828070   1829021   1830074   1831263   1832565  
  7480.000000   1833930   1835278   1836532   1837618   1838487  
  7470.000000   1839119   1839542   1839837   1840131   1840581  
  7460.000000   1841335   1842490   1844059   1845963   1848043  
  7450.000000   1850114   1852022   1853670   1855051   1856217  
  7440.000000   1857267   1858283   1859326   1860406   1861519  
  7430.000000   1862653   1863824   1865066   1866432   1867968  
  7420.000000   1869690   1871580   1873583   1875628   1877650  
  7410.000000   1879603   1881476   1883281   1885047   1886791  
  7400.000000   1888523   1890228   1891880   1893452   1894934  
  7390.000000   1896338   1897703   1899080   1900512   1902025  
  7380.000000   1903605   1905212   1906789   1908291   1909701  
  7370.000000   1911046   1912384   1913787   1915303   1916949  
  7360.000000   1918690   1920465   1922199   1923837   1925355  
  7350.000000   1926761   1928084   1929353   1930580   1931769  
  7340.000000   1932911   1934009   1935080   1936155   1937263  
  7330.000000   1938419   1939611   1940807   1941963   1943054  
  7320.000000   1944078   1945070   1946084   1947182   1948407  
  7310.000000   1949777   1951281   1952886   1954544   1956203  
  7300.000000   1957803   1959283   1960574   1961627   1962415  
  7290.000000   1962960   1963320   1963583   1963831   1964121  
  7280.000000   1964458   1964810   1965120   1965350   1965497  
  7270.000000   1965610   1965769   1966062   1966543   1967221  
  7260.000000   1968055   1968964   1969875   1970723   1971493  
  7250.000000   1972188   1972847   1973499   1974179   1974901  
  7240.000000   1975690   1976557   1977538   1978655   1979944  
  7230.000000   1981414   1983069   1984886   1986836   1988874  
  7220.000000   1990964   1993060   1995144   1997193   1999223  
  7210.000000   2001242   2003289   2005383   2007553   2009796  
  7200.000000   2012122   2014527   2017041   2019695   2022544  
  7190.000000   2025612   2028896   2032322   2035787   2039153  
  7180.000000   2042331   2045285   2048085   2050855   2053764  
  7170.000000   2056934   2060435   2064232   2068248   2072365  
  7160.000000   2076508   2080636   2084770   2088932   2093148  
  7150.000000   2097393   2101634   2105812   2109917   2113965  
  7140.000000   2118042   2122228   2126612   2131213   2136026  
  7130.000000   2140988   2146058   2151189   2156394   2161681  
  7120.000000   2167088   2172614   2178262   2184002   2189836  
  7110.000000   2195768   2201846   2208107   2214599   2221304  
  7100.000000   2228188   2235152   2242111   2248972   2255703  
  7090.000000   2262300   2268813   2275301   2281842   2288492  
  7080.000000   2295306   2302305   2309500   2316861   2324341  
  7070.000000   2331858   2339334   2346689   2353880   2360891  
  7060.000000   2367745   2374481   2381155   2387814   2394510  
  7050.000000   2401288   2408193   2415261   2422506   2429916  
  7040.000000   2437440   2445006   2452527   2459940   2467202  
  7030.000000   2474316   2481298   2488181   2494974   2501677  
  7020.000000   2508265   2514729   2521061   2527286   2533423  
  7010.000000   2539499   2545501   2551410   2557176   2562778  
  7000.000000   2568197   2573468   2578628   2583735   2588814  
  6990.000000   2593890   2598950   2604000   2609029   2614053  
  6980.000000   2619055   2624016   2628866   2633538   2637956  
  6970.000000   2642102   2645996   2649724   2653374   2657022  
  6960.000000   2660671   2664279   2667741   2670981   2673947  
  6950.000000   2676673   2679232   2681735   2684251   2686825  
  6940.000000   2689430   2692026   2694558   2697005   2699353  
  6930.000000   2701614   2703780   2705842   2707771   2709563  
  6920.000000   2711230   2712829   2714419   2716058   2717753  
  6910.000000   2719477   2721161   2722752   2724219   2725588  
  6900.000000   2726905   2728227   2729565   2730888   2732118  
  6890.000000   2733180   2734028   2734686   2735233   2735783  
  6880.000000   2736430   2737232   2738182   2739242   2740354  
  6870.000000   2741478   2742592   2743697   2744787   2745845  
  6860.000000   2746838   2747739   2748535   2749244   2749906  
  6850.000000   2750561   2751225   2751884   2752497   2753023  
  6840.000000   2753444   2753789   2754112   2754488   2754960  
  6830.000000   2755540   2756188   2756855   2757491   2758079  
  6820.000000   2758618   2759122   2759578   2759953   2760184  
  6810.000000   2760220   2760043   2759692   2759255   2758838  
  6800.000000   2758526   2758351   2758284   2758259   2758201  
  6790.000000   2758071   2757868   2757633   2757412   2757244  
  6780.000000   2757132   2757062   2757009   2756956   2756897  
  6770.000000   2756837   2756768   2756665   2756485   2756185  
  6760.000000   2755743   2755171   2754514   2753835   2753186  
  6750.000000   2752597   2752060   2751558   2751074   2750614  
  6740.000000   2750199   2749861   2749609   2749420   2749236  
  6730.000000   2748985   2748610   2748088   2747438   2746711  
  6720.000000   2745955   2745201   2744441   2743656   2742818  
  6710.000000   2741928   2741010   2740113   2739275   2738515  
  6700.000000   2737811   2737117   2736371   2735533   2734582  
  6690.000000   2733529   2732394   2731203   2729972   2728715  
  6680.000000   2727443   2726181   2724955   2723794   2722701  
  6670.000000   2721661   2720630   2719561   2718415   2717189  
  6660.000000   2715900   2714592   2713297   2712025   2710755  
  6650.000000   2709445   2708046   2706533   2704900   2703175  
  6640.000000   2701386   2699570   2697742   2695915   2694091  
  6630.000000   2692284   2690502   2688758   2687044   2685341  
  6620.000000   2683609   2681811   2679926   2677959   2675940  
  6610.000000   2673912   2671912   2669953   2668027   2666109  
  6600.000000   2664180   2662241   2660316   2658446   2656665  
  6590.000000   2654991   2653411   2651896   2650407   2648914  
  6580.000000   2647404   2645875   2644333   2642773   2641187  
  6570.000000   2639559   2637885   2636174   2634457   2632770  
  6560.000000   2631146   2629597   2628114   2626664   2625214  
  6550.000000   2623736   2622220   2620674   2619114   2617559  
  6540.000000   2616028   2614534   2613098   2611740   2610482  
  6530.000000   2609335   2608292   2607321   2606378   2605410  
  6520.000000   2604379   2603272   2602100   2600892   2599679  
  6510.000000   2598483   2597315   2596175   2595065   2593994  
  6500.000000   2592981   2592041   2591180   2590381   2589607  
  6490.000000   2588810   2587952   2587014   2586005   2584954  
  6480.000000   2583901   2582877   2581898   2580964   2580063  
  6470.000000   2579183   2578310   2577437   2576554   2575644  
  6460.000000   2574692   2573680   2572603   2571474   2570320  
  6450.000000   2569177   2568084   2567064   2566128   2565270  
  6440.000000   2564479   2563741   2563042   2562366   2561698  
  6430.000000   2561018   2560308   2559560   2558785   2558008  
  6420.000000   2557268   2556599   2556019   2555518   2555063  
  6410.000000   2554604   2554100   2553524   2552877   2552179  
  6400.000000   2551464   2550759   2550086   2549450   2548849  
  6390.000000   2548277   2547733   2547214   2546721   2546250  
  6380.000000   2545798   2545361   2544939   2544535   2544155  
  6370.000000   2543796   2543447   2543082   2542668   2542173  
  6360.000000   2541579   2540890   2540131   2539342   2538563  
  6350.000000   2537825   2537139   2536501   2535889   2535282  
  6340.000000   2534651   2533979   2533250   2532465   2531624  
  6330.000000   2530742   2529835   2528921   2528007   2527093  
  6320.000000   2526159   2525183   2524138   2523016   2521820  
  6310.000000   2520583   2519339   2518132   2516982   2515895  
  6300.000000   2514853   2513829   2512785   2511693   2510525  
  6290.000000   2509265   2507900   2506432   2504864   2503225  
  6280.000000   2501546   2499874   2498238   2496663   2495135  
  6270.000000   2493628   2492094   2490492   2488785   2486963  
  6260.000000   2485025   2482991   2480878   2478709   2476507  
  6250.000000   2474302   2472124   2470006   2467962   2465988  
  6240.000000   2464051   2462104   2460095   2457993   2455797  
  6230.000000   2453538   2451264   2449028   2446857   2444756  
  6220.000000   2442701   2440662   2438611   2436540   2434456  
  6210.000000   2432376   2430311   2428260   2426210   2424139  
  6200.000000   2422031   2419883   2417713   2415547   2413418  
  6190.000000   2411352   2409366   2407462   2405634   2403866  
  6180.000000   2402135   2400411   2398666   2396874   2395026  
  6170.000000   2393131   2391224   2389350   2387557   2385874  
  6160.000000   2384304   2382815   2381360   2379886   2378360  
  6150.000000   2376774   2375147   2373517   2371921   2370384  
  6140.000000   2368917   2367506   2366136   2364785   2363440  
  6130.000000   2362094   2360750   2359413   2358097   2356815  
  6120.000000   2355584   2354415   2353314   2352267   2351256  
  6110.000000   2350248   2349221   2348157   2347065   2345966  
  6100.000000   2344895   2343879   2342937   2342065   2341257  
  6090.000000   2340490   2339761   2339064   2338414   2337815  
  6080.000000   2337281   2336803   2336383   2336009   2335692  
  6070.000000   2335437   2335269   2335197   2335235   2335374  
  6060.000000   2335607   2335908   2336270   2336678   2337136  
  6050.000000   2337638   2338194   2338797   2339455   2340166  
  6040.000000   2340949   2341810   2342768   2343815   2344946  
  6030.000000   2346129   2347343   2348566   2349799   2351053  
  6020.000000   2352358   2353730   2355185   2356709   2358280  
  6010.000000   2359861   2361428   2362960   2364458   2365924  
  6000.000000   2367374   2368810   2370245   2371678   2373124  
  5990.000000   2374591   2376095   2377640   2379230   2380853  
  5980.000000   2382502   2384168   2385862   2387605   2389429  
  5970.000000   2391359   2393410   2395568   2397809   2400089  
  5960.000000   2402378   2404650   2406906   2409153   2411411  
  5950.000000   2413691   2416006   2418354   2420745   2423183  
  5940.000000   2425685   2428266   2430938   2433700   2436538  
  5930.000000   2439427   2442330   2445215   2448054   2450831  
  5920.000000   2453536   2456164   2458714   2461184   2463569  
  5910.000000   2465864   2468064   2470167   2472178   2474112  
  5900.000000   2475997   2477872   2479783   2481774   2483872  
  5890.000000   2486090   2488409   2490802   2493228   2495655  
  5880.000000   2498061   2500434   2502765   2505041   2507244  
  5870.000000   2509342   2511313   2513145   2514853   2516471  
  5860.000000   2518057   2519660   2521328   2523085   2524946  
  5850.000000   2526918   2529010   2531231   2533593   2536092  
  5840.000000   2538707   2541392   2544095   2546762   2549360  
  5830.000000   2551876   2554330   2556748   2559160   2561585  
  5820.000000   2564025   2566473   2568920   2571359   2573784  
  5810.000000   2576192   2578563   2580883   2583110   2585232  
  5800.000000   2587222   2589106   2590894   2592634   2594331  
  5790.000000   2596000   2597592   2599066   2600328   2601309  
  5780.000000   2601912   2602082   2601758   2600933   2599616  
  5770.000000   2597877   2595810   2593552   2591231   2588971  
  5760.000000   2586845   2584899   2583123   2581507   2580023  
  5750.000000   2578666   2577434   2576337   2575375   2574536  
  5740.000000   2573799   2573133   2572521   2571946   2571412  
  5730.000000   2570912   2570450   2570004   2569565   2569114  
  5720.000000   2568659   2568210   2567802   2567459   2567201  
  5710.000000   2567024   2566914   2566848   2566812   2566801  
  5700.000000   2566828   2566904   2567034   2567211   2567413  
  5690.000000   2567620   2567815   2568002   2568188   2568393  
  5680.000000   2568618   2568856   2569071   2569225   2569271  
  5670.000000   2569177   2568911   2568463   2567812   2566955  
  5660.000000   2565883   2564617   2563190   2561665   2560108  
  5650.000000   2558586   2557134   2555763   2554446   2553155  
  5640.000000   2551859   2550555   2549261   2548011   2546838  
  5630.000000   2545759   2544770   2543850   2542970   2542102  
  5620.000000   2541233   2540354   2539466   2538567   2537657  
  5610.000000   2536734   2535807   2534888   2533997   2533154  
  5600.000000   2532364   2531621   2530904   2530188   2529455  
  5590.000000   2528697   2527920   2527135   2526344   2525542  
  5580.000000   2524709   2523824   2522870   2521848   2520772  
  5570.000000   2519669   2518564   2517472   2516392   2515312  
  5560.000000   2514212   2513078   2511900   2510683   2509438  
  5550.000000   2508187   2506949   2505752   2504617   2503565  
  5540.000000   2502603   2501721   2500892   2500079   2499240  
  5530.000000   2498349   2497396   2496395   2495371   2494351  
  5520.000000   2493348   2492357   2491359   2490332   2489259  
  5510.000000   2488138   2486977   2485794   2484600   2483407  
  5500.000000   2482216   2481035   2479871   2478743   2477663  
  5490.000000   2476633   2475628   2474612   2473532   2472348  
  5480.000000   2471038   2469612   2468098   2466539   2464962  
  5470.000000   2463382   2461789   2460168   2458496   2456772  
  5460.000000   2454993   2453171   2451302   2449386   2447407  
  5450.000000   2445365   2443268   2441148   2439048   2437007  
  5440.000000   2435052   2433182   2431381   2429622   2427886  
  5430.000000   2426165   2424466   2422789   2421136   2419488  
  5420.000000   2417834   2416166   2414511   2412910   2411436  
  5410.000000   2410138   2409053   2408164   2407442   2406830  
  5400.000000   2406301   2405832   2405442   2405140   2404956  
  5390.000000   2404883   2404927   2405065   2405313   2405674  
  5380.000000   2406189   2406871   2407745   2408782   2409968  
  5370.000000   2411248   2412619   2414053   2415591   2417233  
  5360.000000   2419037   2420997   2423163   2425526   2428153  
  5350.000000   2431053   2434314   2437941   2441996   2446439  
  5340.000000   2451297   2456507   2462115   2468085   2474490  
  5330.000000   2481295   2488554   2496198   2504261   2512673  
  5320.000000   2521512   2530769   2540586   2550979   2562090  
  5310.000000   2573890   2586455   2599696   2613656   2628249  
  5300.000000   2643553   2659529   2676303   2693871   2712372  
  5290.000000   2731782   2752178   2773455   2795583   2818386  
  5280.000000   2841808   2865725   2890190   2915216   2940950  
  5270.000000   2967432   2994697   3022605   3050962   3079492  
  5260.000000   3107971   3136269   3164376   3192386   3220385  
  5250.000000   3248428   3276408   3304166   3331403   3357929  
  5240.000000   3383533   3408244   3432061   3455173   3477625  
  5230.000000   3499553   3520872   3541575   3561470   3580523  
  5220.000000   3598591   3615755   3631996   3647501   3662302  
  5210.000000   3676570   3690257   3703414   3715876   3727617  
  5200.000000   3738470   3748477   3757583   3765935   3773541  
  5190.000000   3780550   3786931   3792762   3797961   3802585  
  5180.000000   3806568   3810000   3812844   3815189   3816979  
  5170.000000   3818264   3818972   3819153   3818770   3817911  
  5160.000000   3816569   3814829   3812664   3810120   3807148  
  5150.000000   3803794   3800043   3795975   3791607   3787018  
  5140.000000   3782199   3777188   3771945   3766491   3760805  
  5130.000000   3754931   3748879   3742701   3736404   3730022  
  5120.000000   3723546   3717002   3710391   3703750   3697094  
  5110.000000   3690453   3683829   3677227   3670634   3664049  
  5100.000000   3657471   3650916   3644396   3637930   3631523  
  5090.000000   3625176   3618879   3612626   3606410   3600231  
  5080.000000   3594086   3587972   3581873   3575776   3569664  
  5070.000000   3563530   3557372   3551203   3545027   3538853  
  5060.000000   3532668   3526458   3520194   3513862   3507445  
  5050.000000   3500950   3494385   3487764   3481097   3474390  
  5040.000000   3467645   3460866   3454062   3447248   3440447  
  5030.000000   3433675   3426950   3420278   3413666   3407116  
  5020.000000   3400645   3394266   3388010   3381892   3375940  
  5010.000000   3370151   3364535   3359073   3353771   3348609  
  5000.000000   3343603   3338738   3334038   3329489   3325120  
  4990.000000   3320921   3316938   3313174   3309688   3306483  
  4980.000000   3303613   3301056   3298841   3296929   3295344  
  4970.000000   3294054   3293104   3292478   3292232   3292345  
  4960.000000   3292862   3293743   3295017   3296640   3298647  
  4950.000000   3300998   3303733   3306809   3310257   3314024  
  4940.000000   3318137   3322548   3327295   3332346   3337749  
  4930.000000   3343476   3349564   3355973   3362727   3369782  
  4920.000000   3377154   3384801   3392737   3400918   3409351  
  4910.000000   3417995   3426857   3435911   3445175   3454635  
  4900.000000   3464304   3474158   3484178   3494320   3504538  
  4890.000000   3514783   3525009   3535183   3545269   3555252  
  4880.000000   3565103   3574814   3584352   3593712   3602851  
  4870.000000   3611758   3620379   3628698   3636662   3644271  
  4860.000000   3651494   3658362   3664873   3671078   3676986  
  4850.000000   3682647   3688065   3693282   3698296   3703146  
  4840.000000   3707829   3712380   3716793   3721099   3725290  
  4830.000000   3729399   3733424   3737396   3741309   3745172  
  4820.000000   3748955   3752643   3756196   3759605   3762856  
  4810.000000   3765973   3768979   3771915   3774801   3777660  
  4800.000000   3780483   3783271   3786003   3788682   3791305  
  4790.000000   3793888   3796434   3798956   3801446   3803903  
  4780.000000   3806307   3808654   3810927   3813132   3815256  
  4770.000000   3817306   3819269   3821150   3822933   3824624  
  4760.000000   3826204   3827678   3829022   3830233   3831285  
  4750.000000   3832175   3832886   3833435   3833821   3834076  
  4740.000000   3834207   3834242   3834181   3834040   3833807  
  4730.000000   3833492   3833082   3832582   3831980   3831277  
  4720.000000   3830460   3829533   3828493   3827356   3826140  
  4710.000000   3824880   3823609   3822364   3821173   3820058  
  4700.000000   3819024   3818074   3817196   3816380   3815615  
  4690.000000   3814895   3814214   3813572   3812967   3812391  
  4680.000000   3811833   3811270   3810680   3810035   3809320  
  4670.000000   3808522   3807655   3806732   3805789   3804854  
  4660.000000   3803967   3803152   3802441   3801849   3801399  
  4650.000000   3801098   3800959   3800981   3801161   3801483  
  4640.000000   3801931   3802481   3803119   3803825   3804590  
  4630.000000   3805401   3806245   3807104   3807959   3808784  
  4620.000000   3809555   3810244   3810828   3811286   3811596  
  4610.000000   3811749   3811743   3811599   3811343   3811031  
  4600.000000   3810709   3810434   3810226   3810101   3810027  
  4590.000000   3809971   3809873   3809693   3809383   3808933  
  4580.000000   3808330   3807587   3806711   3805724   3804634  
  4570.000000   3803465   3802222   3800929   3799586   3798206  
  4560.000000   3796778   3795298   3793746   3792116   3790391  
  4550.000000   3788574   3786659   3784654   3782564   3780399  
  4540.000000   3778175   3775915   3773651   3771412   3769236  
  4530.000000   3767137   3765135   3763216   3761386   3759617  
  4520.000000   3757930   3756316   3754828   3753478   3752339  
  4510.000000   3751423   3750804   3750484   3750540   3750969  
  4500.000000   3751854   3753187   3755053   3757432   3760403  
  4490.000000   3763941   3768129   3772945   3778475   3784688  
  4480.000000   3791651   3799308   3807695   3816732   3826440  
  4470.000000   3836739   3847648   3859092   3871085   3883545  
  4460.000000   3896464   3909750   3923373   3937234   3951293  
  4450.000000   3965458   3979688   3993915   4008118   4022273  
  4440.000000   4036383   4050463   4064519   4078569   4092583  
  4430.000000   4106557   4120416   4134138   4147625   4160860  
  4420.000000   4173744   4186269   4198331   4209922   4220923  
  4410.000000   4231314   4240969   4249864   4257886   4265032  
  4400.000000   4271230   4276526   4280909   4284488   4287316  
  4390.000000   4289549   4291282   4292682   4293845   4294908  
  4380.000000   4295934   4297008   4298163   4299455   4300918  
  4370.000000   4302612   4304591   4306916   4309643   4312801  
  4360.000000   4316408   4320445   4324876   4329647   4334684  
  4350.000000   4339929   4345302   4350777   4356307   4361919  
  4340.000000   4367607   4373406   4379259   4385069   4390588  
  4330.000000   4395490   4399341   4401733   4402331   4401008  
  4320.000000   4397862   4393264   4387742   4381935   4376405  
  4310.000000   4371616   4367790   4365004   4363139   4362039  
  4300.000000   4361488   4361333   4361441   4361733   4362153  
  4290.000000   4362647   4363189   4363736   4364295   4364859  
  4280.000000   4365462   4366127   4366879   4367741   4368714  
  4270.000000   4369822   4371046   4372380   4373745   4375031  
  4260.000000   4376032   4376519   4376228   4374961   4372600  
  4250.000000   4369178   4364849   4359893   4354626   4349375  
  4240.000000   4344384   4339826   4335748   4332137   4328906  
  4230.000000   4325964   4323208   4320561   4317964   4315377  
  4220.000000   4312792   4310197   4307632   4305121   4302743  
  4210.000000   4300544   4298608   4296965   4295662   4294683  
  4200.000000   4294023   4293625   4293459   4293456   4293593  
  4190.000000   4293816   4294131   4294511   4294989   4295551  
  4180.000000   4296241   4297041   4297992   4299073   4300335  
  4170.000000   4301776   4303480   4305476   4307867   4310685  
  4160.000000   4314015   4317846   4322220   4327083   4332453  
  4150.000000   4338266   4344549   4351250   4358418   4366015  
  4140.000000   4374103   4382654   4391733   4401305   4411425  
  4130.000000   4422036   4433162   4444726   4456739   4469132  
  4120.000000   4481934   4495116   4508739   4522801   4537364  
  4110.000000   4552412   4567970   4583980   4600414   4617177  
  4100.000000   4634214   4651428   4668775   4686201   4703701  
  4090.000000   4721271   4738933   4756700   4774580   4792572  
  4080.000000   4810658   4828834   4847072   4865375   4883700  
  4070.000000   4902033   4920288   4938419   4956306   4973905  
  4060.000000   4991113   5007927   5024267   5040156   5055513  
  4050.000000   5070371   5084657   5098440   5111670   5124444  
  4040.000000   5136697   5148485   5159672   5170254   5180051  
  4030.000000   5189061   5197131   5204296   5210455   5215660  
  4020.000000   5219808   5222983   5225179   5226521   5226989  
  4010.000000   5226764   5225944   5224568   5222396   5219505  
  4000.000000   5216245  
##END= 
