##TITLE= Sample 005 By ssteindl date Montag, November 26 2018
##JCAMP-DX= 4.24
##DATA TYPE= INFRARED SPECTRUM
##ORIGIN= Exported PE Spectrum Data File
##OWNER= Sandra Steindl
##DATE= 18/11/26
##TIME= 11:25:56.00
##SPECTROMETER/DATA SYSTEM= PERKIN-ELMER Frontier FT-IR/NIR IR
##INSTRUMENT PARAMETERS=
  APODIZATION=stark
  DETECTOR=INGAAS
##RESOLUTION= 16.000000
##DELTAX= -2.000000
##XUNITS= 1/CM
##YUNITS= A
##XFACTOR= 1.00
##YFACTOR= 0.00000011920928955078
##FIRSTX= 10000.00
##LASTX= 4000.00
##NPOINTS= 3001
##FIRSTY= 0.260516
##MAXY= 0.605706
##MINY= 0.209483
##XYDATA= (X++(Y..Y))
 10000.000000   2185365   2188454   2190702   2190866   2188516  
  9990.000000   2184040   2178107   2171628   2165878   2162196  
  9980.000000   2161310   2163135   2166808   2171039   2174486  
  9970.000000   2176249   2176202   2174904   2173325   2172327  
  9960.000000   2172347   2173231   2174432   2175336   2175580  
  9950.000000   2175264   2174834   2174973   2176191   2178785  
  9940.000000   2182586   2187166   2191818   2195770   2198273  
  9930.000000   2198661   2196543   2191744   2184532   2175445  
  9920.000000   2165359   2155194   2145786   2137711   2131202  
  9910.000000   2126359   2123157   2121815   2122601   2125947  
  9900.000000   2132023   2140640   2151036   2161916   2171752  
  9890.000000   2178932   2182331   2181263   2175931   2167064  
  9880.000000   2156044   2144420   2133741   2125272   2119733  
  9870.000000   2117424   2118062   2121248   2126386   2133109  
  9860.000000   2141052   2149926   2159199   2167987   2175108  
  9850.000000   2179142   2179057   2174312   2165431   2153660  
  9840.000000   2140905   2129047   2119565   2113251   2110113  
  9830.000000   2109783   2111613   2115207   2120241   2126622  
  9820.000000   2134096   2142236   2150335   2157523   2163008  
  9810.000000   2166155   2166690   2164557   2159982   2153352  
  9800.000000   2145282   2136625   2128408   2121727   2117411  
  9790.000000   2115785   2116433   2118272   2119837   2119740  
  9780.000000   2117136   2111967   2104982   2097435   2090727  
  9770.000000   2085971   2083841   2084491   2087731   2093120  
  9760.000000   2100076   2107884   2115702   2122652   2127965  
  9750.000000   2131214   2132448   2132188   2131258   2130427  
  9740.000000   2130167   2130420   2130734   2130460   2129094  
  9730.000000   2126516   2122979   2119029   2115151   2111677  
  9720.000000   2108652   2106039   2103853   2102326   2101825  
  9710.000000   2102672   2104868   2107996   2111226   2113674  
  9700.000000   2114644   2114010   2112177   2109962   2108241  
  9690.000000   2107556   2108001   2109104   2110144   2110253  
  9680.000000   2108748   2105166   2099376   2091577   2082327  
  9670.000000   2072606   2063738   2057268   2054568   2056449  
  9660.000000   2062773   2072360   2083236   2093141   2100218  
  9650.000000   2103478   2103075   2100043   2095919   2092107  
  9640.000000   2089537   2088493   2088772   2089985   2091757  
  9630.000000   2093929   2096386   2099050   2101630   2103749  
  9620.000000   2104928   2104812   2103215   2100143   2095739  
  9610.000000   2090187   2083717   2076647   2069440   2062772  
  9600.000000   2057399   2054010   2052935   2053964   2056341  
  9590.000000   2058924   2060586   2060502   2058454   2054765  
  9580.000000   2050205   2045649   2041912   2039537   2038845  
  9570.000000   2039938   2042796   2047257   2052966   2059334  
  9560.000000   2065554   2070749   2074194   2075518   2074863  
  9550.000000   2072766   2070044   2067420   2065374   2063992  
  9540.000000   2063059   2062270   2061365   2060344   2059365  
  9530.000000   2058771   2058838   2059769   2061522   2063875  
  9520.000000   2066406   2068583   2069888   2069887   2068417  
  9510.000000   2065563   2061740   2057533   2053597   2050461  
  9500.000000   2048376   2047286   2046861   2046720   2046593  
  9490.000000   2046501   2046701   2047545   2049243   2051680  
  9480.000000   2054412   2056765   2058096   2057988   2056409  
  9470.000000   2053725   2050569   2047681   2045664   2044929  
  9460.000000   2045571   2047480   2050278   2053444   2056287  
  9450.000000   2058094   2058230   2056310   2052347   2046743  
  9440.000000   2040246   2033660   2027655   2022512   2018148  
  9430.000000   2014231   2010440   2006703   2003261   2000656  
  9420.000000   1999439   1999987   2002244   2005751   2009771  
  9410.000000   2013520   2016437   2018243   2018999   2018907  
  9400.000000   2018238   2017140   2015709   2013957   2011998  
  9390.000000   2009984   2008153   2006670   2005574   2004757  
  9380.000000   2003989   2003089   2001995   2000915   2000274  
  9370.000000   2000607   2002333   2005559   2009981   2014944  
  9360.000000   2019606   2023172   2025116   2025323   2024127  
  9350.000000   2022180   2020233   2018901   2018467   2018854  
  9340.000000   2019655   2020321   2020333   2019409   2017576  
  9330.000000   2015168   2012638   2010394   2008639   2007348  
  9320.000000   2006330   2005332   2004163   2002778   2001294  
  9310.000000   1999971   1999066   1998797   1999229   2000335  
  9300.000000   2001978   2003978   2006094   2008027   2009438  
  9290.000000   2009978   2009393   2007558   2004580   2000733  
  9280.000000   1996440   1992114   1988085   1984517   1981439  
  9270.000000   1978823   1976648   1975002   1974014   1973855  
  9260.000000   1974578   1976114   1978208   1980519   1982688  
  9250.000000   1984433   1985617   1986201   1986258   1985841  
  9240.000000   1985022   1983819   1982277   1980425   1978300  
  9230.000000   1975943   1973387   1970726   1968069   1965634  
  9220.000000   1963656   1962445   1962223   1963070   1964787  
  9210.000000   1966925   1968885   1970034   1969900   1968241  
  9200.000000   1965157   1960986   1956283   1951603   1947472  
  9190.000000   1944257   1942175   1941256   1941362   1942240  
  9180.000000   1943560   1945016   1946365   1947520   1948550  
  9170.000000   1949646   1951010   1952723   1954691   1956631  
  9160.000000   1958194   1959058   1959087   1958343   1957094  
  9150.000000   1955670   1954367   1953296   1952388   1951436  
  9140.000000   1950223   1948623   1946649   1944481   1942409  
  9130.000000   1940796   1939964   1940174   1941539   1944028  
  9120.000000   1947407   1951260   1955026   1958133   1960134  
  9110.000000   1960834   1960333   1958999   1957349   1955848  
  9100.000000   1954769   1954091   1953584   1952875   1951635  
  9090.000000   1949695   1947080   1943985   1940629   1937282  
  9080.000000   1934186   1931632   1929909   1929336   1930167  
  9070.000000   1932450   1935893   1939853   1943487   1945930  
  9060.000000   1946593   1945308   1942462   1938777   1935119  
  9050.000000   1932166   1930271   1929405   1929246   1929405  
  9040.000000   1929602   1929799   1930151   1930901   1932196  
  9030.000000   1933992   1936006   1937778   1938802   1938702  
  9020.000000   1937391   1935086   1932281   1929622   1927758  
  9010.000000   1927147   1927890   1929725   1932088   1934254  
  9000.000000   1935542   1935497   1934075   1931585   1928601  
  8990.000000   1925732   1923464   1922003   1921272   1921031  
  8980.000000   1921051   1921263   1921770   1922854   1924774  
  8970.000000   1927651   1931272   1935162   1938678   1941183  
  8960.000000   1942239   1941691   1939756   1936849   1933482  
  8950.000000   1930077   1926923   1924145   1921722   1919613  
  8940.000000   1917795   1916353   1915389   1915053   1915402  
  8930.000000   1916412   1917887   1919538   1921028   1922045  
  8920.000000   1922376   1921933   1920794   1919133   1917185  
  8910.000000   1915164   1913248   1911540   1910097   1908913  
  8900.000000   1907957   1907147   1906361   1905433   1904195  
  8890.000000   1902532   1900468   1898183   1896027   1894415  
  8880.000000   1893730   1894170   1895679   1897945   1900504  
  8870.000000   1902887   1904785   1906103   1906980   1907660  
  8860.000000   1908395   1909292   1910302   1911228   1911843  
  8850.000000   1911986   1911633   1910920   1910081   1909392  
  8840.000000   1909061   1909211   1909833   1910830   1912011  
  8830.000000   1913148   1913997   1914354   1914100   1913241  
  8820.000000   1911926   1910408   1908999   1907954   1907405  
  8810.000000   1907310   1907493   1907714   1907780   1907638  
  8800.000000   1907381   1907236   1907431   1908137   1909362  
  8790.000000   1910975   1912736   1914383   1915705   1916593  
  8780.000000   1917039   1917100   1916837   1916286   1915444  
  8770.000000   1914291   1912830   1911097   1909205   1907291  
  8760.000000   1905525   1904028   1902868   1902028   1901423  
  8750.000000   1900938   1900465   1899990   1899600   1899522  
  8740.000000   1900032   1901406   1903798   1907161   1911210  
  8730.000000   1915433   1919240   1922040   1923455   1923317  
  8720.000000   1921765   1919118   1915848   1912425   1909280  
  8710.000000   1906750   1905090   1904500   1905071   1906819  
  8700.000000   1909565   1913031   1916787   1920408   1923511  
  8690.000000   1925882   1927507   1928502   1929073   1929335  
  8680.000000   1929332   1928943   1928026   1926451   1924248  
  8670.000000   1921621   1918923   1916581   1914961   1914306  
  8660.000000   1914647   1915860   1917693   1919884   1922206  
  8650.000000   1924506   1926705   1928761   1930660   1932373  
  8640.000000   1933877   1935129   1936117   1936844   1937351  
  8630.000000   1937701   1937977   1938266   1938631   1939116  
  8620.000000   1939707   1940347   1940929   1941334   1941464  
  8610.000000   1941277   1940809   1940174   1939533   1939050  
  8600.000000   1938834   1938924   1939289   1939863   1940592  
  8590.000000   1941463   1942511   1943779   1945276   1946921  
  8580.000000   1948544   1949911   1950811   1951139   1950971  
  8570.000000   1950546   1950221   1950337   1951110   1952539  
  8560.000000   1954404   1956333   1957926   1958897   1959146  
  8550.000000   1958805   1958155   1957567   1957354   1957727  
  8540.000000   1958731   1960276   1962175   1964181   1966026  
  8530.000000   1967442   1968188   1968089   1967085   1965277  
  8520.000000   1962953   1960531   1958486   1957216   1956932  
  8510.000000   1957604   1958956   1960591   1962099   1963219  
  8500.000000   1963878   1964201   1964425   1964777   1965375  
  8490.000000   1966170   1966989   1967597   1967824   1967615  
  8480.000000   1967077   1966414   1965853   1965569   1965624  
  8470.000000   1965971   1966483   1967020   1967488   1967863  
  8460.000000   1968181   1968514   1968920   1969423   1969998  
  8450.000000   1970593   1971167   1971700   1972216   1972752  
  8440.000000   1973336   1973956   1974546   1975012   1975267  
  8430.000000   1975277   1975096   1974858   1974738   1974886  
  8420.000000   1975355   1976083   1976895   1977584   1977982  
  8410.000000   1978053   1977900   1977742   1977811   1978262  
  8400.000000   1979106   1980190   1981256   1982034   1982345  
  8390.000000   1982152   1981556   1980742   1979900   1979181  
  8380.000000   1978652   1978335   1978226   1978349   1978732  
  8370.000000   1979397   1980287   1981271   1982134   1982658  
  8360.000000   1982676   1982147   1981174   1979951   1978703  
  8350.000000   1977585   1976654   1975862   1975114   1974328  
  8340.000000   1973482   1972637   1971886   1971324   1970985  
  8330.000000   1970856   1970889   1971035   1971274   1971599  
  8320.000000   1972005   1972433   1972761   1972827   1972479  
  8310.000000   1971668   1970488   1969174   1968028   1967332  
  8300.000000   1967236   1967700   1968486   1969237   1969588  
  8290.000000   1969274   1968207   1966471   1964306   1962025  
  8280.000000   1959948   1958322   1957285   1956849   1956915  
  8270.000000   1957312   1957833   1958301   1958609   1958757  
  8260.000000   1958834   1958976   1959297   1959822   1960473  
  8250.000000   1961068   1961404   1961321   1960797   1959950  
  8240.000000   1958996   1958179   1957644   1957422   1957384  
  8230.000000   1957344   1957118   1956630   1955921   1955130  
  8220.000000   1954392   1953779   1953224   1952558   1951546  
  8210.000000   1950023   1947952   1945486   1942908   1940553  
  8200.000000   1938684   1937411   1936658   1936191   1935707  
  8190.000000   1934918   1933647   1931858   1929655   1927236  
  8180.000000   1924840   1922697   1920991   1919844   1919315  
  8170.000000   1919390   1919984   1920925   1921969   1922821  
  8160.000000   1923203   1922906   1921869   1920180   1918093  
  8150.000000   1915943   1914075   1912738   1912016   1911818  
  8140.000000   1911906   1912007   1911878   1911413   1910632  
  8130.000000   1909684   1908746   1907970   1907403   1906975  
  8120.000000   1906521   1905835   1904747   1903177   1901159  
  8110.000000   1898846   1896455   1894226   1892354   1890951  
  8100.000000   1890013   1889426   1888990   1888458   1887623  
  8090.000000   1886353   1884660   1882677   1880635   1878783  
  8080.000000   1877315   1876315   1875748   1875497   1875423  
  8070.000000   1875436   1875514   1875711   1876079   1876627  
  8060.000000   1877252   1877753   1877879   1877408   1876253  
  8050.000000   1874474   1872297   1870001   1867849   1865987  
  8040.000000   1864425   1863068   1861781   1860486   1859194  
  8030.000000   1858028   1857148   1856697   1856711   1857113  
  8020.000000   1857725   1858331   1858751   1858871   1858684  
  8010.000000   1858232   1857595   1856835   1855989   1855075  
  8000.000000   1854108   1853126   1852183   1851340   1850638  
  7990.000000   1850079   1849615   1849170   1848657   1848011  
  7980.000000   1847201   1846235   1845142   1843963   1842743  
  7970.000000   1841537   1840413   1839465   1838788   1838462  
  7960.000000   1838502   1838845   1839338   1839780   1839967  
  7950.000000   1839764   1839136   1838156   1836971   1835737  
  7940.000000   1834571   1833502   1832492   1831459   1830343  
  7930.000000   1829135   1827897   1826741   1825779   1825085  
  7920.000000   1824666   1824471   1824421   1824449   1824528  
  7910.000000   1824669   1824913   1825278   1825754   1826274  
  7900.000000   1826752   1827090   1827234   1827161   1826899  
  7890.000000   1826485   1825959   1825356   1824707   1824073  
  7880.000000   1823541   1823238   1823280   1823747   1824614  
  7870.000000   1825750   1826917   1827841   1828275   1828084  
  7860.000000   1827273   1825999   1824506   1823071   1821907  
  7850.000000   1821131   1820733   1820604   1820576   1820471  
  7840.000000   1820142   1819498   1818509   1817200   1815638  
  7830.000000   1813924   1812185   1810556   1809178   1808170  
  7820.000000   1807619   1807555   1807939   1808672   1809601  
  7810.000000   1810556   1811377   1811956   1812252   1812293  
  7800.000000   1812168   1811973   1811790   1811639   1811487  
  7790.000000   1811250   1810835   1810185   1809300   1808259  
  7780.000000   1807179   1806201   1805418   1804871   1804515  
  7770.000000   1804255   1803969   1803558   1802965   1802191  
  7760.000000   1801281   1800310   1799347   1798451   1797654  
  7750.000000   1796965   1796372   1795850   1795361   1794859  
  7740.000000   1794299   1793639   1792858   1791956   1790959  
  7730.000000   1789909   1788860   1787858   1786941   1786135  
  7720.000000   1785455   1784911   1784505   1784231   1784061  
  7710.000000   1783952   1783843   1783675   1783406   1783029  
  7700.000000   1782571   1782085   1781627   1781229   1780882  
  7690.000000   1780531   1780097   1779501   1778702   1777713  
  7680.000000   1776602   1775468   1774410   1773491   1772723  
  7670.000000   1772068   1771459   1770838   1770177   1769495  
  7660.000000   1768851   1768317   1767950   1767760   1767710  
  7650.000000   1767713   1767673   1767505   1767171   1766683  
  7640.000000   1766100   1765499   1764958   1764521   1764196  
  7630.000000   1763950   1763730   1763474   1763137   1762694  
  7620.000000   1762146   1761512   1760830   1760147   1759522  
  7610.000000   1759013   1758680   1758560   1758664   1758956  
  7600.000000   1759369   1759803   1760158   1760349   1760338  
  7590.000000   1760138   1759816   1759468   1759204   1759106  
  7580.000000   1759213   1759511   1759935   1760389   1760768  
  7570.000000   1760984   1760984   1760765   1760369   1759867  
  7560.000000   1759344   1758865   1758475   1758178   1757959  
  7550.000000   1757782   1757623   1757472   1757345   1757272  
  7540.000000   1757288   1757418   1757676   1758049   1758523  
  7530.000000   1759064   1759648   1760239   1760813   1761334  
  7520.000000   1761784   1762150   1762455   1762749   1763113  
  7510.000000   1763635   1764383   1765386   1766619   1767998  
  7500.000000   1769413   1770737   1771878   1772780   1773446  
  7490.000000   1773909   1774230   1774472   1774701   1774980  
  7480.000000   1775371   1775939   1776743   1777826   1779197  
  7470.000000   1780808   1782558   1784296   1785867   1787129  
  7460.000000   1788015   1788530   1788782   1788935   1789193  
  7450.000000   1789723   1790632   1791937   1793574   1795424  
  7440.000000   1797354   1799265   1801112   1802912   1804715  
  7430.000000   1806569   1808491   1810445   1812361   1814146  
  7420.000000   1815735   1817103   1818281   1819335   1820344  
  7410.000000   1821370   1822442   1823561   1824709   1825879  
  7400.000000   1827075   1828318   1829632   1831026   1832485  
  7390.000000   1833976   1835460   1836908   1838320   1839720  
  7380.000000   1841146   1842634   1844201   1845843   1847546  
  7370.000000   1849291   1851071   1852880   1854711   1856534  
  7360.000000   1858299   1859937   1861389   1862622   1863660  
  7350.000000   1864574   1865469   1866453   1867595   1868916  
  7340.000000   1870377   1871921   1873487   1875052   1876618  
  7330.000000   1878222   1879897   1881655   1883470   1885282  
  7320.000000   1887008   1888563   1889877   1890909   1891655  
  7310.000000   1892158   1892490   1892764   1893095   1893599  
  7300.000000   1894341   1895345   1896559   1897893   1899218  
  7290.000000   1900424   1901430   1902213   1902793   1903218  
  7280.000000   1903533   1903768   1903935   1904040   1904103  
  7270.000000   1904165   1904294   1904556   1905002   1905635  
  7260.000000   1906414   1907257   1908076   1908800   1909408  
  7250.000000   1909922   1910414   1910961   1911644   1912505  
  7240.000000   1913561   1914780   1916122   1917514   1918894  
  7230.000000   1920189   1921364   1922388   1923291   1924120  
  7220.000000   1924976   1925955   1927164   1928657   1930463  
  7210.000000   1932551   1934877   1937373   1940002   1942736  
  7200.000000   1945581   1948541   1951621   1954788   1958003  
  7190.000000   1961188   1964293   1967261   1970091   1972797  
  7180.000000   1975439   1978072   1980767   1983565   1986507  
  7170.000000   1989597   1992842   1996215   1999696   2003242  
  7160.000000   2006826   2010418   2014018   2017633   2021311  
  7150.000000   2025101   2029076   2033280   2037752   2042468  
  7140.000000   2047381   2052390   2057406   2062328   2067122  
  7130.000000   2071775   2076347   2080904   2085549   2090347  
  7120.000000   2095354   2100563   2105957   2111484   2117111  
  7110.000000   2122810   2128588   2134453   2140433   2146526  
  7100.000000   2152735   2159021   2165365   2171724   2178098  
  7090.000000   2184474   2190878   2197318   2203816   2210370  
  7080.000000   2216987   2223659   2230398   2237212   2244131  
  7070.000000   2251166   2258330   2265594   2272911   2280197  
  7060.000000   2287377   2294384   2301205   2307877   2314497  
  7050.000000   2321188   2328068   2335209   2342602   2350166  
  7040.000000   2357758   2365235   2372485   2379476   2386248  
  7030.000000   2392902   2399546   2406264   2413072   2419929  
  7020.000000   2426743   2433419   2439878   2446091   2452065  
  7010.000000   2457851   2463493   2469050   2474556   2480050  
  7000.000000   2485547   2491072   2496619   2502179   2507704  
  6990.000000   2513152   2518456   2523588   2528522   2533287  
  6980.000000   2537906   2542432   2546890   2551305   2555668  
  6970.000000   2559974   2564186   2568275   2572182   2575864  
  6960.000000   2579265   2582376   2585208   2587843   2590377  
  6950.000000   2592937   2595601   2598410   2601320   2604257  
  6940.000000   2607108   2609796   2612270   2614534   2616603  
  6930.000000   2618505   2620246   2621828   2623254   2624565  
  6920.000000   2625830   2627157   2628633   2630316   2632182  
  6910.000000   2634153   2636101   2637923   2639550   2640989  
  6900.000000   2642294   2643544   2644797   2646076   2647357  
  6890.000000   2648597   2649759   2650830   2651823   2652772  
  6880.000000   2653703   2654631   2655551   2656458   2657346  
  6870.000000   2658233   2659142   2660095   2661095   2662125  
  6860.000000   2663142   2664110   2664998   2665805   2666544  
  6850.000000   2667238   2667900   2668532   2669125   2669672  
  6840.000000   2670173   2670649   2671116   2671589   2672056  
  6830.000000   2672494   2672867   2673159   2673376   2673561  
  6820.000000   2673766   2674044   2674411   2674853   2675318  
  6810.000000   2675751   2676104   2676359   2676517   2676595  
  6800.000000   2676607   2676557   2676441   2676258   2676016  
  6790.000000   2675742   2675462   2675203   2674968   2674746  
  6780.000000   2674512   2674253   2673965   2673668   2673378  
  6770.000000   2673105   2672829   2672518   2672132   2671657  
  6760.000000   2671112   2670556   2670057   2669673   2669409  
  6750.000000   2669221   2669023   2668722   2668250   2667587  
  6740.000000   2666759   2665823   2664840   2663857   2662895  
  6730.000000   2661966   2661079   2660258   2659529   2658920  
  6720.000000   2658432   2658040   2657689   2657317   2656866  
  6710.000000   2656308   2655640   2654882   2654059   2653193  
  6700.000000   2652296   2651374   2650436   2649494   2648557  
  6690.000000   2647629   2646695   2645733   2644711   2643618  
  6680.000000   2642455   2641256   2640056   2638891   2637761  
  6670.000000   2636644   2635492   2634260   2632919   2631475  
  6660.000000   2629950   2628388   2626815   2625250   2623689  
  6650.000000   2622127   2620562   2619005   2617467   2615954  
  6640.000000   2614446   2612908   2611293   2609569   2607728  
  6630.000000   2605805   2603854   2601940   2600103   2598360  
  6620.000000   2596688   2595058   2593436   2591813   2590196  
  6610.000000   2588600   2587030   2585474   2583896   2582250  
  6600.000000   2580498   2578618   2576621   2574535   2572402  
  6590.000000   2570270   2568179   2566169   2564267   2562495  
  6580.000000   2560857   2559334   2557888   2556464   2555012  
  6570.000000   2553499   2551924   2550315   2548718   2547172  
  6560.000000   2545697   2544278   2542879   2541453   2539966  
  6550.000000   2538405   2536781   2535120   2533454   2531807  
  6540.000000   2530199   2528645   2527160   2525757   2524445  
  6530.000000   2523214   2522043   2520896   2519744   2518569  
  6520.000000   2517384   2516215   2515101   2514059   2513084  
  6510.000000   2512141   2511185   2510179   2509120   2508034  
  6500.000000   2506974   2505995   2505129   2504377   2503709  
  6490.000000   2503082   2502457   2501813   2501142   2500443  
  6480.000000   2499705   2498900   2497994   2496957   2495784  
  6470.000000   2494503   2493170   2491853   2490610   2489473  
  6460.000000   2488442   2487497   2486604   2485740   2484886  
  6450.000000   2484034   2483180   2482317   2481439   2480543  
  6440.000000   2479636   2478730   2477845   2476987   2476156  
  6430.000000   2475334   2474511   2473682   2472872   2472119  
  6420.000000   2471471   2470954   2470561   2470244   2469933  
  6410.000000   2469557   2469082   2468512   2467898   2467308  
  6400.000000   2466798   2466386   2466048   2465729   2465366  
  6390.000000   2464917   2464373   2463756   2463109   2462472  
  6380.000000   2461872   2461315   2460791   2460288   2459797  
  6370.000000   2459320   2458862   2458431   2458025   2457634  
  6360.000000   2457239   2456822   2456366   2455861   2455303  
  6350.000000   2454695   2454040   2453347   2452621   2451866  
  6340.000000   2451078   2450255   2449382   2448456   2447478  
  6330.000000   2446466   2445448   2444462   2443531   2442669  
  6320.000000   2441856   2441061   2440237   2439354   2438394  
  6310.000000   2437366   2436288   2435184   2434058   2432899  
  6300.000000   2431676   2430361   2428932   2427392   2425758  
  6290.000000   2424069   2422358   2420661   2418995   2417374  
  6280.000000   2415798   2414264   2412755   2411253   2409724  
  6270.000000   2408144   2406487   2404751   2402940   2401077  
  6260.000000   2399177   2397249   2395279   2393247   2391127  
  6250.000000   2388915   2386629   2384315   2382021   2379795  
  6240.000000   2377655   2375595   2373582   2371583   2369567  
  6230.000000   2367529   2365475   2363423   2361384   2359361  
  6220.000000   2357344   2355320   2353276   2351207   2349114  
  6210.000000   2346997   2344854   2342674   2340452   2338182  
  6200.000000   2335877   2333559   2331260   2329010   2326831  
  6190.000000   2324733   2322717   2320779   2318919   2317133  
  6180.000000   2315413   2313743   2312096   2310438   2308744  
  6170.000000   2307000   2305221   2303435   2301681   2299989  
  6160.000000   2298370   2296816   2295305   2293812   2292324  
  6150.000000   2290837   2289356   2287883   2286414   2284932  
  6140.000000   2283419   2281863   2280274   2278669   2277082  
  6130.000000   2275535   2274038   2272581   2271148   2269723  
  6120.000000   2268305   2266912   2265575   2264321   2263167  
  6110.000000   2262103   2261109   2260150   2259208   2258271  
  6100.000000   2257351   2256458   2255611   2254809   2254053  
  6090.000000   2253328   2252635   2251973   2251358   2250798  
  6080.000000   2250306   2249871   2249488   2249136   2248815  
  6070.000000   2248523   2248282   2248105   2248019   2248023  
  6060.000000   2248123   2248299   2248542   2248833   2249171  
  6050.000000   2249544   2249959   2250414   2250925   2251498  
  6040.000000   2252159   2252924   2253814   2254828   2255964  
  6030.000000   2257194   2258492   2259824   2261173   2262522  
  6020.000000   2263871   2265214   2266552   2267876   2269186  
  6010.000000   2270479   2271766   2273055   2274360   2275679  
  6000.000000   2277010   2278334   2279643   2280932   2282225  
  5990.000000   2283555   2284969   2286501   2288171   2289967  
  5980.000000   2291861   2293804   2295761   2297705   2299634  
  5970.000000   2301560   2303513   2305516   2307597   2309766  
  5960.000000   2312029   2314369   2316764   2319171   2321552  
  5950.000000   2323867   2326101   2328257   2330373   2332500  
  5940.000000   2334697   2337008   2339450   2342009   2344646  
  5930.000000   2347315   2349973   2352593   2355160   2357671  
  5920.000000   2360123   2362508   2364817   2367040   2369175  
  5910.000000   2371230   2373222   2375170   2377089   2378993  
  5900.000000   2380891   2382798   2384734   2386730   2388810  
  5890.000000   2390991   2393269   2395621   2398009   2400393  
  5880.000000   2402743   2405041   2407285   2409475   2411614  
  5870.000000   2413693   2415708   2417652   2419538   2421390  
  5860.000000   2423246   2425141   2427103   2429136   2431233  
  5850.000000   2433375   2435549   2437750   2439985   2442267  
  5840.000000   2444609   2447017   2449487   2452013   2454587  
  5830.000000   2457204   2459857   2462537   2465223   2467889  
  5820.000000   2470501   2473034   2475475   2477828   2480102  
  5810.000000   2482315   2484465   2486548   2488535   2490420  
  5800.000000   2492183   2493855   2495447   2497009   2498544  
  5790.000000   2500068   2501534   2502908   2504107   2505073  
  5780.000000   2505722   2506002   2505849   2505242   2504168  
  5770.000000   2502672   2500821   2498734   2496527   2494324  
  5760.000000   2492207   2490234   2488416   2486758   2485244  
  5750.000000   2483875   2482646   2481554   2480585   2479709  
  5740.000000   2478894   2478108   2477345   2476610   2475938  
  5730.000000   2475351   2474873   2474493   2474193   2473933  
  5720.000000   2473690   2473444   2473203   2472977   2472785  
  5710.000000   2472633   2472525   2472457   2472434   2472463  
  5700.000000   2472557   2472725   2472960   2473243   2473543  
  5690.000000   2473832   2474093   2474335   2474575   2474842  
  5680.000000   2475141   2475463   2475760   2475980   2476057  
  5670.000000   2475945   2475607   2475037   2474231   2473208  
  5660.000000   2471986   2470607   2469117   2467586   2466074  
  5650.000000   2464640   2463304   2462067   2460893   2459747  
  5640.000000   2458590   2457414   2456224   2455043   2453893  
  5630.000000   2452784   2451713   2450668   2449642   2448633  
  5620.000000   2447658   2446732   2445871   2445074   2444327  
  5610.000000   2443608   2442893   2442171   2441443   2440719  
  5600.000000   2440010   2439319   2438639   2437955   2437250  
  5590.000000   2436511   2435736   2434929   2434097   2433249  
  5580.000000   2432386   2431514   2430635   2429757   2428880  
  5570.000000   2428004   2427115   2426190   2425207   2424151  
  5560.000000   2423022   2421839   2420634   2419441   2418285  
  5550.000000   2417174   2416103   2415058   2414027   2413008  
  5540.000000   2412004   2411021   2410059   2409110   2408161  
  5530.000000   2407198   2406220   2405236   2404264   2403324  
  5520.000000   2402425   2401560   2400706   2399836   2398921  
  5510.000000   2397948   2396910   2395812   2394661   2393464  
  5500.000000   2392228   2390967   2389697   2388444   2387224  
  5490.000000   2386043   2384882   2383712   2382488   2381182  
  5480.000000   2379780   2378302   2376781   2375256   2373751  
  5470.000000   2372269   2370787   2369276   2367703   2366056  
  5460.000000   2364333   2362544   2360698   2358800   2356849  
  5450.000000   2354849   2352810   2350754   2348707   2346691  
  5440.000000   2344711   2342760   2340821   2338880   2336943  
  5430.000000   2335026   2333158   2331353   2329618   2327931  
  5420.000000   2326280   2324651   2323067   2321567   2320213  
  5410.000000   2319038   2318061   2317239   2316527   2315857  
  5400.000000   2315210   2314577   2314007   2313538   2313226  
  5390.000000   2313076   2313093   2313241   2313514   2313896  
  5380.000000   2314416   2315082   2315923   2316917   2318059  
  5370.000000   2319298   2320626   2322010   2323479   2325024  
  5360.000000   2326688   2328459   2330381   2332447   2334732  
  5350.000000   2337262   2340142   2343401   2347118   2351262  
  5340.000000   2355855   2360822   2366181   2371879   2377968  
  5330.000000   2384412   2391271   2398492   2406126   2414119  
  5320.000000   2422553   2431415   2440832   2450807   2461462  
  5310.000000   2472755   2484759   2497387   2510693   2524610  
  5300.000000   2539232   2554541   2570677   2587650   2605595  
  5290.000000   2624485   2644377   2665149   2686746   2708975  
  5280.000000   2731767   2754998   2778720   2802960   2827877  
  5270.000000   2853525   2879958   2907054   2934632   2962426  
  5260.000000   2990215   3017862   3045347   3072744   3100122  
  5250.000000   3127520   3154822   3181864   3208348   3234091  
  5240.000000   3258895   3282798   3305821   3328168   3349907  
  5230.000000   3371191   3391954   3412194   3431716   3450469  
  5220.000000   3468286   3485217   3501221   3516461   3530962  
  5210.000000   3544892   3558216   3570999   3583096   3594494  
  5200.000000   3605038   3614772   3623635   3631760   3639143  
  5190.000000   3645912   3652019   3657528   3662348   3666533  
  5180.000000   3670023   3672921   3675208   3676993   3678241  
  5170.000000   3679017   3679262   3679034   3678300   3677153  
  5160.000000   3675590   3673697   3671442   3668861   3665886  
  5150.000000   3662537   3658775   3654657   3650189   3645449  
  5140.000000   3640445   3635230   3629787   3624150   3618312  
  5130.000000   3612319   3606184   3599962   3593663   3587320  
  5120.000000   3580925   3574494   3568016   3561510   3554976  
  5110.000000   3548434   3541885   3535341   3528800   3522273  
  5100.000000   3515764   3509287   3502847   3496452   3490098  
  5090.000000   3483785   3477509   3471280   3465106   3459003  
  5080.000000   3452974   3447010   3441080   3435147   3429161  
  5070.000000   3423091   3416915   3410637   3404271   3397840  
  5060.000000   3391359   3384842   3378291   3371714   3365119  
  5050.000000   3358523   3351944   3345400   3338895   3332425  
  5040.000000   3325970   3319508   3313022   3306500   3299950  
  5030.000000   3293383   3286827   3280303   3273843   3267464  
  5020.000000   3261190   3255030   3248999   3243091   3237312  
  5010.000000   3231642   3226086   3220630   3215296   3210084  
  5000.000000   3205038   3200166   3195513   3191074   3186884  
  4990.000000   3182925   3179231   3175785   3172628   3169743  
  4980.000000   3167169   3164879   3162905   3161213   3159843  
  4970.000000   3158776   3158070   3157716   3157769   3158201  
  4960.000000   3159041   3160234   3161793   3163666   3165883  
  4950.000000   3168413   3171307   3174541   3178161   3182127  
  4940.000000   3186464   3191117   3196104   3201370   3206935  
  4930.000000   3212754   3218856   3225210   3231853   3238769  
  4920.000000   3246000   3253527   3261374   3269502   3277907  
  4910.000000   3286538   3295389   3304422   3313646   3323042  
  4900.000000   3332616   3342341   3352199   3362147   3372150  
  4890.000000   3382174   3392192   3402190   3412147   3422048  
  4880.000000   3431859   3441559   3451101   3460469   3469620  
  4870.000000   3478548   3487210   3495601   3503674   3511430  
  4860.000000   3518839   3525928   3532696   3539200   3545450  
  4850.000000   3551498   3557339   3563003   3568468   3573756  
  4840.000000   3578850   3583777   3588527   3593129   3597572  
  4830.000000   3601880   3606043   3610088   3614016   3617855  
  4820.000000   3621604   3625281   3628871   3632376   3635778  
  4810.000000   3639087   3642299   3645436   3648507   3651531  
  4800.000000   3654504   3657431   3660294   3663091   3665809  
  4790.000000   3668456   3671031   3673552   3676020   3678448  
  4780.000000   3680833   3683184   3685494   3687774   3690012  
  4770.000000   3692215   3694357   3696433   3698405   3700260  
  4760.000000   3701968   3703527   3704922   3706169   3707260  
  4750.000000   3708213   3709016   3709678   3710177   3710518  
  4740.000000   3710680   3710676   3710497   3710166   3709683  
  4730.000000   3709073   3708336   3707491   3706531   3705467  
  4720.000000   3704293   3703023   3701659   3700225   3698738  
  4710.000000   3697232   3695732   3694267   3692854   3691507  
  4700.000000   3690225   3689008   3687848   3686745   3685697  
  4690.000000   3684707   3683775   3682895   3682053   3681222  
  4680.000000   3680371   3679464   3678478   3677396   3676228  
  4670.000000   3674986   3673703   3672403   3671120   3669870  
  4660.000000   3668676   3667551   3666522   3665612   3664857  
  4650.000000   3664283   3663919   3663766   3663821   3664052  
  4640.000000   3664421   3664879   3665386   3665906   3666421  
  4630.000000   3666922   3667412   3667894   3668375   3668849  
  4620.000000   3669306   3669722   3670070   3670318   3670438  
  4610.000000   3670414   3670241   3669934   3669514   3669025  
  4600.000000   3668502   3667988   3667506   3667083   3666715  
  4590.000000   3666406   3666132   3665879   3665613   3665309  
  4580.000000   3664930   3664449   3663834   3663071   3662146  
  4570.000000   3661067   3659841   3658494   3657037   3655496  
  4560.000000   3653878   3652199   3650465   3648692   3646890  
  4550.000000   3645078   3643262   3641451   3639639   3637818  
  4540.000000   3635976   3634103   3632202   3630276   3628347  
  4530.000000   3626428   3624550   3622716   3620957   3619272  
  4520.000000   3617700   3616244   3614956   3613840   3612957  
  4510.000000   3612302   3611938   3611857   3612139   3612784  
  4500.000000   3613889   3615456   3617578   3620239   3623513  
  4490.000000   3627366   3631871   3636996   3642830   3649348  
  4480.000000   3656636   3664652   3673447   3682945   3693159  
  4470.000000   3703993   3715445   3727419   3739911   3752831  
  4460.000000   3766167   3779828   3793786   3807949   3822278  
  4450.000000   3836691   3851148   3865592   3879996   3894334  
  4440.000000   3908590   3922760   3936822   3950782   3964600  
  4430.000000   3978281   3991766   4005061   4018090   4030859  
  4420.000000   4043281   4055360   4066995   4078184   4088815  
  4410.000000   4098870   4108219   4116835   4124586   4131459  
  4400.000000   4137367   4142354   4146411   4149653   4152138  
  4390.000000   4154020   4155382   4156371   4157061   4157571  
  4380.000000   4157960   4158324   4158721   4159241   4159951  
  4370.000000   4160938   4162272   4164017   4166222   4168907  
  4360.000000   4172084   4175730   4179818   4184299   4189114  
  4350.000000   4194201   4199476   4204888   4210365   4215900  
  4340.000000   4221470   4227102   4232761   4238383   4243773  
  4330.000000   4248656   4252639   4255333   4256396   4255674  
  4320.000000   4253221   4249357   4244565   4239448   4234544  
  4310.000000   4230303   4226945   4224547   4222990   4222120  
  4300.000000   4221724   4221650   4221769   4222009   4222323  
  4290.000000   4222676   4223056   4223442   4223849   4224279  
  4280.000000   4224760   4225307   4225928   4226637   4227426  
  4270.000000   4228321   4229310   4230398   4231509   4232534  
  4260.000000   4233264   4233462   4232866   4231282   4228604  
  4250.000000   4224882   4220286   4215104   4209652   4204255  
  4240.000000   4199148   4194507   4190382   4186772   4183595  
  4230.000000   4180761   4178153   4175667   4173213   4170717  
  4220.000000   4168150   4165492   4162785   4160063   4157414  
  4210.000000   4154892   4152584   4150524   4148767   4147313  
  4200.000000   4146179   4145334   4144765   4144415   4144254  
  4190.000000   4144215   4144283   4144408   4144610   4144865  
  4180.000000   4145222   4145666   4146254   4146977   4147907  
  4170.000000   4149066   4150559   4152437   4154821   4157745  
  4160.000000   4161288   4165421   4170160   4175421   4181197  
  4150.000000   4187402   4194048   4201069   4208504   4216307  
  4140.000000   4224533   4233147   4242218   4251716   4261708  
  4130.000000   4272152   4283091   4294469   4306317   4318589  
  4120.000000   4331334   4344535   4358257   4372486   4387261  
  4110.000000   4402530   4418280   4434421   4450907   4467641  
  4100.000000   4484584   4501663   4518863   4536150   4553533  
  4090.000000   4571013   4588610   4606333   4624192   4642193  
  4080.000000   4660325   4678592   4696967   4715452   4733988  
  4070.000000   4752546   4771021   4789351   4807407   4825145  
  4060.000000   4842467   4859381   4875822   4891829   4907334  
  4050.000000   4922377   4936882   4950907   4964382   4977377  
  4040.000000   4989801   5001693   5012907   5023451   5033170  
  4030.000000   5042099   5050122   5057306   5063561   5068936  
  4020.000000   5073301   5076702   5079090   5080551   5081030  
  4010.000000   5080702   5079665   5077972   5075398   5072046  
  4000.000000   5068300  
##END= 
