##TITLE= Sample 003 By ssteindl date Montag, November 26 2018
##JCAMP-DX= 4.24
##DATA TYPE= INFRARED SPECTRUM
##ORIGIN= Exported PE Spectrum Data File
##OWNER= Sandra Steindl
##DATE= 18/11/26
##TIME= 11:24:04.00
##SPECTROMETER/DATA SYSTEM= PERKIN-ELMER Frontier FT-IR/NIR IR
##INSTRUMENT PARAMETERS=
  APODIZATION=stark
  DETECTOR=INGAAS
##RESOLUTION= 16.000000
##DELTAX= -2.000000
##XUNITS= 1/CM
##YUNITS= A
##XFACTOR= 1.00
##YFACTOR= 0.00000011920928955078
##FIRSTX= 10000.00
##LASTX= 4000.00
##NPOINTS= 3001
##FIRSTY= 0.271480
##MAXY= 0.634357
##MINY= 0.211176
##XYDATA= (X++(Y..Y))
 10000.000000   2277342   2267159   2256842   2246557   2237157  
  9990.000000   2229394   2223480   2219091   2216098   2214419  
  9980.000000   2213910   2214036   2214198   2213711   2212161  
  9970.000000   2209524   2206396   2203720   2202506   2203379  
  9960.000000   2206466   2211259   2216945   2222533   2227235  
  9950.000000   2230454   2231925   2231546   2229421   2225812  
  9940.000000   2221213   2216422   2212409   2210236   2210616  
  9930.000000   2213813   2219383   2226458   2233896   2240685  
  9920.000000   2246049   2249505   2250770   2249604   2245858  
  9910.000000   2239480   2230790   2220521   2209868   2200218  
  9900.000000   2192831   2188481   2187245   2188573   2191476  
  9890.000000   2194944   2198142   2200631   2202275   2203182  
  9880.000000   2203590   2203805   2204243   2205325   2207473  
  9870.000000   2210821   2215178   2219858   2223914   2226356  
  9860.000000   2226516   2224322   2220253   2215270   2210367  
  9850.000000   2206390   2203773   2202651   2202931   2204478  
  9840.000000   2207063   2210326   2213563   2215788   2215887  
  9830.000000   2213015   2207034   2198691   2189559   2181491  
  9820.000000   2175989   2173600   2173747   2175015   2175824  
  9810.000000   2175130   2172872   2169932   2167629   2167070  
  9800.000000   2168548   2171437   2174485   2176412   2176586  
  9790.000000   2175232   2173409   2172385   2173058   2175479  
  9780.000000   2178768   2181538   2182447   2180841   2177007  
  9770.000000   2172063   2167493   2164583   2163956   2165425  
  9760.000000   2168088   2170678   2172006   2171273   2168335  
  9750.000000   2163602   2157934   2152319   2147650   2144533  
  9740.000000   2143185   2143463   2144947   2147131   2149571  
  9730.000000   2152046   2154551   2157264   2160356   2163859  
  9720.000000   2167527   2170845   2173154   2173823   2172518  
  9710.000000   2169298   2164697   2159545   2154778   2151154  
  9700.000000   2149032   2148295   2148345   2148359   2147520  
  9690.000000   2145375   2141999   2138032   2134467   2132320  
  9680.000000   2132254   2134317   2137894   2141879   2145073  
  9670.000000   2146587   2146178   2144294   2141886   2140019  
  9660.000000   2139462   2140420   2142497   2144876   2146655  
  9650.000000   2147158   2146137   2143784   2140580   2137105  
  9640.000000   2133846   2131117   2129062   2127674   2126878  
  9630.000000   2126482   2126233   2125788   2124832   2123206  
  9620.000000   2121013   2118694   2116882   2116260   2117263  
  9610.000000   2119975   2124040   2128819   2133554   2137592  
  9600.000000   2140534   2142226   2142751   2142212   2140699  
  9590.000000   2138171   2134576   2129906   2124348   2118331  
  9580.000000   2112476   2107542   2104179   2102895   2103801  
  9570.000000   2106708   2111019   2115930   2120523   2123978  
  9560.000000   2125764   2125700   2124009   2121130   2117620  
  9550.000000   2113915   2110304   2106893   2103701   2100795  
  9540.000000   2098282   2096403   2095308   2095085   2095559  
  9530.000000   2096413   2097223   2097609   2097361   2096373  
  9520.000000   2094651   2092089   2088547   2083812   2077889  
  9510.000000   2071093   2064201   2058275   2054410   2053357  
  9500.000000   2055246   2059533   2065145   2070860   2075676  
  9490.000000   2079095   2081195   2082438   2083428   2084583  
  9480.000000   2086070   2087755   2089401   2090762   2091694  
  9470.000000   2092153   2092116   2091596   2090580   2089178  
  9460.000000   2087586   2086153   2085186   2084858   2085026  
  9450.000000   2085270   2084973   2083596   2080887   2077043  
  9440.000000   2072680   2068607   2065526   2063743   2063071  
  9430.000000   2062946   2062676   2061724   2059876   2057305  
  9420.000000   2054481   2052006   2050425   2050059   2050934  
  9410.000000   2052765   2055046   2057146   2058454   2058513  
  9400.000000   2057165   2054633   2051502   2048568   2046573  
  9390.000000   2045924   2046542   2047860   2049090   2049462  
  9380.000000   2048570   2046436   2043499   2040370   2037585  
  9370.000000   2035423   2033880   2032845   2032267   2032314  
  9360.000000   2033296   2035550   2039164   2043871   2048993  
  9350.000000   2053667   2057085   2058778   2058694   2057131  
  9340.000000   2054540   2051324   2047745   2043926   2039967  
  9330.000000   2036028   2032348   2029160   2026532   2024309  
  9320.000000   2022086   2019416   2016010   2011991   2007914  
  9310.000000   2004600   2002816   2002941   2004837   2007844  
  9300.000000   2011062   2013618   2015010   2015195   2014557  
  9290.000000   2013660   2013004   2012864   2013278   2014122  
  9280.000000   2015251   2016534   2017904   2019246   2020374  
  9270.000000   2020999   2020803   2019558   2017241   2014122  
  9260.000000   2010712   2007637   2005434   2004445   2004758  
  9250.000000   2006258   2008660   2011594   2014631   2017363  
  9240.000000   2019399   2020447   2020317   2019051   2016937  
  9230.000000   2014510   2012404   2011125   2010908   2011615  
  9220.000000   2012806   2013813   2013930   2012619   2009676  
  9210.000000   2005303   2000010   1994506   1989532   1985769  
  9200.000000   1983705   1983560   1985222   1988283   1992106  
  9190.000000   1995934   1999016   2000777   2000975   1999740  
  9180.000000   1997537   1994985   1992710   1991153   1990482  
  9170.000000   1990557   1991011   1991436   1991545   1991271  
  9160.000000   1990710   1990056   1989432   1988851   1988135  
  9150.000000   1987015   1985253   1982795   1979882   1976963  
  9140.000000   1974581   1973140   1972759   1973189   1973860  
  9130.000000   1974114   1973452   1971731   1969227   1966543  
  9120.000000   1964415   1963432   1963822   1965372   1967514  
  9110.000000   1969514   1970721   1970752   1969611   1967627  
  9100.000000   1965347   1963320   1961949   1961353   1961361  
  9090.000000   1961581   1961581   1961020   1959804   1958118  
  9080.000000   1956406   1955202   1954935   1955757   1957471  
  9070.000000   1959583   1961485   1962674   1962972   1962583  
  9060.000000   1962012   1961881   1962651   1964457   1967017  
  9050.000000   1969772   1972108   1973579   1974069   1973763  
  9040.000000   1973042   1972251   1971532   1970797   1969771  
  9030.000000   1968196   1965950   1963221   1960459   1958271  
  9020.000000   1957183   1957496   1959156   1961751   1964575  
  9010.000000   1966831   1967852   1967230   1964940   1961350  
  9000.000000   1957179   1953298   1950478   1949226   1949653  
  8990.000000   1951474   1954061   1956698   1958778   1959978  
  8980.000000   1960244   1959751   1958757   1957435   1955818  
  8970.000000   1953793   1951277   1948261   1944916   1941531  
  8960.000000   1938445   1935928   1934079   1932856   1932132  
  8950.000000   1931803   1931831   1932223   1932972   1933951  
  8940.000000   1934914   1935526   1935538   1934884   1933785  
  8930.000000   1932675   1932065   1932329   1933544   1935468  
  8920.000000   1937628   1939527   1940813   1941389   1941390  
  8910.000000   1941055   1940586   1940036   1939314   1938267  
  8900.000000   1936805   1934985   1933023   1931224   1929855  
  8890.000000   1929060   1928798   1928916   1929197   1929471  
  8880.000000   1929639   1929673   1929589   1929399   1929092  
  8870.000000   1928652   1928080   1927413   1926724   1926086  
  8860.000000   1925579   1925220   1925016   1924910   1924844  
  8850.000000   1924705   1924364   1923657   1922470   1920781  
  8840.000000   1918764   1916813   1915501   1915432   1917013  
  8830.000000   1920318   1924969   1930261   1935303   1939339  
  8820.000000   1941950   1943171   1943415   1943240   1943130  
  8810.000000   1943263   1943515   1943487   1942740   1940957  
  8800.000000   1938101   1934429   1930389   1926545   1923390  
  8790.000000   1921325   1920528   1921014   1922601   1924973  
  8780.000000   1927706   1930337   1932458   1933794   1934270  
  8770.000000   1933995   1933223   1932241   1931317   1930610  
  8760.000000   1930206   1930103   1930286   1930700   1931257  
  8750.000000   1931799   1932106   1931944   1931145   1929701  
  8740.000000   1927823   1925914   1924455   1923844   1924242  
  8730.000000   1925541   1927397   1929389   1931168   1932556  
  8720.000000   1933581   1934376   1935092   1935747   1936244  
  8710.000000   1936371   1935954   1934928   1933413   1931689  
  8700.000000   1930114   1929043   1928729   1929306   1930761  
  8690.000000   1932967   1935677   1938549   1941183   1943172  
  8680.000000   1944212   1944173   1943182   1941603   1939962  
  8670.000000   1938787   1938450   1939067   1940482   1942375  
  8660.000000   1944370   1946180   1947647   1948744   1949508  
  8650.000000   1949966   1950112   1949892   1949298   1948369  
  8640.000000   1947275   1946217   1945406   1944981   1944990  
  8630.000000   1945420   1946213   1947370   1948921   1950945  
  8620.000000   1953461   1956394   1959552   1962636   1965333  
  8610.000000   1967361   1968583   1968974   1968653   1967800  
  8600.000000   1966650   1965445   1964417   1963796   1963749  
  8590.000000   1964400   1965738   1967665   1969949   1972342  
  8580.000000   1974597   1976545   1978079   1979141   1979698  
  8570.000000   1979694   1979085   1977854   1976104   1974051  
  8560.000000   1972026   1970380   1969389   1969167   1969630  
  8550.000000   1970552   1971634   1972641   1973442   1974055  
  8540.000000   1974589   1975185   1975944   1976888   1977978  
  8530.000000   1979129   1980265   1981320   1982245   1982988  
  8520.000000   1983495   1983719   1983640   1983294   1982781  
  8510.000000   1982238   1981798   1981543   1981477   1981539  
  8500.000000   1981628   1981667   1981628   1981556   1981546  
  8490.000000   1981705   1982113   1982794   1983709   1984753  
  8480.000000   1985790   1986668   1987279   1987560   1987543  
  8470.000000   1987335   1987122   1987098   1987415   1988120  
  8460.000000   1989140   1990299   1991396   1992279   1992928  
  8450.000000   1993445   1994008   1994772   1995789   1996975  
  8440.000000   1998129   1999047   1999611   1999890   2000103  
  8430.000000   2000554   2001472   2002926   2004758   2006644  
  8420.000000   2008195   2009101   2009232   2008652   2007561  
  8410.000000   2006207   2004806   2003496   2002350   2001415  
  8400.000000   2000749   2000426   2000483   2000900   2001554  
  8390.000000   2002270   2002854   2003197   2003312   2003334  
  8380.000000   2003462   2003845   2004529   2005400   2006242  
  8370.000000   2006809   2006932   2006579   2005855   2004965  
  8360.000000   2004124   2003518   2003248   2003353   2003804  
  8350.000000   2004550   2005502   2006533   2007457   2008055  
  8340.000000   2008121   2007531   2006300   2004586   2002669  
  8330.000000   2000853   1999398   1998423   1997898   1997687  
  8320.000000   1997608   1997536   1997416   1997298   1997279  
  8310.000000   1997472   1997933   1998652   1999544   2000478  
  8300.000000   2001311   2001894   2002105   2001849   2001085  
  8290.000000   1999840   1998211   1996367   1994508   1992841  
  8280.000000   1991514   1990590   1990025   1989703   1989465  
  8270.000000   1989173   1988723   1988086   1987284   1986387  
  8260.000000   1985481   1984642   1983934   1983389   1983012  
  8250.000000   1982765   1982576   1982350   1981996   1981470  
  8240.000000   1980784   1980018   1979292   1978729   1978396  
  8230.000000   1978282   1978270   1978191   1977863   1977171  
  8220.000000   1976096   1974726   1973211   1971719   1970355  
  8210.000000   1969144   1968006   1966820   1965467   1963900  
  8200.000000   1962160   1960366   1958668   1957184   1955941  
  8190.000000   1954865   1953788   1952530   1950958   1949066  
  8180.000000   1946980   1944929   1943167   1941880   1941123  
  8170.000000   1940780   1940603   1940268   1939499   1938121  
  8160.000000   1936144   1933721   1931126   1928649   1926548  
  8150.000000   1924986   1924023   1923625   1923690   1924085  
  8140.000000   1924652   1925264   1925794   1926178   1926392  
  8130.000000   1926468   1926472   1926459   1926441   1926333  
  8120.000000   1925963   1925095   1923513   1921107   1917942  
  8110.000000   1914286   1910548   1907197   1904616   1903017  
  8100.000000   1902364   1902413   1902770   1903022   1902843  
  8090.000000   1902081   1900777   1899126   1897407   1895879  
  8080.000000   1894731   1894015   1893676   1893560   1893484  
  8070.000000   1893293   1892897   1892310   1891618   1890969  
  8060.000000   1890500   1890295   1890342   1890516   1890617  
  8050.000000   1890400   1889667   1888304   1886333   1883903  
  8040.000000   1881261   1878699   1876479   1874800   1873745  
  8030.000000   1873300   1873350   1873734   1874263   1874766  
  8020.000000   1875105   1875184   1874965   1874436   1873634  
  8010.000000   1872598   1871397   1870084   1868729   1867393  
  8000.000000   1866143   1865048   1864166   1863548   1863209  
  7990.000000   1863139   1863277   1863533   1863790   1863930  
  7980.000000   1863856   1863507   1862874   1862000   1860973  
  7970.000000   1859908   1858925   1858120   1857549   1857214  
  7960.000000   1857069   1857024   1856967   1856791   1856408  
  7950.000000   1855773   1854884   1853788   1852575   1851363  
  7940.000000   1850280   1849435   1848897   1848666   1848668  
  7930.000000   1848760   1848769   1848531   1847948   1847019  
  7920.000000   1845849   1844624   1843555   1842819   1842505  
  7910.000000   1842601   1843002   1843562   1844135   1844616  
  7900.000000   1844956   1845137   1845162   1845013   1844661  
  7890.000000   1844059   1843188   1842061   1840752   1839376  
  7880.000000   1838068   1836962   1836153   1835706   1835634  
  7870.000000   1835922   1836507   1837295   1838142   1838881  
  7860.000000   1839342   1839385   1838962   1838109   1836972  
  7850.000000   1835728   1834557   1833558   1832744   1832044  
  7840.000000   1831362   1830643   1829910   1829290   1828947  
  7830.000000   1829045   1829641   1830681   1831978   1833279  
  7820.000000   1834334   1834956   1835069   1834694   1833929  
  7810.000000   1832888   1831683   1830391   1829070   1827771  
  7800.000000   1826545   1825453   1824537   1823829   1823304  
  7790.000000   1822927   1822629   1822363   1822094   1821824  
  7780.000000   1821570   1821340   1821129   1820884   1820538  
  7770.000000   1820002   1819220   1818168   1816888   1815475  
  7760.000000   1814058   1812785   1811773   1811110   1810811  
  7750.000000   1810845   1811123   1811537   1811962   1812288  
  7740.000000   1812418   1812267   1811774   1810884   1809581  
  7730.000000   1807881   1805862   1803653   1801425   1799361  
  7720.000000   1797615   1796287   1795395   1794899   1794703  
  7710.000000   1794712   1794830   1794988   1795126   1795183  
  7700.000000   1795103   1794824   1794320   1793591   1792704  
  7690.000000   1791740   1790793   1789911   1789092   1788280  
  7680.000000   1787411   1786460   1785470   1784566   1783897  
  7670.000000   1783596   1783693   1784115   1784684   1785197  
  7660.000000   1785489   1785498   1785283   1784965   1784682  
  7650.000000   1784479   1784308   1784006   1783387   1782305  
  7640.000000   1780737   1778809   1776778   1774976   1773710  
  7630.000000   1773204   1773520   1774568   1776115   1777845  
  7620.000000   1779429   1780584   1781132   1781021   1780338  
  7610.000000   1779267   1778048   1776907   1776009   1775422  
  7600.000000   1775133   1775073   1775164   1775345   1775577  
  7590.000000   1775832   1776061   1776182   1776095   1775707  
  7580.000000   1774996   1774025   1772969   1772053   1771505  
  7570.000000   1771472   1771976   1772913   1774088   1775292  
  7560.000000   1776362   1777220   1777869   1778362   1778764  
  7550.000000   1779121   1779453   1779759   1780047   1780327  
  7540.000000   1780628   1780956   1781300   1781606   1781801  
  7530.000000   1781816   1781622   1781251   1780795   1780374  
  7520.000000   1780114   1780101   1780373   1780907   1781650  
  7510.000000   1782523   1783458   1784394   1785301   1786164  
  7500.000000   1787001   1787848   1788760   1789793   1790991  
  7490.000000   1792362   1793883   1795486   1797085   1798584  
  7480.000000   1799906   1800999   1801845   1802445   1802829  
  7470.000000   1803043   1803166   1803292   1803539   1804012  
  7460.000000   1804785   1805869   1807206   1808675   1810141  
  7450.000000   1811488   1812669   1813709   1814701   1815766  
  7440.000000   1817021   1818530   1820311   1822324   1824512  
  7430.000000   1826800   1829120   1831399   1833566   1835549  
  7420.000000   1837290   1838763   1839998   1841086   1842164  
  7410.000000   1843382   1844859   1846643   1848695   1850894  
  7400.000000   1853074   1855070   1856761   1858108   1859153  
  7390.000000   1860015   1860852   1861829   1863075   1864661  
  7380.000000   1866580   1868754   1871049   1873317   1875430  
  7370.000000   1877312   1878951   1880391   1881716   1883014  
  7360.000000   1884353   1885764   1887242   1888762   1890292  
  7350.000000   1891815   1893325   1894839   1896377   1897961  
  7340.000000   1899605   1901315   1903081   1904875   1906647  
  7330.000000   1908323   1909823   1911081   1912078   1912863  
  7320.000000   1913550   1914304   1915285   1916614   1918309  
  7310.000000   1920295   1922401   1924437   1926230   1927693  
  7300.000000   1928828   1929713   1930456   1931147   1931830  
  7290.000000   1932495   1933105   1933618   1934025   1934357  
  7280.000000   1934670   1935039   1935516   1936131   1936873  
  7270.000000   1937716   1938626   1939577   1940558   1941560  
  7260.000000   1942577   1943579   1944526   1945358   1946029  
  7250.000000   1946506   1946810   1946994   1947168   1947453  
  7240.000000   1947984   1948854   1950117   1951758   1953721  
  7230.000000   1955906   1958212   1960534   1962809   1964986  
  7220.000000   1967058   1969020   1970900   1972720   1974535  
  7210.000000   1976393   1978368   1980511   1982868   1985434  
  7200.000000   1988178   1991022   1993888   1996698   1999418  
  7190.000000   2002042   2004618   2007200   2009863   2012645  
  7180.000000   2015576   2018640   2021822   2025082   2028411  
  7170.000000   2031792   2035241   2038764   2042387   2046112  
  7160.000000   2049949   2053877   2057890   2061958   2066078  
  7150.000000   2070237   2074461   2078769   2083208   2087801  
  7140.000000   2092572   2097502   2102572   2107730   2112957  
  7130.000000   2118227   2123557   2128951   2134435   2139996  
  7120.000000   2145626   2151283   2156960   2162650   2168398  
  7110.000000   2174250   2180268   2186467   2192846   2199344  
  7100.000000   2205909   2212482   2219062   2225669   2232369  
  7090.000000   2239204   2246199   2253317   2260497   2267649  
  7080.000000   2274718   2281683   2288585   2295490   2302486  
  7070.000000   2309626   2316937   2324387   2331923   2339464  
  7060.000000   2346948   2354314   2361539   2368616   2375571  
  7050.000000   2382450   2389318   2396245   2403289   2410488  
  7040.000000   2417847   2425341   2432930   2440573   2448227  
  7030.000000   2455859   2463430   2470894   2478189   2485263  
  7020.000000   2492082   2498667   2505087   2511459   2517898  
  7010.000000   2524492   2531241   2538079   2544860   2551443  
  7000.000000   2557700   2563596   2569154   2574470   2579635  
  6990.000000   2584734   2589789   2594798   2599716   2604523  
  6980.000000   2609205   2613795   2618321   2622829   2627317  
  6970.000000   2631785   2636178   2640462   2644585   2648539  
  6960.000000   2652321   2655967   2659514   2663011   2666474  
  6950.000000   2669907   2673262   2676485   2679497   2682257  
  6940.000000   2684749   2687031   2689188   2691342   2693574  
  6930.000000   2695932   2698385   2700867   2703278   2705557  
  6920.000000   2707672   2709659   2711570   2713469   2715381  
  6910.000000   2717303   2719195   2721020   2722751   2724393  
  6900.000000   2725962   2727481   2728950   2730357   2731677  
  6890.000000   2732904   2734055   2735188   2736362   2737633  
  6880.000000   2739008   2740458   2741915   2743315   2744605  
  6870.000000   2745781   2746864   2747897   2748902   2749886  
  6860.000000   2750828   2751703   2752497   2753214   2753872  
  6850.000000   2754494   2755087   2755642   2756140   2756577  
  6840.000000   2756968   2757362   2757820   2758392   2759092  
  6830.000000   2759895   2760742   2761572   2762341   2763046  
  6820.000000   2763709   2764366   2765034   2765704   2766339  
  6810.000000   2766899   2767357   2767717   2768008   2768271  
  6800.000000   2768526   2768774   2768984   2769127   2769180  
  6790.000000   2769154   2769078   2768996   2768930   2768877  
  6780.000000   2768803   2768672   2768451   2768146   2767786  
  6770.000000   2767419   2767084   2766799   2766551   2766316  
  6760.000000   2766066   2765791   2765499   2765203   2764910  
  6750.000000   2764611   2764275   2763874   2763389   2762830  
  6740.000000   2762231   2761642   2761106   2760650   2760270  
  6730.000000   2759946   2759644   2759341   2759016   2758661  
  6720.000000   2758270   2757841   2757374   2756878   2756371  
  6710.000000   2755873   2755394   2754916   2754392   2753752  
  6700.000000   2752927   2751885   2750646   2749295   2747953  
  6690.000000   2746748   2745760   2745013   2744450   2743976  
  6680.000000   2743476   2742861   2742077   2741123   2740017  
  6670.000000   2738798   2737500   2736156   2734793   2733438  
  6660.000000   2732110   2730820   2729554   2728283   2726957  
  6650.000000   2725543   2724016   2722396   2720719   2719040  
  6640.000000   2717396   2715804   2714247   2712695   2711108  
  6630.000000   2709471   2707780   2706058   2704332   2702630  
  6620.000000   2700966   2699351   2697781   2696249   2694735  
  6610.000000   2693212   2691634   2689955   2688136   2686168  
  6600.000000   2684075   2681922   2679788   2677749   2675845  
  6590.000000   2674072   2672383   2670713   2669001   2667214  
  6580.000000   2665352   2663441   2661516   2659608   2657731  
  6570.000000   2655888   2654080   2652308   2650585   2648921  
  6560.000000   2647322   2645783   2644286   2642809   2641339  
  6550.000000   2639873   2638423   2637001   2635619   2634270  
  6540.000000   2632943   2631619   2630292   2628966   2627662  
  6530.000000   2626403   2625207   2624074   2622990   2621928  
  6520.000000   2620865   2619783   2618682   2617568   2616451  
  6510.000000   2615340   2614242   2613166   2612124   2611136  
  6500.000000   2610222   2609394   2608648   2607961   2607293  
  6490.000000   2606598   2605837   2604985   2604038   2603007  
  6480.000000   2601912   2600777   2599629   2598496   2597403  
  6470.000000   2596377   2595434   2594579   2593796   2593057  
  6460.000000   2592327   2591580   2590798   2589982   2589141  
  6450.000000   2588286   2587419   2586533   2585620   2584672  
  6440.000000   2583700   2582720   2581759   2580837   2579960  
  6430.000000   2579117   2578290   2577458   2576619   2575783  
  6420.000000   2574981   2574243   2573594   2573042   2572581  
  6410.000000   2572188   2571841   2571515   2571192   2570855  
  6400.000000   2570495   2570106   2569695   2569279   2568888  
  6390.000000   2568549   2568282   2568087   2567940   2567802  
  6380.000000   2567633   2567408   2567126   2566807   2566481  
  6370.000000   2566168   2565865   2565544   2565163   2564688  
  6360.000000   2564102   2563424   2562692   2561958   2561259  
  6350.000000   2560615   2560018   2559451   2558886   2558306  
  6340.000000   2557697   2557060   2556393   2555699   2554979  
  6330.000000   2554238   2553482   2552724   2551970   2551223  
  6320.000000   2550473   2549712   2548924   2548114   2547284  
  6310.000000   2546450   2545613   2544767   2543879   2542912  
  6300.000000   2541827   2540612   2539274   2537844   2536354  
  6290.000000   2534830   2533270   2531661   2529983   2528237  
  6280.000000   2526439   2524636   2522866   2521159   2519501  
  6270.000000   2517854   2516157   2514368   2512472   2510496  
  6260.000000   2508490   2506510   2504583   2502704   2500834  
  6250.000000   2498923   2496937   2494873   2492754   2490627  
  6240.000000   2488529   2486482   2484478   2482499   2480518  
  6230.000000   2478526   2476524   2474524   2472536   2470562  
  6220.000000   2468588   2466598   2464578   2462525   2460447  
  6210.000000   2458358   2456266   2454173   2452066   2449934  
  6200.000000   2447774   2445597   2443430   2441305   2439252  
  6190.000000   2437281   2435389   2433554   2431754   2429967  
  6180.000000   2428181   2426393   2424611   2422844   2421104  
  6170.000000   2419402   2417752   2416159   2414624   2413135  
  6160.000000   2411673   2410212   2408731   2407216   2405673  
  6150.000000   2404117   2402571   2401049   2399557   2398088  
  6140.000000   2396632   2395179   2393735   2392308   2390912  
  6130.000000   2389554   2388229   2386923   2385623   2384320  
  6120.000000   2383027   2381764   2380558   2379419   2378341  
  6110.000000   2377294   2376246   2375162   2374039   2372890  
  6100.000000   2371754   2370668   2369668   2368760   2367941  
  6090.000000   2367191   2366498   2365854   2365265   2364734  
  6080.000000   2364271   2363866   2363517   2363209   2362950  
  6070.000000   2362738   2362594   2362516   2362511   2362559  
  6060.000000   2362656   2362784   2362959   2363196   2363535  
  6050.000000   2363994   2364587   2365291   2366083   2366921  
  6040.000000   2367792   2368688   2369637   2370664   2371798  
  6030.000000   2373040   2374379   2375780   2377218   2378665  
  6020.000000   2380121   2381587   2383079   2384596   2386139  
  6010.000000   2387689   2389240   2390781   2392323   2393876  
  6000.000000   2395462   2397087   2398758   2400465   2402202  
  5990.000000   2403956   2405730   2407525   2409358   2411235  
  5980.000000   2413171   2415168   2417236   2419373   2421585  
  5970.000000   2423865   2426213   2428613   2431056   2433528  
  5960.000000   2436031   2438562   2441137   2443761   2446440  
  5950.000000   2449160   2451910   2454663   2457403   2460121  
  5940.000000   2462829   2465551   2468318   2471162   2474104  
  5930.000000   2477149   2480279   2483461   2486646   2489783  
  5920.000000   2492825   2495738   2498509   2501141   2503653  
  5910.000000   2506068   2508404   2510668   2512859   2514973  
  5900.000000   2517011   2518993   2520951   2522930   2524971  
  5890.000000   2527104   2529332   2531644   2534009   2536402  
  5880.000000   2538801   2541196   2543582   2545947   2548276  
  5870.000000   2550540   2552716   2554782   2556744   2558619  
  5860.000000   2560447   2562265   2564111   2566007   2567972  
  5850.000000   2570020   2572171   2574441   2576847   2579388  
  5840.000000   2582045   2584780   2587548   2590309   2593044  
  5830.000000   2595754   2598458   2601174   2603915   2606671  
  5820.000000   2609421   2612133   2614787   2617374   2619894  
  5810.000000   2622360   2624769   2627125   2629405   2631615  
  5800.000000   2633741   2635820   2637858   2639896   2641917  
  5790.000000   2643912   2645804   2647533   2648993   2650118  
  5780.000000   2650817   2651048   2650757   2649940   2648599  
  5770.000000   2646800   2644627   2642217   2639699   2637207  
  5760.000000   2634823   2632603   2630546   2628647   2626885  
  5750.000000   2625259   2623771   2622433   2621239   2620170  
  5740.000000   2619194   2618271   2617381   2616514   2615692  
  5730.000000   2614933   2614262   2613675   2613168   2612710  
  5720.000000   2612288   2611886   2611514   2611172   2610868  
  5710.000000   2610588   2610319   2610037   2609737   2609429  
  5700.000000   2609144   2608918   2608782   2608748   2608802  
  5690.000000   2608919   2609060   2609203   2609328   2609436  
  5680.000000   2609521   2609582   2609597   2609544   2609384  
  5670.000000   2609089   2608621   2607962   2607088   2605995  
  5660.000000   2604687   2603197   2601568   2599873   2598174  
  5650.000000   2596536   2594984   2593526   2592135   2590784  
  5640.000000   2589442   2588101   2586761   2585435   2584135  
  5630.000000   2582864   2581623   2580408   2579225   2578086  
  5620.000000   2577010   2576005   2575073   2574192   2573336  
  5610.000000   2572477   2571602   2570717   2569847   2569021  
  5600.000000   2568260   2567564   2566916   2566284   2565635  
  5590.000000   2564949   2564216   2563441   2562629   2561783  
  5580.000000   2560899   2559975   2559005   2557995   2556953  
  5570.000000   2555890   2554810   2553712   2552590   2551440  
  5560.000000   2550266   2549082   2547906   2546756   2545639  
  5550.000000   2544550   2543478   2542410   2541341   2540281  
  5540.000000   2539243   2538238   2537265   2536311   2535350  
  5530.000000   2534361   2533332   2532272   2531202   2530148  
  5520.000000   2529129   2528149   2527198   2526258   2525311  
  5510.000000   2524348   2523363   2522356   2521321   2520250  
  5500.000000   2519133   2517971   2516773   2515567   2514376  
  5490.000000   2513218   2512080   2510931   2509719   2508404  
  5480.000000   2506954   2505381   2503709   2501991   2500260  
  5470.000000   2498544   2496838   2495131   2493397   2491624  
  5460.000000   2489798   2487917   2485973   2483961   2481870  
  5450.000000   2479702   2477472   2475210   2472954   2470734  
  5440.000000   2468568   2466454   2464381   2462340   2460341  
  5430.000000   2458400   2456543   2454776   2453092   2451454  
  5420.000000   2449833   2448202   2446581   2445010   2443567  
  5410.000000   2442303   2441255   2440394   2439679   2439037  
  5400.000000   2438439   2437862   2437342   2436907   2436607  
  5390.000000   2436450   2436446   2436568   2436822   2437200  
  5380.000000   2437738   2438447   2439357   2440443   2441696  
  5370.000000   2443063   2444538   2446086   2447741   2449493  
  5360.000000   2451390   2453414   2455610   2457962   2460539  
  5350.000000   2463361   2466527   2470066   2474058   2478481  
  5340.000000   2483371   2488668   2494410   2500554   2507158  
  5330.000000   2514177   2521656   2529515   2537779   2546371  
  5320.000000   2555363   2564743   2574653   2585113   2596273  
  5310.000000   2608107   2620702   2633973   2647973   2662622  
  5300.000000   2678004   2694093   2711022   2728797   2747556  
  5290.000000   2767273   2788010   2809644   2832125   2855255  
  5280.000000   2878966   2903131   2927805   2953014   2978924  
  5270.000000   3005593   3033081   3061262   3089951   3118872  
  5260.000000   3147792   3176565   3205162   3233657   3262120  
  5250.000000   3290599   3318985   3347125   3374731   3401626  
  5240.000000   3427616   3452742   3477019   3500647   3523680  
  5230.000000   3546257   3568291   3589762   3610459   3630321  
  5220.000000   3649179   3667092   3684033   3700189   3715608  
  5210.000000   3730484   3744796   3758615   3771786   3784281  
  5200.000000   3795918   3806727   3816635   3825781   3834171  
  5190.000000   3841952   3849088   3855653   3861553   3866834  
  5180.000000   3871425   3875415   3878783   3881638   3883949  
  5170.000000   3885790   3887103   3887947   3888281   3888188  
  5160.000000   3887650   3886746   3885434   3883750   3881628  
  5150.000000   3879096   3876119   3872766   3869047   3865046  
  5140.000000   3860770   3856272   3851530   3846571   3841374  
  5130.000000   3835978   3830382   3824637   3818754   3812778  
  5120.000000   3806720   3800621   3794496   3788383   3782288  
  5110.000000   3776225   3770175   3764125   3758049   3751943  
  5100.000000   3745809   3739676   3733567   3727514   3721531  
  5090.000000   3715623   3709781   3704000   3698270   3692590  
  5080.000000   3686953   3681350   3675759   3670155   3664505  
  5070.000000   3658788   3652989   3647115   3641173   3635183  
  5060.000000   3629151   3623086   3616981   3610837   3604646  
  5050.000000   3598417   3592147   3585843   3579493   3573095  
  5040.000000   3566630   3560096   3553492   3546832   3540138  
  5030.000000   3533436   3526749   3520093   3513480   3506913  
  5020.000000   3500399   3493943   3487559   3481255   3475049  
  5010.000000   3468943   3462953   3457074   3451330   3445718  
  5000.000000   3440271   3434989   3429907   3425016   3420345  
  4990.000000   3415873   3411628   3407593   3403806   3400255  
  4980.000000   3396988   3393994   3391321   3388951   3386932  
  4970.000000   3385245   3383942   3383001   3382471   3382321  
  4960.000000   3382590   3383238   3384303   3385746   3387610  
  4950.000000   3389859   3392531   3395580   3399027   3402810  
  4940.000000   3406942   3411359   3416087   3421077   3426368  
  4930.000000   3431925   3437791   3443938   3450406   3457172  
  4920.000000   3464277   3471698   3479466   3487549   3495960  
  4910.000000   3504657   3513643   3522878   3532359   3542050  
  4900.000000   3551941   3561993   3572180   3582463   3592813  
  4890.000000   3603200   3613598   3623983   3634315   3644559  
  4880.000000   3654654   3664561   3674215   3683598   3692666  
  4870.000000   3701430   3709868   3718002   3725812   3733323  
  4860.000000   3740510   3747399   3753967   3760244   3766209  
  4850.000000   3771894   3777285   3782421   3787297   3791961  
  4840.000000   3796416   3800711   3804850   3808875   3812789  
  4830.000000   3816632   3820409   3824153   3827862   3831550  
  4820.000000   3835192   3838778   3842272   3845661   3848926  
  4810.000000   3852074   3855110   3858054   3860915   3863708  
  4800.000000   3866436   3869110   3871733   3874326   3876900  
  4790.000000   3879480   3882070   3884680   3887296   3889910  
  4780.000000   3892496   3895044   3897536   3899969   3902330  
  4770.000000   3904622   3906832   3908962   3910999   3912945  
  4760.000000   3914784   3916519   3918134   3919633   3921001  
  4750.000000   3922248   3923363   3924360   3925226   3925970  
  4740.000000   3926571   3927032   3927333   3927484   3927482  
  4730.000000   3927348   3927092   3926735   3926278   3925728  
  4720.000000   3925077   3924329   3923484   3922563   3921588  
  4710.000000   3920597   3919620   3918688   3917818   3917017  
  4700.000000   3916281   3915601   3914964   3914363   3913795  
  4690.000000   3913266   3912787   3912372   3912035   3911775  
  4680.000000   3911587   3911443   3911312   3911150   3910928  
  4670.000000   3910618   3910225   3909757   3909255   3908754  
  4660.000000   3908303   3907937   3907691   3907585   3907638  
  4650.000000   3907855   3908243   3908796   3909508   3910363  
  4640.000000   3911341   3912418   3913570   3914773   3916004  
  4630.000000   3917240   3918460   3919643   3920768   3921816  
  4620.000000   3922769   3923614   3924337   3924930   3925387  
  4610.000000   3925712   3925911   3926009   3926026   3926002  
  4600.000000   3925960   3925932   3925920   3925934   3925952  
  4590.000000   3925968   3925952   3925896   3925776   3925589  
  4580.000000   3925312   3924942   3924459   3923861   3923134  
  4570.000000   3922286   3921310   3920215   3918993   3917650  
  4560.000000   3916173   3914567   3912826   3910968   3909003  
  4550.000000   3906958   3904849   3902699   3900515   3898309  
  4540.000000   3896086   3893856   3891631   3889422   3887244  
  4530.000000   3885096   3882986   3880900   3878847   3876817  
  4520.000000   3874842   3872931   3871148   3869512   3868098  
  4510.000000   3866915   3866034   3865451   3865239   3865391  
  4500.000000   3865993   3867038   3868620   3870729   3873458  
  4490.000000   3876786   3880807   3885495   3890936   3897094  
  4480.000000   3904035   3911705   3920149   3929296   3939178  
  4470.000000   3949717   3960931   3972734   3985119   3997982  
  4460.000000   4011295   4024947   4038898   4053050   4067368  
  4450.000000   4081773   4096236   4110700   4125144   4139536  
  4440.000000   4153858   4168101   4182243   4196283   4210184  
  4430.000000   4223949   4237523   4250913   4264053   4276955  
  4420.000000   4289544   4301831   4313728   4325237   4336249  
  4410.000000   4346746   4356600   4365775   4374143   4381684  
  4400.000000   4388311   4394066   4398942   4403053   4406461  
  4390.000000   4409316   4411702   4413762   4415569   4417237  
  4380.000000   4418821   4420412   4422057   4423829   4425771  
  4370.000000   4427941   4430375   4433109   4436169   4439570  
  4360.000000   4443323   4447427   4451875   4456657   4461732  
  4350.000000   4467069   4472587   4478242   4483942   4489669  
  4340.000000   4495364   4501032   4506603   4511997   4517000  
  4330.000000   4521328   4524589   4526405   4526454   4524613  
  4320.000000   4520977   4515912   4509944   4503718   4497797  
  4310.000000   4492644   4488476   4485357   4483158   4481711  
  4300.000000   4480802   4480284   4480037   4479994   4480113  
  4290.000000   4480344   4480665   4481030   4481445   4481902  
  4280.000000   4482433   4483055   4483787   4484641   4485607  
  4270.000000   4486696   4487886   4489171   4490475   4491688  
  4260.000000   4492608   4492998   4492590   4491174   4488627  
  4250.000000   4484979   4480388   4475142   4469567   4464009  
  4240.000000   4458727   4453917   4449646   4445917   4442646  
  4230.000000   4439731   4437042   4434463   4431897   4429267  
  4220.000000   4426548   4423731   4420875   4418026   4415286  
  4210.000000   4412716   4410404   4408377   4406683   4405313  
  4200.000000   4404278   4403546   4403104   4402893   4402882  
  4190.000000   4402997   4403211   4403460   4403755   4404069  
  4180.000000   4404456   4404916   4405524   4406294   4407309  
  4170.000000   4408590   4410234   4412267   4414781   4417782  
  4160.000000   4421326   4425375   4429949   4434983   4440493  
  4150.000000   4446424   4452816   4459628   4466912   4474627  
  4140.000000   4482823   4491457   4500576   4510133   4520172  
  4130.000000   4530636   4541550   4552850   4564557   4576622  
  4120.000000   4589091   4601950   4615269   4629048   4643344  
  4110.000000   4658134   4673433   4689179   4705351   4721865  
  4100.000000   4738685   4755736   4772990   4790400   4807963  
  4090.000000   4825660   4843498   4861465   4879545   4897717  
  4080.000000   4915942   4934202   4952459   4970715   4988929  
  4070.000000   5007097   5025142   5043032   5060656   5077981  
  4060.000000   5094901   5111413   5127427   5142958   5157916  
  4050.000000   5172329   5186116   5199347   5211974   5224097  
  4040.000000   5235660   5246733   5257201   5267086   5276243  
  4030.000000   5284696   5292322   5299165   5305121   5310222  
  4020.000000   5314334   5317501   5319685   5320983   5321369  
  4010.000000   5321025   5320063   5318537   5316231   5313226  
  4000.000000   5309863  
##END= 
