##TITLE= Sample 012 By ssteindl date Montag, November 26 2018
##JCAMP-DX= 4.24
##DATA TYPE= INFRARED SPECTRUM
##ORIGIN= Exported PE Spectrum Data File
##OWNER= Sandra Steindl
##DATE= 18/11/26
##TIME= 11:32:21.00
##SPECTROMETER/DATA SYSTEM= PERKIN-ELMER Frontier FT-IR/NIR IR
##INSTRUMENT PARAMETERS=
  APODIZATION=stark
  DETECTOR=INGAAS
##RESOLUTION= 16.000000
##DELTAX= -2.000000
##XUNITS= 1/CM
##YUNITS= A
##XFACTOR= 1.00
##YFACTOR= 0.00000011920928955078
##FIRSTX= 10000.00
##LASTX= 4000.00
##NPOINTS= 3001
##FIRSTY= 0.293168
##MAXY= 0.659012
##MINY= 0.229322
##XYDATA= (X++(Y..Y))
 10000.000000   2459268   2467710   2475747   2482462   2486899  
  9990.000000   2488689   2488136   2486094   2483450   2480909  
  9980.000000   2478722   2476866   2475036   2473061   2470900  
  9970.000000   2468871   2467305   2466522   2466520   2467082  
  9960.000000   2467760   2468171   2468018   2467230   2465770  
  9950.000000   2463613   2460637   2456729   2451974   2446717  
  9940.000000   2441630   2437377   2434390   2432481   2430845  
  9930.000000   2428241   2423502   2416073   2406439   2396141  
  9920.000000   2387413   2382425   2382536   2387748   2396692  
  9910.000000   2407071   2416441   2422945   2425832   2425485  
  9900.000000   2423161   2420418   2418639   2418607   2420417  
  9890.000000   2423522   2427019   2429893   2431330   2430872  
  9880.000000   2428500   2424663   2420074   2415619   2411994  
  9870.000000   2409596   2408341   2407776   2407296   2406438  
  9860.000000   2405130   2403705   2402700   2402551   2403262  
  9850.000000   2404366   2405042   2404529   2402470   2399164  
  9840.000000   2395494   2392611   2391473   2392445   2395162  
  9830.000000   2398623   2401564   2402807   2401640   2397918  
  9820.000000   2392083   2384943   2377509   2370755   2365559  
  9810.000000   2362557   2362109   2364138   2368093   2373013  
  9800.000000   2377719   2381235   2383037   2383332   2382904  
  9790.000000   2382887   2384289   2387610   2392656   2398551  
  9780.000000   2404071   2407980   2409401   2407966   2403847  
  9770.000000   2397607   2390072   2382134   2374670   2368392  
  9760.000000   2363774   2360933   2359605   2359221   2359089  
  9750.000000   2358698   2357906   2357097   2356983   2358373  
  9740.000000   2361730   2366983   2373443   2380073   2385834  
  9730.000000   2390063   2392663   2394013   2394729   2395238  
  9720.000000   2395609   2395395   2393931   2390531   2384907  
  9710.000000   2377257   2368293   2359066   2350646   2344026  
  9700.000000   2339826   2338444   2339878   2343922   2350046  
  9690.000000   2357521   2365428   2372787   2378714   2382516  
  9680.000000   2383855   2382692   2379366   2374389   2368500  
  9670.000000   2362434   2356949   2352652   2349905   2348769  
  9660.000000   2348876   2349641   2350293   2350287   2349383  
  9650.000000   2347847   2346293   2345436   2345811   2347442  
  9640.000000   2349866   2352143   2353261   2352405   2349307  
  9630.000000   2344353   2338470   2332923   2328895   2327287  
  9620.000000   2328429   2332105   2337561   2343685   2349236  
  9610.000000   2353056   2354334   2352727   2348416   2342039  
  9600.000000   2334503   2326821   2319914   2314503   2311070  
  9590.000000   2309823   2310703   2313345   2317045   2320806  
  9580.000000   2323466   2323982   2321738   2316801   2310008  
  9570.000000   2302780   2296754   2293304   2293111   2295996  
  9560.000000   2301017   2306831   2312147   2316051   2318167  
  9550.000000   2318511   2317305   2314722   2310862   2305807  
  9540.000000   2299844   2293552   2287821   2283629   2281770  
  9530.000000   2282586   2285798   2290620   2295903   2300535  
  9520.000000   2303618   2304728   2303875   2301481   2298238  
  9510.000000   2294934   2292349   2291040   2291280   2292867  
  9500.000000   2295181   2297229   2297912   2296359   2292201  
  9490.000000   2285820   2278259   2271014   2265567   2262975  
  9480.000000   2263562   2266869   2271817   2277056   2281291  
  9470.000000   2283632   2283719   2281780   2278506   2274837  
  9460.000000   2271734   2269888   2269582   2270558   2272121  
  9450.000000   2273317   2273228   2271290   2267489   2262441  
  9440.000000   2257198   2252916   2250446   2250014   2251185  
  9430.000000   2253009   2254421   2254580   2253158   2250418  
  9420.000000   2247093   2244159   2242483   2242614   2244601  
  9410.000000   2248053   2252259   2256381   2259660   2261516  
  9400.000000   2261699   2260261   2257567   2254125   2250461  
  9390.000000   2246927   2243664   2240614   2237656   2234763  
  9380.000000   2232077   2229975   2228922   2229361   2231438  
  9370.000000   2234910   2239093   2243073   2245967   2247187  
  9360.000000   2246624   2244611   2241847   2239111   2237060  
  9350.000000   2236014   2235916   2236401   2236943   2237047  
  9340.000000   2236380   2234872   2232733   2230387   2228327  
  9330.000000   2226925   2226307   2226282   2226456   2226341  
  9320.000000   2225576   2224068   2222075   2220180   2219071  
  9310.000000   2219330   2221167   2224392   2228466   2232692  
  9300.000000   2236387   2239038   2240351   2240283   2238957  
  9290.000000   2236616   2233570   2230180   2226855   2223981  
  9280.000000   2221813   2220348   2219265   2218042   2216115  
  9270.000000   2213143   2209143   2204575   2200215   2196875  
  9260.000000   2195102   2194928   2195898   2197224   2198130  
  9250.000000   2198100   2197061   2195381   2193706   2192693  
  9240.000000   2192766   2194006   2196190   2198888   2201612  
  9230.000000   2203894   2205387   2205864   2205245   2203569  
  9220.000000   2201019   2197894   2194610   2191569   2189092  
  9210.000000   2187301   2186123   2185341   2184682   2183970  
  9200.000000   2183165   2182453   2182111   2182448   2183602  
  9190.000000   2185527   2187940   2190420   2192503   2193794  
  9180.000000   2194107   2193446   2192032   2190155   2188089  
  9170.000000   2185970   2183762   2181299   2178426   2175118  
  9160.000000   2171601   2168330   2165868   2164692   2164937  
  9150.000000   2166341   2168249   2169883   2170633   2170328  
  9140.000000   2169337   2168399   2168327   2169613   2172210  
  9130.000000   2175464   2178383   2179984   2179735   2177697  
  9120.000000   2174515   2171128   2168407   2166870   2166498  
  9110.000000   2166902   2167520   2167958   2168080   2168052  
  9100.000000   2168132   2168547   2169296   2170157   2170743  
  9090.000000   2170666   2169701   2167792   2165069   2161716  
  9080.000000   2157962   2154012   2150066   2146366   2143182  
  9070.000000   2140806   2139426   2139083   2139607   2140696  
  9060.000000   2141988   2143167   2144045   2144547   2144721  
  9050.000000   2144593   2144171   2143387   2142217   2140687  
  9040.000000   2138953   2137273   2135982   2135374   2135616  
  9030.000000   2136702   2138446   2140536   2142573   2144183  
  9020.000000   2145092   2145175   2144484   2143241   2141807  
  9010.000000   2140581   2139879   2139847   2140411   2141313  
  9000.000000   2142187   2142707   2142690   2142161   2141288  
  8990.000000   2140310   2139404   2138623   2137890   2137063  
  8980.000000   2136061   2134904   2133737   2132751   2132085  
  8970.000000   2131763   2131653   2131570   2131364   2131023  
  8960.000000   2130703   2130632   2131010   2131848   2132941  
  8950.000000   2133879   2134215   2133628   2132088   2129889  
  8940.000000   2127577   2125776   2124985   2125449   2127071  
  8930.000000   2129484   2132130   2134465   2136081   2136804  
  8920.000000   2136682   2135941   2134887   2133796   2132818  
  8910.000000   2131932   2130991   2129771   2128105   2125963  
  8900.000000   2123502   2121037   2118919   2117448   2116741  
  8890.000000   2116722   2117133   2117657   2118036   2118160  
  8880.000000   2118087   2117973   2117998   2118245   2118684  
  8870.000000   2119161   2119500   2119552   2119276   2118726  
  8860.000000   2118038   2117361   2116815   2116458   2116293  
  8850.000000   2116288   2116395   2116550   2116686   2116725  
  8840.000000   2116607   2116308   2115871   2115398   2115037  
  8830.000000   2114914   2115100   2115557   2116162   2116750  
  8820.000000   2117191   2117452   2117599   2117793   2118200  
  8810.000000   2118954   2120066   2121451   2122930   2124301  
  8800.000000   2125382   2126042   2126212   2125860   2124997  
  8790.000000   2123648   2121868   2119744   2117390   2114959  
  8780.000000   2112603   2110504   2108833   2107768   2107440  
  8770.000000   2107927   2109194   2111063   2113205   2115180  
  8760.000000   2116543   2116952   2116289   2114700   2112581  
  8750.000000   2110463   2108878   2108203   2108566   2109826  
  8740.000000   2111631   2113522   2115061   2115920   2115952  
  8730.000000   2115165   2113713   2111816   2109735   2107722  
  8720.000000   2105985   2104695   2103965   2103885   2104499  
  8710.000000   2105831   2107821   2110345   2113155   2115907  
  8700.000000   2118191   2119589   2119830   2118810   2116716  
  8690.000000   2113901   2110864   2108059   2105828   2104326  
  8680.000000   2103533   2103367   2103731   2104635   2106132  
  8670.000000   2108312   2111171   2114558   2118158   2121521  
  8660.000000   2124222   2125915   2126489   2125997   2124696  
  8650.000000   2122905   2120990   2119272   2117998   2117365  
  8640.000000   2117481   2118418   2120123   2122475   2125241  
  8630.000000   2128160   2130956   2133392   2135309   2136600  
  8620.000000   2137247   2137247   2136658   2135560   2134117  
  8610.000000   2132557   2131158   2130213   2129948   2130494  
  8600.000000   2131825   2133804   2136203   2138768   2141257  
  8590.000000   2143455   2145181   2146288   2146680   2146351  
  8580.000000   2145421   2144170   2143006   2142380   2142656  
  8570.000000   2143994   2146271   2149091   2151866   2153984  
  8560.000000   2154968   2154606   2152991   2150496   2147665  
  8550.000000   2145078   2143215   2142382   2142668   2143969  
  8540.000000   2146001   2148396   2150736   2152670   2153949  
  8530.000000   2154491   2154380   2153814   2153063   2152342  
  8520.000000   2151784   2151366   2150970   2150418   2149600  
  8510.000000   2148523   2147335   2146309   2145728   2145813  
  8500.000000   2146609   2147994   2149710   2151447   2152961  
  8490.000000   2154113   2154934   2155546   2156112   2156743  
  8480.000000   2157469   2158235   2158945   2159540   2160045  
  8470.000000   2160594   2161373   2162561   2164222   2166274  
  8460.000000   2168473   2170471   2171911   2172524   2172232  
  8450.000000   2171133   2169494   2167649   2165938   2164615  
  8440.000000   2163813   2163554   2163775   2164404   2165357  
  8430.000000   2166597   2168098   2169858   2171848   2174000  
  8420.000000   2176186   2178229   2179934   2181109   2181621  
  8410.000000   2181429   2180623   2179402   2178034   2176797  
  8400.000000   2175905   2175453   2175378   2175498   2175552  
  8390.000000   2175306   2174593   2173401   2171854   2170206  
  8380.000000   2168749   2167745   2167354   2167584   2168292  
  8370.000000   2169199   2169969   2170291   2169972   2168982  
  8360.000000   2167473   2165743   2164161   2163055   2162608  
  8350.000000   2162812   2163473   2164286   2164929   2165172  
  8340.000000   2164935   2164304   2163462   2162614   2161892  
  8330.000000   2161321   2160824   2160277   2159584   2158726  
  8320.000000   2157780   2156886   2156184   2155752   2155557  
  8310.000000   2155476   2155335   2154982   2154346   2153463  
  8300.000000   2152472   2151558   2150891   2150559   2150535  
  8290.000000   2150690   2150835   2150783   2150406   2149678  
  8280.000000   2148680   2147584   2146576   2145819   2145381  
  8270.000000   2145238   2145276   2145330   2145232   2144854  
  8260.000000   2144129   2143059   2141688   2140092   2138361  
  8250.000000   2136606   2134963   2133572   2132564   2132011  
  8240.000000   2131890   2132078   2132354   2132477   2132242  
  8230.000000   2131580   2130578   2129459   2128490   2127878  
  8220.000000   2127679   2127769   2127876   2127676   2126899  
  8210.000000   2125433   2123355   2120908   2118401   2116117  
  8200.000000   2114219   2112737   2111571   2110567   2109563  
  8190.000000   2108461   2107228   2105903   2104550   2103237  
  8180.000000   2102001   2100852   2099767   2098705   2097619  
  8170.000000   2096460   2095197   2093812   2092326   2090778  
  8160.000000   2089232   2087732   2086302   2084913   2083505  
  8150.000000   2082001   2080348   2078561   2076748   2075095  
  8140.000000   2073826   2073126   2073069   2073576   2074411  
  8130.000000   2075242   2075728   2075610   2074798   2073378  
  8120.000000   2071595   2069762   2068168   2066989   2066236  
  8110.000000   2065783   2065411   2064917   2064168   2063164  
  8100.000000   2062008   2060866   2059883   2059119   2058519  
  8090.000000   2057921   2057131   2055981   2054413   2052488  
  8080.000000   2050379   2048322   2046537   2045195   2044365  
  8070.000000   2044029   2044089   2044401   2044793   2045094  
  8060.000000   2045139   2044800   2043998   2042730   2041079  
  8050.000000   2039200   2037293   2035538   2034058   2032871  
  8040.000000   2031900   2030995   2029998   2028787   2027324  
  8030.000000   2025651   2023879   2022142   2020561   2019220  
  8020.000000   2018168   2017427   2017008   2016912   2017123  
  8010.000000   2017584   2018190   2018786   2019199   2019278  
  8000.000000   2018950   2018231   2017246   2016167   2015186  
  7990.000000   2014431   2013941   2013660   2013460   2013205  
  7980.000000   2012799   2012238   2011602   2011036   2010681  
  7970.000000   2010618   2010817   2011135   2011350   2011235  
  7960.000000   2010638   2009540   2008083   2006527   2005183  
  7950.000000   2004306   2004014   2004244   2004769   2005273  
  7940.000000   2005453   2005128   2004290   2003118   2001899  
  7930.000000   2000946   2000478   2000565   2001101   2001851  
  7920.000000   2002534   2002903   2002818   2002257   2001310  
  7910.000000   2000108   1998788   1997441   1996117   1994835  
  7900.000000   1993621   1992526   1991630   1991022   1990760  
  7890.000000   1990856   1991246   1991826   1992466   1993047  
  7880.000000   1993495   1993768   1993865   1993786   1993537  
  7870.000000   1993111   1992513   1991766   1990930   1990097  
  7860.000000   1989367   1988830   1988520   1988429   1988490  
  7850.000000   1988624   1988748   1988807   1988774   1988636  
  7840.000000   1988380   1987979   1987397   1986599   1985587  
  7830.000000   1984400   1983132   1981907   1980846   1980040  
  7820.000000   1979518   1979258   1979191   1979240   1979334  
  7810.000000   1979434   1979521   1979591   1979631   1979618  
  7800.000000   1979516   1979294   1978947   1978501   1978018  
  7790.000000   1977569   1977206   1976934   1976695   1976385  
  7780.000000   1975877   1975077   1973948   1972546   1970992  
  7770.000000   1969451   1968070   1966942   1966072   1965391  
  7760.000000   1964779   1964117   1963326   1962394   1961368  
  7750.000000   1960333   1959374   1958548   1957868   1957310  
  7740.000000   1956838   1956419   1956043   1955716   1955448  
  7730.000000   1955233   1955038   1954806   1954474   1953990  
  7720.000000   1953343   1952557   1951700   1950846   1950064  
  7710.000000   1949390   1948825   1948347   1947911   1947487  
  7700.000000   1947055   1946627   1946225   1945888   1945637  
  7690.000000   1945474   1945369   1945255   1945049   1944656  
  7680.000000   1944017   1943104   1941952   1940639   1939275  
  7670.000000   1937973   1936825   1935894   1935207   1934777  
  7660.000000   1934600   1934670   1934960   1935414   1935931  
  7650.000000   1936371   1936589   1936465   1935966   1935141  
  7640.000000   1934141   1933145   1932322   1931759   1931441  
  7630.000000   1931272   1931122   1930897   1930586   1930267  
  7620.000000   1930061   1930078   1930345   1930790   1931252  
  7610.000000   1931542   1931521   1931146   1930496   1929720  
  7600.000000   1928990   1928422   1928052   1927824   1927642  
  7590.000000   1927405   1927063   1926627   1926155   1925724  
  7580.000000   1925391   1925181   1925079   1925065   1925128  
  7570.000000   1925275   1925532   1925912   1926402   1926939  
  7560.000000   1927429   1927759   1927847   1927647   1927182  
  7550.000000   1926520   1925770   1925038   1924418   1923971  
  7540.000000   1923728   1923695   1923861   1924205   1924696  
  7530.000000   1925294   1925956   1926635   1927296   1927911  
  7520.000000   1928480   1929004   1929503   1929981   1930442  
  7510.000000   1930875   1931280   1931664   1932061   1932533  
  7500.000000   1933155   1934003   1935116   1936483   1938037  
  7490.000000   1939664   1941229   1942604   1943701   1944484  
  7480.000000   1944982   1945264   1945425   1945558   1945746  
  7470.000000   1946051   1946514   1947156   1947977   1948957  
  7460.000000   1950052   1951193   1952301   1953297   1954133  
  7450.000000   1954793   1955317   1955766   1956237   1956805  
  7440.000000   1957539   1958460   1959568   1960828   1962204  
  7430.000000   1963654   1965151   1966677   1968235   1969842  
  7420.000000   1971526   1973317   1975236   1977277   1979406  
  7410.000000   1981555   1983647   1985609   1987406   1989043  
  7400.000000   1990573   1992065   1993582   1995147   1996734  
  7390.000000   1998281   1999712   2000978   2002074   2003051  
  7380.000000   2003992   2004986   2006089   2007310   2008610  
  7370.000000   2009932   2011221   2012453   2013644   2014840  
  7360.000000   2016096   2017457   2018936   2020520   2022161  
  7350.000000   2023803   2025387   2026868   2028223   2029455  
  7340.000000   2030588   2031665   2032726   2033800   2034891  
  7330.000000   2035971   2036994   2037912   2038699   2039371  
  7320.000000   2039987   2040644   2041434   2042430   2043647  
  7310.000000   2045053   2046572   2048125   2049652   2051127  
  7300.000000   2052554   2053943   2055282   2056528   2057620  
  7290.000000   2058497   2059140   2059588   2059937   2060315  
  7280.000000   2060833   2061555   2062473   2063522   2064592  
  7270.000000   2065585   2066436   2067137   2067733   2068292  
  7260.000000   2068888   2069567   2070346   2071208   2072125  
  7250.000000   2073057   2073984   2074888   2075787   2076699  
  7240.000000   2077673   2078746   2079967   2081353   2082911  
  7230.000000   2084607   2086407   2088255   2090131   2092027  
  7220.000000   2093982   2096039   2098253   2100649   2103232  
  7210.000000   2105961   2108790   2111660   2114540   2117405  
  7200.000000   2120264   2123111   2125947   2128744   2131482  
  7190.000000   2134138   2136728   2139289   2141896   2144623  
  7180.000000   2147536   2150650   2153943   2157340   2160766  
  7170.000000   2164135   2167415   2170587   2173694   2176769  
  7160.000000   2179868   2183014   2186237   2189545   2192974  
  7150.000000   2196564   2200389   2204513   2209001   2213863  
  7140.000000   2219073   2224532   2230130   2235722   2241210  
  7130.000000   2246511   2251615   2256535   2261353   2266154  
  7120.000000   2271059   2276155   2281527   2287192   2293132  
  7110.000000   2299263   2305487   2311691   2317805   2323800  
  7100.000000   2329725   2335660   2341722   2347987   2354490  
  7090.000000   2361183   2367979   2374756   2381430   2387956  
  7080.000000   2394367   2400732   2407153   2413699   2420409  
  7070.000000   2427260   2434198   2441147   2448050   2454869  
  7060.000000   2461604   2468277   2474933   2481617   2488375  
  7050.000000   2495229   2502176   2509176   2516149   2522995  
  7040.000000   2529618   2535961   2542031   2547911   2553735  
  7030.000000   2559653   2565768   2572117   2578642   2585236  
  7020.000000   2591771   2598165   2604388   2610481   2616499  
  7010.000000   2622489   2628441   2634305   2639999   2645466  
  7000.000000   2650691   2655733   2660674   2665616   2670612  
  6990.000000   2675681   2680779   2685864   2690880   2695812  
  6980.000000   2700638   2705354   2709914   2714275   2718369  
  6970.000000   2722178   2725715   2729065   2732326   2735603  
  6960.000000   2738938   2742324   2745683   2748938   2752016  
  6950.000000   2754918   2757682   2760390   2763105   2765862  
  6940.000000   2768634   2771367   2773983   2776432   2778687  
  6930.000000   2780763   2782690   2784517   2786279   2788023  
  6920.000000   2789779   2791585   2793456   2795399   2797380  
  6910.000000   2799353   2801249   2803021   2804639   2806116  
  6900.000000   2807480   2808774   2810020   2811224   2812374  
  6890.000000   2813457   2814470   2815431   2816360   2817274  
  6880.000000   2818164   2819007   2819763   2820417   2820977  
  6870.000000   2821497   2822047   2822696   2823475   2824370  
  6860.000000   2825326   2826274   2827153   2827936   2828626  
  6850.000000   2829250   2829827   2830366   2830854   2831278  
  6840.000000   2831633   2831937   2832225   2832540   2832911  
  6830.000000   2833345   2833820   2834310   2834781   2835224  
  6820.000000   2835633   2836017   2836375   2836704   2836991  
  6810.000000   2837234   2837435   2837618   2837799   2837989  
  6800.000000   2838168   2838302   2838344   2838265   2838062  
  6790.000000   2837770   2837435   2837103   2836787   2836474  
  6780.000000   2836125   2835705   2835203   2834641   2834062  
  6770.000000   2833511   2833006   2832530   2832045   2831509  
  6760.000000   2830907   2830263   2829633   2829089   2828682  
  6750.000000   2828429   2828307   2828274   2828284   2828307  
  6740.000000   2828336   2828372   2828416   2828451   2828454  
  6730.000000   2828397   2828270   2828083   2827862   2827633  
  6720.000000   2827402   2827153   2826852   2826468   2825991  
  6710.000000   2825450   2824888   2824360   2823887   2823463  
  6700.000000   2823040   2822573   2822022   2821400   2820744  
  6690.000000   2820119   2819563   2819082   2818625   2818108  
  6680.000000   2817437   2816545   2815407   2814050   2812532  
  6670.000000   2810929   2809306   2807721   2806205   2804790  
  6660.000000   2803489   2802314   2801259   2800304   2799406  
  6650.000000   2798515   2797570   2796522   2795329   2793970  
  6640.000000   2792437   2790744   2788926   2787037   2785147  
  6630.000000   2783330   2781643   2780117   2778737   2777459  
  6620.000000   2776214   2774945   2773609   2772204   2770744  
  6610.000000   2769256   2767756   2766246   2764710   2763134  
  6600.000000   2761510   2759851   2758173   2756492   2754805  
  6590.000000   2753090   2751312   2749445   2747483   2745452  
  6580.000000   2743399   2741381   2739433   2737570   2735780  
  6570.000000   2734038   2732326   2730638   2728984   2727379  
  6560.000000   2725823   2724298   2722771   2721201   2719564  
  6550.000000   2717861   2716122   2714391   2712714   2711117  
  6540.000000   2709608   2708177   2706807   2705486   2704209  
  6530.000000   2702970   2701764   2700572   2699370   2698133  
  6520.000000   2696850   2695524   2694179   2692841   2691535  
  6510.000000   2690271   2689042   2687835   2686636   2685444  
  6500.000000   2684270   2683130   2682037   2680989   2679970  
  6490.000000   2678954   2677912   2676824   2675688   2674513  
  6480.000000   2673321   2672134   2670971   2669840   2668738  
  6470.000000   2667654   2666570   2665468   2664337   2663178  
  6460.000000   2662009   2660861   2659772   2658772   2657872  
  6450.000000   2657056   2656286   2655512   2654698   2653828  
  6440.000000   2652916   2651998   2651114   2650283   2649502  
  6430.000000   2648736   2647947   2647097   2646182   2645223  
  6420.000000   2644267   2643365   2642560   2641872   2641309  
  6410.000000   2640862   2640527   2640294   2640153   2640080  
  6400.000000   2640042   2639989   2639882   2639693   2639425  
  6390.000000   2639104   2638772   2638469   2638217   2638015  
  6380.000000   2637847   2637688   2637517   2637328   2637119  
  6370.000000   2636889   2636630   2636326   2635955   2635509  
  6360.000000   2634992   2634425   2633837   2633253   2632682  
  6350.000000   2632119   2631549   2630961   2630349   2629726  
  6340.000000   2629097   2628471   2627836   2627173   2626459  
  6330.000000   2625684   2624850   2623978   2623087   2622191  
  6320.000000   2621279   2620328   2619310   2618216   2617061  
  6310.000000   2615891   2614755   2613700   2612734   2611836  
  6300.000000   2610957   2610048   2609069   2608012   2606883  
  6290.000000   2605700   2604470   2603190   2601841   2600413  
  6280.000000   2598906   2597343   2595754   2594173   2592615  
  6270.000000   2591076   2589536   2587973   2586374   2584744  
  6260.000000   2583095   2581443   2579791   2578128   2576435  
  6250.000000   2574702   2572933   2571155   2569406   2567717  
  6240.000000   2566099   2564539   2563000   2561448   2559857  
  6230.000000   2558226   2556567   2554900   2553235   2551563  
  6220.000000   2549866   2548121   2546321   2544478   2542621  
  6210.000000   2540783   2538989   2537242   2535531   2533836  
  6200.000000   2532145   2530458   2528794   2527173   2525610  
  6190.000000   2524103   2522638   2521188   2519735   2518267  
  6180.000000   2516788   2515306   2513838   2512392   2510978  
  6170.000000   2509607   2508296   2507063   2505925   2504886  
  6160.000000   2503934   2503033   2502144   2501222   2500243  
  6150.000000   2499195   2498085   2496923   2495718   2494472  
  6140.000000   2493185   2491863   2490525   2489196   2487907  
  6130.000000   2486674   2485495   2484348   2483202   2482032  
  6120.000000   2480839   2479644   2478493   2477431   2476495  
  6110.000000   2475690   2475010   2474424   2473913   2473458  
  6100.000000   2473060   2472715   2472423   2472165   2471925  
  6090.000000   2471676   2471417   2471152   2470910   2470717  
  6080.000000   2470602   2470571   2470623   2470739   2470913  
  6070.000000   2471133   2471405   2471728   2472109   2472536  
  6060.000000   2473004   2473496   2474019   2474574   2475184  
  6050.000000   2475852   2476589   2477376   2478200   2479037  
  6040.000000   2479893   2480782   2481747   2482826   2484059  
  6030.000000   2485454   2487004   2488670   2490417   2492206  
  6020.000000   2494018   2495839   2497675   2499524   2501396  
  6010.000000   2503285   2505196   2507121   2509062   2511008  
  6000.000000   2512962   2514910   2516857   2518807   2520785  
  5990.000000   2522814   2524931   2527152   2529492   2531934  
  5980.000000   2534459   2537032   2539638   2542262   2544916  
  5970.000000   2547610   2550371   2553208   2556139   2559161  
  5960.000000   2562280   2565478   2568744   2572044   2575350  
  5950.000000   2578623   2581852   2585036   2588215   2591439  
  5940.000000   2594773   2598264   2601934   2605773   2609741  
  5930.000000   2613791   2617872   2621950   2625994   2629979  
  5920.000000   2633867   2637610   2641157   2644463   2647514  
  5910.000000   2650327   2652951   2655454   2657904   2660359  
  5900.000000   2662850   2665402   2668017   2670711   2673486  
  5890.000000   2676349   2679283   2682266   2685253   2688201  
  5880.000000   2691068   2693835   2696489   2699032   2701464  
  5870.000000   2703780   2705972   2708034   2709978   2711833  
  5860.000000   2713640   2715449   2717296   2719203   2721170  
  5850.000000   2723188   2725248   2727350   2729502   2731714  
  5840.000000   2733990   2736315   2738668   2741018   2743349  
  5830.000000   2745658   2747967   2750297   2752675   2755103  
  5820.000000   2757568   2760040   2762488   2764892   2767245  
  5810.000000   2769562   2771857   2774155   2776459   2778786  
  5800.000000   2781127   2783500   2785892   2788317   2790738  
  5790.000000   2793137   2795434   2797568   2799432   2800946  
  5780.000000   2802001   2802525   2802436   2801708   2800332  
  5770.000000   2798380   2795957   2793240   2790397   2787609  
  5760.000000   2784986   2782606   2780462   2778531   2776750  
  5750.000000   2775087   2773505   2771999   2770566   2769206  
  5740.000000   2767917   2766693   2765536   2764442   2763419  
  5730.000000   2762457   2761546   2760652   2759753   2758818  
  5720.000000   2757849   2756856   2755871   2754922   2754030  
  5710.000000   2753197   2752418   2751680   2750986   2750343  
  5700.000000   2749773   2749285   2748877   2748524   2748185  
  5690.000000   2747830   2747436   2747019   2746602   2746226  
  5680.000000   2745906   2745639   2745379   2745072   2744643  
  5670.000000   2744034   2743189   2742074   2740660   2738932  
  5660.000000   2736889   2734563   2732014   2729341   2726654  
  5650.000000   2724064   2721645   2719436   2717420   2715561  
  5640.000000   2713804   2712108   2710446   2708809   2707196  
  5630.000000   2705607   2704044   2702508   2701013   2699575  
  5620.000000   2698220   2696958   2695793   2694698   2693642  
  5610.000000   2692585   2691507   2690403   2689295   2688206  
  5600.000000   2687157   2686151   2685178   2684216   2683253  
  5590.000000   2682288   2681332   2680403   2679510   2678647  
  5580.000000   2677790   2676908   2675972   2674971   2673905  
  5570.000000   2672790   2671640   2670467   2669271   2668055  
  5560.000000   2666818   2665572   2664328   2663102   2661895  
  5550.000000   2660702   2659506   2658295   2657066   2655831  
  5540.000000   2654608   2653417   2652263   2651136   2650015  
  5530.000000   2648877   2647713   2646532   2645354   2644205  
  5520.000000   2643097   2642025   2640965   2639891   2638780  
  5510.000000   2637629   2636446   2635254   2634066   2632893  
  5500.000000   2631729   2630572   2629417   2628273   2627144  
  5490.000000   2626031   2624910   2623744   2622480   2621076  
  5480.000000   2619509   2617797   2615979   2614115   2612254  
  5470.000000   2610429   2608641   2606877   2605112   2603331  
  5460.000000   2601522   2599687   2597815   2595900   2593926  
  5450.000000   2591886   2589785   2587647   2585510   2583408  
  5440.000000   2581368   2579394   2577482   2575619   2573811  
  5430.000000   2572067   2570408   2568839   2567358   2565933  
  5420.000000   2564543   2563163   2561814   2560524   2559357  
  5410.000000   2558345   2557507   2556805   2556196   2555618  
  5400.000000   2555058   2554516   2554051   2553711   2553554  
  5390.000000   2553579   2553781   2554110   2554550   2555082  
  5380.000000   2555742   2556549   2557548   2558729   2560092  
  5370.000000   2561581   2563187   2564873   2566675   2568591  
  5360.000000   2570683   2572947   2575436   2578131   2581092  
  5350.000000   2584316   2587889   2591817   2596176   2600938  
  5340.000000   2606146   2611742   2617775   2624205   2631102  
  5330.000000   2638430   2646249   2654490   2663193   2672288  
  5320.000000   2681853   2691870   2702484   2713711   2725703  
  5310.000000   2738439   2752015   2766348   2781495   2797369  
  5300.000000   2814045   2831474   2849772   2868917   2889033  
  5290.000000   2910077   2932112   2955019   2978764   3003167  
  5280.000000   3028176   3053670   3079702   3106284   3133558  
  5270.000000   3161559   3190324   3219723   3249575   3279627  
  5260.000000   3309678   3339612   3369427   3399211   3429036  
  5250.000000   3458939   3488796   3518431   3547537   3575921  
  5240.000000   3603378   3629946   3655641   3680670   3705094  
  5230.000000   3729064   3752498   3775382   3797502   3818793  
  5220.000000   3839084   3858432   3876807   3894400   3911255  
  5210.000000   3927561   3943284   3958479   3972979   3986752  
  5200.000000   3999623   4011641   4022753   4033117   4042745  
  5190.000000   4051782   4060177   4067987   4075100   4081556  
  5180.000000   4087271   4092337   4096717   4100511   4103666  
  5170.000000   4106247   4108186   4109557   4110335   4110633  
  5160.000000   4110453   4109886   4108888   4107489   4105611  
  5150.000000   4103285   4100477   4097277   4093703   4089852  
  5140.000000   4085720   4081353   4076709   4071812   4066637  
  5130.000000   4061235   4055617   4049847   4043931   4037907  
  5120.000000   4031761   4025518   4019174   4012763   4006298  
  5110.000000   3999809   3993296   3986768   3980217   3973655  
  5100.000000   3967097   3960579   3954131   3947784   3941541  
  5090.000000   3935397   3929324   3923301   3917308   3911338  
  5080.000000   3905386   3899452   3893521   3887581   3881606  
  5070.000000   3875584   3869503   3863372   3857193   3850976  
  5060.000000   3844709   3838384   3831972   3825460   3818833  
  5050.000000   3812102   3805274   3798372   3791403   3784376  
  5040.000000   3777287   3770142   3762946   3755721   3748494  
  5030.000000   3741297   3734152   3727073   3720062   3713109  
  5020.000000   3706210   3699357   3692563   3685834   3679198  
  5010.000000   3672662   3666256   3659977   3653851   3647872  
  5000.000000   3642066   3636425   3630979   3625714   3620659  
  4990.000000   3615800   3611174   3606774   3602648   3598793  
  4980.000000   3595255   3592017   3589109   3586492   3584188  
  4970.000000   3582156   3580430   3578981   3577860   3577049  
  4960.000000   3576603   3576503   3576805   3577483   3578593  
  4950.000000   3580106   3582070   3584447   3587270   3590487  
  4940.000000   3594124   3598127   3602526   3607275   3612411  
  4930.000000   3617887   3623738   3629919   3636459   3643316  
  4920.000000   3650524   3658048   3665918   3674103   3682625  
  4910.000000   3691451   3700593   3710018   3719725   3729674  
  4900.000000   3739843   3750184   3760656   3771212   3781811  
  4890.000000   3792419   3802996   3813516   3823925   3834186  
  4880.000000   3844227   3854014   3863477   3872604   3881340  
  4870.000000   3889689   3897593   3905051   3911997   3918435  
  4860.000000   3924314   3929673   3934500   3938871   3942793  
  4850.000000   3946344   3949523   3952388   3954928   3957194  
  4840.000000   3959186   3960967   3962556   3964021   3965385  
  4830.000000   3966703   3967986   3969265   3970534   3971804  
  4820.000000   3973066   3974324   3975579   3976847   3978148  
  4810.000000   3979511   3980963   3982528   3984220   3986037  
  4800.000000   3987971   3990000   3992106   3994267   3996473  
  4790.000000   3998712   4000978   4003265   4005567   4007878  
  4780.000000   4010191   4012501   4014801   4017083   4019334  
  4770.000000   4021540   4023682   4025746   4027718   4029597  
  4760.000000   4031381   4033082   4034705   4036263   4037758  
  4750.000000   4039202   4040593   4041944   4043254   4044538  
  4740.000000   4045790   4047014   4048197   4049333   4050405  
  4730.000000   4051409   4052336   4053190   4053972   4054687  
  4720.000000   4055337   4055923   4056449   4056921   4057354  
  4710.000000   4057771   4058206   4058693   4059270   4059963  
  4700.000000   4060792   4061761   4062869   4064105   4065466  
  4690.000000   4066944   4068543   4070260   4072098   4074041  
  4680.000000   4076070   4078142   4080221   4082252   4084203  
  4670.000000   4086036   4087748   4089338   4090834   4092262  
  4660.000000   4093672   4095104   4096617   4098254   4100067  
  4650.000000   4102090   4104351   4106861   4109613   4112587  
  4640.000000   4115748   4119052   4122449   4125888   4129316  
  4630.000000   4132686   4135950   4139075   4142027   4144792  
  4620.000000   4147347   4149686   4151783   4153632   4155204  
  4610.000000   4156504   4157524   4158302   4158863   4159275  
  4600.000000   4159571   4159808   4159986   4160126   4160192  
  4590.000000   4160179   4160042   4159774   4159338   4158731  
  4580.000000   4157915   4156888   4155617   4154112   4152368  
  4570.000000   4150422   4148299   4146052   4143705   4141295  
  4560.000000   4138824   4136305   4133727   4131099   4128419  
  4550.000000   4125702   4122950   4120172   4117360   4114510  
  4540.000000   4111612   4108666   4105684   4102685   4099701  
  4530.000000   4096753   4093867   4091042   4088290   4085594  
  4520.000000   4082972   4080415   4077966   4075631   4073476  
  4510.000000   4071508   4069805   4068374   4067306   4066612  
  4500.000000   4066393   4066655   4067493   4068892   4070937  
  4490.000000   4073598   4076963   4081005   4085821   4091380  
  4480.000000   4097760   4104900   4112843   4121498   4130889  
  4470.000000   4140928   4151651   4162987   4174978   4187553  
  4460.000000   4200731   4214421   4228606   4243178   4258100  
  4450.000000   4273269   4288645   4304145   4319739   4335372  
  4440.000000   4351024   4366666   4382278   4397847   4413338  
  4430.000000   4428743   4444005   4459112   4473986   4488615  
  4420.000000   4502902   4516835   4530306   4543299   4555700  
  4410.000000   4567486   4578542   4588851   4598315   4606948  
  4400.000000   4614700   4621639   4627778   4633239   4638083  
  4390.000000   4642460   4646450   4650202   4653788   4657323  
  4380.000000   4660846   4664422   4668053   4671766   4675555  
  4370.000000   4679449   4683467   4687655   4692056   4696709  
  4360.000000   4701642   4706866   4712360   4718107   4724035  
  4350.000000   4730118   4736258   4742454   4748630   4754840  
  4340.000000   4761054   4767331   4773581   4779694   4785329  
  4330.000000   4790058   4793283   4794445   4793068   4788972  
  4320.000000   4782286   4773525   4763439   4752935   4742829  
  4310.000000   4733785   4726154   4720056   4715356   4711840  
  4300.000000   4709237   4707340   4705995   4705102   4704619  
  4290.000000   4704479   4704669   4705124   4705850   4706808  
  4280.000000   4708023   4709477   4711168   4713071   4715149  
  4270.000000   4717384   4719726   4722144   4724524   4726714  
  4260.000000   4728442   4729395   4729215   4727621   4724450  
  4250.000000   4719743   4713723   4706795   4699421   4692091  
  4240.000000   4685172   4678934   4673455   4668720   4664598  
  4230.000000   4660948   4657613   4654471   4651439   4648458  
  4220.000000   4645520   4642612   4639786   4637067   4634549  
  4210.000000   4632277   4630349   4628793   4627665   4626947  
  4200.000000   4626642   4626690   4627059   4627668   4628479  
  4190.000000   4629412   4630444   4631515   4632635   4633773  
  4180.000000   4634973   4636227   4637596   4639082   4640752  
  4170.000000   4642619   4644765   4647216   4650063   4653328  
  4160.000000   4657085   4661319   4666062   4671259   4676917  
  4150.000000   4682966   4689423   4696234   4703437   4710998  
  4140.000000   4718974   4727335   4736141   4745351   4755014  
  4130.000000   4765075   4775566   4786433   4797719   4809399  
  4120.000000   4821549   4834186   4847406   4861230   4875725  
  4110.000000   4890865   4906648   4922980   4939792   4956947  
  4100.000000   4974352   4991879   5009464   5027042   5044613  
  4090.000000   5062189   5079812   5097528   5115364   5133343  
  4080.000000   5151437   5169632   5187851   5206057   5224145  
  4070.000000   5242067   5259697   5276987   5293817   5310167  
  4060.000000   5325944   5341171   5355778   5369815   5383226  
  4050.000000   5396087   5408366   5420176   5431495   5442420  
  4040.000000   5452871   5462870   5472258   5481017   5488995  
  4030.000000   5496231   5502653   5508361   5513321   5517610  
  4020.000000   5521142   5523965   5526042   5527441   5528113  
  4010.000000   5528193   5527757   5526827   5525185   5522892  
  4000.000000   5520269  
##END= 
