##TITLE= Sample 035 By ssteindl date Montag, November 26 2018
##JCAMP-DX= 4.24
##DATA TYPE= INFRARED SPECTRUM
##ORIGIN= Exported PE Spectrum Data File
##OWNER= Sandra Steindl
##DATE= 18/11/26
##TIME= 11:53:57.00
##SPECTROMETER/DATA SYSTEM= PERKIN-ELMER Frontier FT-IR/NIR IR
##INSTRUMENT PARAMETERS=
  APODIZATION=stark
  DETECTOR=INGAAS
##RESOLUTION= 16.000000
##DELTAX= -2.000000
##XUNITS= 1/CM
##YUNITS= A
##XFACTOR= 1.00
##YFACTOR= 0.00000011920928955078
##FIRSTX= 10000.00
##LASTX= 4000.00
##NPOINTS= 3001
##FIRSTY= 0.284046
##MAXY= 0.634942
##MINY= 0.226481
##XYDATA= (X++(Y..Y))
 10000.000000   2382751   2374832   2368832   2367139   2369631  
  9990.000000   2374026   2378013   2380089   2379540   2376483  
  9980.000000   2372154   2368095   2365351   2363963   2363332  
  9970.000000   2362555   2360975   2358542   2355799   2353582  
  9960.000000   2352534   2352877   2354333   2356387   2358580  
  9950.000000   2360648   2362560   2364170   2365143   2364773  
  9940.000000   2362331   2357371   2350166   2341811   2334016  
  9930.000000   2328603   2326869   2329196   2334908   2342610  
  9920.000000   2350635   2357612   2362739   2365821   2367074  
  9910.000000   2366828   2365430   2363174   2360474   2357852  
  9900.000000   2355911   2355111   2355561   2356957   2358643  
  9890.000000   2359945   2360395   2359988   2359093   2358253  
  9880.000000   2357855   2357880   2357902   2357276   2355509  
  9870.000000   2352569   2348971   2345656   2343548   2343280  
  9860.000000   2344863   2347812   2351298   2354512   2356898  
  9850.000000   2358216   2358488   2357752   2355959   2352919  
  9840.000000   2348454   2342593   2335738   2328673   2322401  
  9830.000000   2317864   2315643   2315804   2317835   2320839  
  9820.000000   2323752   2325639   2325943   2324539   2321791  
  9810.000000   2318312   2314879   2312117   2310458   2309988  
  9800.000000   2310547   2311803   2313417   2315188   2317074  
  9790.000000   2319243   2321873   2325116   2328860   2332793  
  9780.000000   2336373   2339028   2340309   2340022   2338307  
  9770.000000   2335522   2332118   2328443   2324609   2320500  
  9760.000000   2315836   2310403   2304199   2297595   2291266  
  9750.000000   2286058   2282658   2281378   2281951   2283629  
  9740.000000   2285421   2286424   2286205   2284851   2282971  
  9730.000000   2281334   2280589   2280952   2282166   2283634  
  9720.000000   2284751   2285185   2285065   2284894   2285305  
  9710.000000   2286720   2289100   2291894   2294226   2295224  
  9700.000000   2294373   2291678   2287637   2283031   2278633  
  9690.000000   2275035   2272520   2271181   2270935   2271672  
  9680.000000   2273168   2275113   2277016   2278305   2278436  
  9670.000000   2277103   2274378   2270689   2266706   2263019  
  9660.000000   2259995   2257580   2255475   2253262   2250717  
  9650.000000   2247881   2245090   2242765   2241233   2240567  
  9640.000000   2240618   2241155   2242022   2243261   2245028  
  9630.000000   2247510   2250733   2254553   2258693   2262867  
  9620.000000   2266882   2270628   2273996   2276705   2278280  
  9610.000000   2278065   2275548   2270587   2263684   2255920  
  9600.000000   2248678   2243198   2240091   2239215   2239756  
  9590.000000   2240737   2241447   2241822   2242337   2243709  
  9580.000000   2246343   2250066   2254076   2257292   2258879  
  9570.000000   2258608   2257053   2255241   2254217   2254479  
  9560.000000   2255749   2257098   2257384   2255815   2252308  
  9550.000000   2247556   2242683   2238791   2236460   2235662  
  9540.000000   2235816   2236233   2236384   2236136   2235666  
  9530.000000   2235268   2235102   2235074   2234853   2234052  
  9520.000000   2232424   2229971   2226966   2223777   2220735  
  9510.000000   2217990   2215514   2213201   2210953   2208778  
  9500.000000   2206748   2204942   2203406   2202094   2200946  
  9490.000000   2199888   2198884   2197905   2196903   2195788  
  9480.000000   2194476   2192938   2191317   2189935   2189268  
  9470.000000   2189749   2191568   2194488   2197849   2200741  
  9460.000000   2202344   2202224   2200538   2197932   2195327  
  9450.000000   2193526   2192970   2193605   2194951   2196360  
  9440.000000   2197220   2197234   2196436   2195200   2194023  
  9430.000000   2193392   2193603   2194705   2196465   2198389  
  9420.000000   2199791   2199914   2198169   2194349   2188829  
  9410.000000   2182510   2176621   2172318   2170307   2170591  
  9400.000000   2172471   2174794   2176384   2176488   2175031  
  9390.000000   2172620   2170249   2168878   2169091   2170899  
  9380.000000   2173860   2177235   2180309   2182531   2183659  
  9370.000000   2183720   2182944   2181687   2180350   2179373  
  9360.000000   2179133   2179880   2181579   2183878   2186153  
  9350.000000   2187712   2188059   2187082   2185100   2182723  
  9340.000000   2180573   2179021   2178023   2177183   2175984  
  9330.000000   2174142   2171779   2169481   2167956   2167815  
  9320.000000   2169173   2171677   2174527   2176844   2177941  
  9310.000000   2177526   2175723   2172854   2169274   2165145  
  9300.000000   2160496   2155258   2149486   2143425   2137542  
  9290.000000   2132372   2128347   2125672   2124289   2123996  
  9280.000000   2124553   2125804   2127683   2130115   2132961  
  9270.000000   2135908   2138597   2140651   2141899   2142382  
  9260.000000   2142401   2142331   2142498   2143044   2143915  
  9250.000000   2144945   2145949   2146843   2147624   2148346  
  9240.000000   2148980   2149390   2149314   2148491   2146780  
  9230.000000   2144263   2141260   2138201   2135490   2133360  
  9220.000000   2131828   2130733   2129834   2128975   2128136  
  9210.000000   2127463   2127155   2127379   2128194   2129522  
  9200.000000   2131190   2132967   2134647   2136051   2137043  
  9190.000000   2137504   2137338   2136535   2135197   2133569  
  9180.000000   2131986   2130810   2130335   2130654   2131613  
  9170.000000   2132796   2133650   2133641   2132408   2129865  
  9160.000000   2126245   2122102   2118198   2115326   2114067  
  9150.000000   2114701   2117086   2120731   2124842   2128582  
  9140.000000   2131279   2132596   2132563   2131490   2129827  
  9130.000000   2127939   2126001   2123926   2121512   2118565  
  9120.000000   2115082   2111312   2107695   2104752   2102861  
  9110.000000   2102187   2102578   2103683   2105032   2106226  
  9100.000000   2107019   2107338   2107243   2106845   2106274  
  9090.000000   2105615   2104933   2104253   2103606   2102986  
  9080.000000   2102360   2101656   2100799   2099762   2098588  
  9070.000000   2097408   2096388   2095673   2095301   2095168  
  9060.000000   2095049   2094675   2093841   2092496   2090774  
  9050.000000   2088952   2087368   2086290   2085860   2086040  
  9040.000000   2086674   2087492   2088204   2088543   2088331  
  9030.000000   2087504   2086124   2084414   2082723   2081485  
  9020.000000   2081089   2081789   2083594   2086223   2089142  
  9010.000000   2091702   2093340   2093700   2092725   2090632  
  9000.000000   2087858   2084887   2082127   2079846   2078180  
  8990.000000   2077179   2076824   2077096   2077940   2079263  
  8980.000000   2080869   2082497   2083866   2084727   2084923  
  8970.000000   2084407   2083262   2081639   2079712   2077647  
  8960.000000   2075610   2073790   2072391   2071633   2071678  
  8950.000000   2072557   2074085   2075872   2077391   2078103  
  8940.000000   2077618   2075826   2072972   2069570   2066278  
  8930.000000   2063692   2062232   2062011   2062845   2064330  
  8920.000000   2065980   2067376   2068243   2068519   2068303  
  8910.000000   2067837   2067374   2067157   2067334   2067943  
  8900.000000   2068908   2070036   2071098   2071827   2072005  
  8890.000000   2071461   2070133   2068038   2065279   2062040  
  8880.000000   2058573   2055194   2052236   2050057   2048962  
  8870.000000   2049170   2050707   2053383   2056790   2060360  
  8860.000000   2063482   2065594   2066352   2065668   2063784  
  8850.000000   2061152   2058371   2056008   2054515   2054125  
  8840.000000   2054823   2056389   2058452   2060625   2062553  
  8830.000000   2064019   2064938   2065371   2065446   2065307  
  8820.000000   2065053   2064701   2064237   2063621   2062868  
  8810.000000   2062046   2061280   2060714   2060425   2060416  
  8800.000000   2060570   2060727   2060743   2060567   2060294  
  8790.000000   2060091   2060156   2060557   2061220   2061879  
  8780.000000   2062208   2061924   2060955   2059499   2058005  
  8770.000000   2057065   2057197   2058721   2061595   2065490  
  8760.000000   2069839   2074049   2077625   2080267   2081899  
  8750.000000   2082580   2082456   2081625   2080146   2078014  
  8740.000000   2075261   2071994   2068446   2064982   2062020  
  8730.000000   2059995   2059197   2059757   2061524   2064163  
  8720.000000   2067165   2070002   2072227   2073561   2073968  
  8710.000000   2073595   2072745   2071723   2070787   2070058  
  8700.000000   2069558   2069230   2069016   2068895   2068890  
  8690.000000   2069055   2069400   2069892   2070412   2070821  
  8680.000000   2071004   2070921   2070643   2070296   2070041  
  8670.000000   2069975   2070121   2070402   2070703   2070909  
  8660.000000   2070977   2070946   2070932   2071087   2071554  
  8650.000000   2072417   2073687   2075299   2077119   2078970  
  8640.000000   2080654   2081996   2082899   2083357   2083488  
  8630.000000   2083480   2083558   2083880   2084484   2085244  
  8620.000000   2085916   2086235   2086028   2085318   2084341  
  8610.000000   2083496   2083195   2083737   2085184   2087346  
  8600.000000   2089831   2092190   2094046   2095210   2095701  
  8590.000000   2095713   2095523   2095388   2095489   2095872  
  8580.000000   2096485   2097181   2097791   2098149   2098152  
  8570.000000   2097774   2097084   2096254   2095522   2095146  
  8560.000000   2095326   2096144   2097538   2099313   2101192  
  8550.000000   2102921   2104331   2105409   2106265   2107098  
  8540.000000   2108105   2109411   2111019   2112791   2114494  
  8530.000000   2115843   2116586   2116546   2115684   2114102  
  8520.000000   2112048   2109869   2107932   2106561   2105947  
  8510.000000   2106118   2106916   2108081   2109317   2110411  
  8500.000000   2111271   2111962   2112657   2113542   2114736  
  8490.000000   2116194   2117749   2119106   2119984   2120173  
  8480.000000   2119642   2118543   2117180   2115954   2115241  
  8470.000000   2115337   2116351   2118213   2120670   2123367  
  8460.000000   2125919   2127988   2129359   2129957   2129857  
  8450.000000   2129215   2128235   2127100   2125987   2125034  
  8440.000000   2124373   2124125   2124396   2125244   2126616  
  8430.000000   2128354   2130198   2131864   2133114   2133857  
  8420.000000   2134178   2134310   2134543   2135114   2136130  
  8410.000000   2137523   2139085   2140551   2141684   2142362  
  8400.000000   2142564   2142380   2141920   2141311   2140627  
  8390.000000   2139932   2139261   2138657   2138137   2137690  
  8380.000000   2137239   2136674   2135863   2134723   2133242  
  8370.000000   2131513   2129693   2127955   2126414   2125097  
  8360.000000   2123949   2122891   2121881   2120951   2120207  
  8350.000000   2119766   2119695   2119940   2120326   2120599  
  8340.000000   2120534   2120017   2119112   2118031   2117068  
  8330.000000   2116496   2116478   2117009   2117932   2118988  
  8320.000000   2119913   2120484   2120568   2120110   2119134  
  8310.000000   2117725   2116020   2114198   2112461   2111013  
  8300.000000   2110009   2109533   2109549   2109930   2110483  
  8290.000000   2111012   2111366   2111462   2111279   2110816  
  8280.000000   2110072   2109024   2107661   2106018   2104210  
  8270.000000   2102451   2101011   2100156   2100040   2100648  
  8260.000000   2101758   2103014   2104010   2104411   2104039  
  8250.000000   2102912   2101225   2099274   2097367   2095738  
  8240.000000   2094513   2093703   2093235   2092992   2092840  
  8230.000000   2092646   2092274   2091619   2090603   2089225  
  8220.000000   2087563   2085784   2084112   2082764   2081889  
  8210.000000   2081490   2081418   2081408   2081166   2080478  
  8200.000000   2079277   2077677   2075919   2074294   2073028  
  8190.000000   2072213   2071768   2071504   2071189   2070656  
  8180.000000   2069845   2068814   2067678   2066547   2065454  
  8170.000000   2064338   2063069   2061508   2059582   2057320  
  8160.000000   2054856   2052384   2050091   2048103   2046455  
  8150.000000   2045107   2043975   2042970   2042033   2041123  
  8140.000000   2040214   2039263   2038226   2037062   2035773  
  8130.000000   2034421   2033139   2032086   2031401   2031148  
  8120.000000   2031276   2031631   2031991   2032142   2031938  
  8110.000000   2031333   2030381   2029186   2027864   2026482  
  8100.000000   2025071   2023604   2022065   2020449   2018799  
  8090.000000   2017191   2015713   2014448   2013444   2012735  
  8080.000000   2012323   2012221   2012416   2012894   2013590  
  8070.000000   2014414   2015227   2015888   2016273   2016292  
  8060.000000   2015910   2015106   2013881   2012199   2010030  
  8050.000000   2007346   2004191   2000706   1997142   1993826  
  8040.000000   1991078   1989143   1988096   1987855   1988187  
  8030.000000   1988811   1989468   1990001   1990366   1990600  
  8020.000000   1990771   1990905   1990985   1990927   1990659  
  8010.000000   1990114   1989306   1988275   1987093   1985815  
  8000.000000   1984462   1983047   1981588   1980164   1978906  
  7990.000000   1977984   1977543   1977641   1978193   1978974  
  7980.000000   1979671   1979973   1979675   1978737   1977317  
  7970.000000   1975705   1974249   1973232   1972804   1972942  
  7960.000000   1973477   1974147   1974693   1974923   1974764  
  7950.000000   1974271   1973586   1972891   1972338   1972012  
  7940.000000   1971909   1971945   1972012   1972002   1971867  
  7930.000000   1971610   1971278   1970922   1970559   1970164  
  7920.000000   1969675   1969043   1968275   1967469   1966800  
  7910.000000   1966473   1966636   1967320   1968388   1969585  
  7900.000000   1970599   1971174   1971192   1970694   1969856  
  7890.000000   1968897   1967995   1967233   1966584   1965966  
  7880.000000   1965308   1964609   1963940   1963422   1963139  
  7870.000000   1963091   1963158   1963143   1962839   1962121  
  7860.000000   1961003   1959635   1958259   1957109   1956342  
  7850.000000   1955978   1955919   1955995   1956044   1955972  
  7840.000000   1955779   1955542   1955365   1955333   1955470  
  7830.000000   1955736   1956046   1956306   1956449   1956445  
  7820.000000   1956303   1956057   1955737   1955365   1954936  
  7810.000000   1954437   1953845   1953155   1952374   1951535  
  7800.000000   1950685   1949875   1949144   1948509   1947951  
  7790.000000   1947423   1946861   1946202   1945407   1944479  
  7780.000000   1943463   1942449   1941541   1940839   1940411  
  7770.000000   1940276   1940396   1940682   1941008   1941236  
  7760.000000   1941240   1940935   1940299   1939371   1938254  
  7750.000000   1937078   1935973   1935025   1934255   1933616  
  7740.000000   1933019   1932370   1931617   1930775   1929922  
  7730.000000   1929175   1928637   1928354   1928294   1928347  
  7720.000000   1928373   1928239   1927877   1927285   1926532  
  7710.000000   1925710   1924901   1924158   1923491   1922896  
  7700.000000   1922369   1921931   1921615   1921459   1921467  
  7690.000000   1921591   1921731   1921753   1921531   1920986  
  7680.000000   1920118   1919000   1917759   1916535   1915448  
  7670.000000   1914570   1913927   1913504   1913264   1913161  
  7660.000000   1913142   1913155   1913136   1913029   1912787  
  7650.000000   1912394   1911872   1911278   1910689   1910165  
  7640.000000   1909740   1909378   1909006   1908511   1907799  
  7630.000000   1906814   1905576   1904177   1902762   1901499  
  7620.000000   1900535   1899974   1899860   1900175   1900850  
  7610.000000   1901771   1902800   1903781   1904570   1905043  
  7600.000000   1905136   1904842   1904229   1903416   1902562  
  7590.000000   1901812   1901277   1901001   1900959   1901072  
  7580.000000   1901231   1901341   1901336   1901197   1900947  
  7570.000000   1900637   1900329   1900078   1899922   1899873  
  7560.000000   1899933   1900086   1900321   1900622   1900980  
  7550.000000   1901380   1901804   1902226   1902613   1902930  
  7540.000000   1903156   1903281   1903330   1903341   1903373  
  7530.000000   1903470   1903659   1903934   1904263   1904604  
  7520.000000   1904931   1905248   1905595   1906042   1906654  
  7510.000000   1907470   1908481   1909627   1910821   1911967  
  7500.000000   1912992   1913853   1914548   1915093   1915517  
  7490.000000   1915843   1916107   1916346   1916622   1916989  
  7480.000000   1917497   1918154   1918917   1919705   1920422  
  7470.000000   1921009   1921477   1921917   1922480   1923315  
  7460.000000   1924519   1926079   1927876   1929713   1931399  
  7450.000000   1932793   1933876   1934718   1935467   1936264  
  7440.000000   1937214   1938335   1939587   1940894   1942193  
  7430.000000   1943461   1944721   1946024   1947421   1948946  
  7420.000000   1950595   1952343   1954144   1955951   1957719  
  7410.000000   1959398   1960946   1962318   1963491   1964470  
  7400.000000   1965303   1966069   1966860   1967759   1968811  
  7390.000000   1970027   1971378   1972837   1974380   1976018  
  7380.000000   1977769   1979650   1981641   1983682   1985684  
  7370.000000   1987545   1989190   1990583   1991744   1992722  
  7360.000000   1993579   1994357   1995083   1995766   1996424  
  7350.000000   1997099   1997861   1998796   1999964   2001384  
  7340.000000   2003003   2004725   2006427   2008016   2009452  
  7330.000000   2010761   2012021   2013323   2014731   2016255  
  7320.000000   2017843   2019396   2020806   2021989   2022921  
  7310.000000   2023642   2024241   2024831   2025503   2026311  
  7300.000000   2027246   2028265   2029302   2030308   2031258  
  7290.000000   2032167   2033061   2033966   2034878   2035766  
  7280.000000   2036574   2037249   2037769   2038153   2038472  
  7270.000000   2038818   2039282   2039916   2040720   2041644  
  7260.000000   2042616   2043562   2044443   2045254   2046033  
  7250.000000   2046826   2047682   2048619   2049644   2050728  
  7240.000000   2051852   2052985   2054123   2055254   2056394  
  7230.000000   2057545   2058734   2059982   2061333   2062824  
  7220.000000   2064501   2066386   2068499   2070828   2073362  
  7210.000000   2076064   2078909   2081842   2084814   2087749  
  7200.000000   2090583   2093260   2095775   2098166   2100537  
  7190.000000   2103009   2105706   2108691   2111954   2115390  
  7180.000000   2118846   2122153   2125202   2127951   2130460  
  7170.000000   2132825   2135185   2137635   2140247   2143022  
  7160.000000   2145959   2149035   2152269   2155690   2159357  
  7150.000000   2163309   2167572   2172120   2176901   2181822  
  7140.000000   2186808   2191771   2196677   2201498   2206256  
  7130.000000   2210967   2215678   2220415   2225223   2230114  
  7120.000000   2235112   2240209   2245408   2250692   2256060  
  7110.000000   2261498   2267006   2272568   2278179   2283821  
  7100.000000   2289502   2295228   2301041   2306970   2313056  
  7090.000000   2319297   2325673   2332115   2338555   2344916  
  7080.000000   2351172   2357327   2363439   2369584   2375844  
  7070.000000   2382271   2388883   2395653   2402528   2409440  
  7060.000000   2416325   2423129   2429820   2436379   2442814  
  7050.000000   2449146   2455408   2461637   2467860   2474080  
  7040.000000   2480285   2486447   2492538   2498555   2504513  
  7030.000000   2510463   2516454   2522533   2528711   2534969  
  7020.000000   2541251   2547496   2553636   2559631   2565452  
  7010.000000   2571094   2576551   2581839   2586972   2591990  
  7000.000000   2596937   2601871   2606827   2611823   2616826  
  6990.000000   2621790   2626640   2631336   2635856   2640236  
  6980.000000   2644518   2648760   2652983   2657190   2661340  
  6970.000000   2665402   2669341   2673158   2676854   2680449  
  6960.000000   2683933   2687294   2690490   2693506   2696334  
  6950.000000   2699019   2701609   2704172   2706737   2709314  
  6940.000000   2711861   2714335   2716679   2718874   2720909  
  6930.000000   2722808   2724587   2726279   2727895   2729463  
  6920.000000   2731000   2732541   2734102   2735693   2737287  
  6910.000000   2738846   2740310   2741641   2742819   2743865  
  6900.000000   2744815   2745719   2746608   2747497   2748383  
  6890.000000   2749262   2750141   2751047   2752013   2753071  
  6880.000000   2754225   2755458   2756724   2757976   2759170  
  6870.000000   2760287   2761317   2762255   2763091   2763805  
  6860.000000   2764373   2764789   2765068   2765262   2765435  
  6850.000000   2765664   2766001   2766475   2767085   2767817  
  6840.000000   2768640   2769532   2770456   2771373   2772222  
  6830.000000   2772946   2773495   2773853   2774040   2774112  
  6820.000000   2774137   2774169   2774223   2774281   2774298  
  6810.000000   2774241   2774099   2773906   2773715   2773584  
  6800.000000   2773535   2773559   2773602   2773605   2773522  
  6790.000000   2773344   2773093   2772816   2772554   2772332  
  6780.000000   2772146   2771977   2771798   2771590   2771345  
  6770.000000   2771060   2770730   2770348   2769908   2769414  
  6760.000000   2768886   2768358   2767869   2767445   2767089  
  6750.000000   2766784   2766501   2766223   2765950   2765711  
  6740.000000   2765539   2765453   2765441   2765451   2765408  
  6730.000000   2765241   2764912   2764429   2763846   2763242  
  6720.000000   2762691   2762245   2761917   2761696   2761550  
  6710.000000   2761447   2761352   2761236   2761064   2760808  
  6700.000000   2760440   2759957   2759371   2758718   2758032  
  6690.000000   2757341   2756639   2755902   2755089   2754172  
  6680.000000   2753145   2752036   2750888   2749749   2748639  
  6670.000000   2747562   2746493   2745411   2744301   2743179  
  6660.000000   2742061   2740971   2739910   2738860   2737787  
  6650.000000   2736661   2735464   2734204   2732892   2731541  
  6640.000000   2730146   2728692   2727162   2725559   2723913  
  6630.000000   2722283   2720727   2719282   2717935   2716637  
  6620.000000   2715308   2713885   2712344   2710715   2709066  
  6610.000000   2707473   2705975   2704566   2703191   2701778  
  6600.000000   2700270   2698652   2696951   2695220   2693506  
  6590.000000   2691833   2690191   2688556   2686906   2685245  
  6580.000000   2683597   2682002   2680486   2679044   2677638  
  6570.000000   2676208   2674697   2673067   2671320   2669484  
  6560.000000   2667606   2665733   2663904   2662149   2660489  
  6550.000000   2658941   2657516   2656210   2654999   2653839  
  6540.000000   2652681   2651484   2650238   2648958   2647684  
  6530.000000   2646451   2645273   2644124   2642962   2641731  
  6520.000000   2640407   2639000   2637559   2636156   2634853  
  6510.000000   2633684   2632645   2631705   2630822   2629967  
  6500.000000   2629124   2628293   2627471   2626645   2625787  
  6490.000000   2624863   2623850   2622743   2621564   2620347  
  6480.000000   2619127   2617923   2616739   2615569   2614411  
  6470.000000   2613276   2612188   2611173   2610238   2609362  
  6460.000000   2608497   2607578   2606554   2605404   2604150  
  6450.000000   2602849   2601577   2600395   2599344   2598426  
  6440.000000   2597618   2596884   2596194   2595527   2594880  
  6430.000000   2594259   2593678   2593142   2592659   2592214  
  6420.000000   2591792   2591357   2590877   2590319   2589675  
  6410.000000   2588965   2588246   2587598   2587103   2586820  
  6400.000000   2586758   2586872   2587072   2587248   2587307  
  6390.000000   2587191   2586895   2586455   2585931   2585385  
  6380.000000   2584864   2584400   2584004   2583686   2583447  
  6370.000000   2583287   2583192   2583139   2583087   2582994  
  6360.000000   2582821   2582546   2582165   2581687   2581126  
  6350.000000   2580494   2579796   2579040   2578241   2577427  
  6340.000000   2576637   2575915   2575284   2574752   2574291  
  6330.000000   2573863   2573418   2572923   2572357   2571724  
  6320.000000   2571032   2570293   2569501   2568646   2567705  
  6310.000000   2566668   2565532   2564316   2563044   2561749  
  6300.000000   2560453   2559173   2557905   2556647   2555386  
  6290.000000   2554118   2552838   2551553   2550265   2548983  
  6280.000000   2547707   2546437   2545162   2543873   2542554  
  6270.000000   2541198   2539802   2538374   2536927   2535476  
  6260.000000   2534022   2532561   2531069   2529524   2527905  
  6250.000000   2526211   2524455   2522671   2520896   2519160  
  6240.000000   2517478   2515849   2514261   2512701   2511163  
  6230.000000   2509647   2508156   2506687   2505225   2503744  
  6220.000000   2502216   2500618   2498946   2497214   2495452  
  6210.000000   2493694   2491972   2490306   2488708   2487181  
  6200.000000   2485727   2484342   2483018   2481737   2480468  
  6190.000000   2479175   2477825   2476404   2474919   2473399  
  6180.000000   2471886   2470421   2469026   2467704   2466438  
  6170.000000   2465204   2463978   2462747   2461510   2460266  
  6160.000000   2459019   2457762   2456490   2455195   2453878  
  6150.000000   2452549   2451226   2449930   2448676   2447473  
  6140.000000   2446324   2445227   2444181   2443186   2442237  
  6130.000000   2441319   2440412   2439482   2438507   2437470  
  6120.000000   2436378   2435254   2434139   2433066   2432066  
  6110.000000   2431152   2430328   2429588   2428934   2428362  
  6100.000000   2427878   2427472   2427130   2426822   2426523  
  6090.000000   2426205   2425870   2425528   2425214   2424956  
  6080.000000   2424782   2424696   2424695   2424757   2424875  
  6070.000000   2425037   2425250   2425514   2425839   2426211  
  6060.000000   2426627   2427068   2427535   2428024   2428558  
  6050.000000   2429148   2429816   2430561   2431391   2432291  
  6040.000000   2433263   2434305   2435431   2436650   2437977  
  6030.000000   2439414   2440961   2442603   2444330   2446120  
  6020.000000   2447963   2449830   2451705   2453555   2455367  
  6010.000000   2457120   2458828   2460507   2462200   2463943  
  6000.000000   2465771   2467695   2469713   2471796   2473920  
  5990.000000   2476055   2478193   2480333   2482497   2484703  
  5980.000000   2486979   2489336   2491782   2494306   2496899  
  5970.000000   2499539   2502215   2504913   2507636   2510381  
  5960.000000   2513163   2515981   2518844   2521746   2524687  
  5950.000000   2527659   2530669   2533721   2536833   2540017  
  5940.000000   2543285   2546636   2550065   2553564   2557121  
  5930.000000   2560733   2564391   2568085   2571788   2575457  
  5920.000000   2579037   2582469   2585707   2588729   2591544  
  5910.000000   2594184   2596693   2599112   2601466   2603775  
  5900.000000   2606046   2608302   2610567   2612886   2615292  
  5890.000000   2617814   2620446   2623165   2625921   2628668  
  5880.000000   2631362   2633980   2636510   2638946   2641283  
  5870.000000   2643508   2645611   2647587   2649450   2651228  
  5860.000000   2652961   2654685   2656425   2658193   2659989  
  5850.000000   2661817   2663687   2665623   2667654   2669798  
  5840.000000   2672057   2674409   2676816   2679234   2681634  
  5830.000000   2684000   2686336   2688649   2690949   2693229  
  5820.000000   2695482   2697694   2699869   2702021   2704176  
  5810.000000   2706363   2708593   2710868   2713159   2715451  
  5800.000000   2717709   2719945   2722146   2724342   2726513  
  5790.000000   2728655   2730707   2732620   2734306   2735702  
  5780.000000   2736720   2737306   2737386   2736931   2735916  
  5770.000000   2734380   2732391   2730085   2727598   2725093  
  5760.000000   2722676   2720434   2718385   2716531   2714839  
  5750.000000   2713291   2711858   2710529   2709281   2708088  
  5740.000000   2706923   2705758   2704587   2703413   2702265  
  5730.000000   2701164   2700136   2699178   2698282   2697421  
  5720.000000   2696577   2695736   2694902   2694081   2693289  
  5710.000000   2692531   2691819   2691156   2690555   2690021  
  5700.000000   2689560   2689162   2688804   2688452   2688067  
  5690.000000   2687636   2687162   2686688   2686256   2685912  
  5680.000000   2685662   2685482   2685300   2685035   2684596  
  5670.000000   2683924   2682975   2681745   2680240   2678486  
  5660.000000   2676511   2674363   2672094   2669775   2667473  
  5650.000000   2665249   2663133   2661135   2659233   2657406  
  5640.000000   2655630   2653905   2652237   2650644   2649133  
  5630.000000   2647697   2646318   2644970   2643637   2642313  
  5620.000000   2641012   2639741   2638515   2637325   2636162  
  5610.000000   2635007   2633856   2632717   2631612   2630566  
  5600.000000   2629595   2628697   2627851   2627027   2626197  
  5590.000000   2625346   2624475   2623596   2622726   2621876  
  5580.000000   2621052   2620253   2619475   2618717   2617974  
  5570.000000   2617235   2616479   2615675   2614789   2613795  
  5560.000000   2612683   2611466   2610175   2608847   2607512  
  5550.000000   2606192   2604891   2603610   2602349   2601117  
  5540.000000   2599922   2598777   2597681   2596624   2595585  
  5530.000000   2594549   2593505   2592458   2591423   2590416  
  5520.000000   2589445   2588502   2587570   2586627   2585655  
  5510.000000   2584642   2583586   2582486   2581335   2580128  
  5500.000000   2578858   2577532   2576170   2574808   2573480  
  5490.000000   2572209   2570984   2569776   2568529   2567203  
  5480.000000   2565770   2564244   2562656   2561056   2559479  
  5470.000000   2557941   2556430   2554920   2553378   2551785  
  5460.000000   2550131   2548417   2546641   2544803   2542896  
  5450.000000   2540924   2538898   2536849   2534811   2532819  
  5440.000000   2530891   2529031   2527233   2525491   2523810  
  5430.000000   2522199   2520674   2519226   2517840   2516472  
  5420.000000   2515093   2513683   2512271   2510909   2509682  
  5410.000000   2508643   2507821   2507177   2506654   2506171  
  5400.000000   2505690   2505193   2504720   2504313   2504034  
  5390.000000   2503902   2503931   2504098   2504403   2504835  
  5380.000000   2505425   2506178   2507118   2508215   2509454  
  5370.000000   2510780   2512185   2513644   2515202   2516869  
  5360.000000   2518709   2520719   2522946   2525369   2528038  
  5350.000000   2530950   2534183   2537745   2541709   2546050  
  5340.000000   2550811   2555944   2561498   2567441   2573843  
  5330.000000   2580669   2587972   2595681   2603828   2612337  
  5320.000000   2621280   2630638   2640544   2651012   2662183  
  5310.000000   2674033   2686649   2699948   2713984   2728676  
  5300.000000   2744100   2760215   2777138   2794861   2813514  
  5290.000000   2833072   2853614   2875042   2897329   2920300  
  5280.000000   2943891   2967964   2992546   3017629   3043343  
  5270.000000   3069720   3096813   3124508   3152651   3181003  
  5260.000000   3209367   3237625   3265765   3293864   3321994  
  5250.000000   3350203   3378382   3406377   3433895   3460745  
  5240.000000   3486721   3511840   3536104   3559698   3582681  
  5230.000000   3605198   3627184   3648637   3669368   3689326  
  5220.000000   3708354   3726507   3743754   3760272   3776104  
  5210.000000   3791427   3806217   3820531   3834211   3847220  
  5200.000000   3859378   3870704   3881126   3890775   3899655  
  5190.000000   3907916   3915534   3922594   3929018   3934864  
  5180.000000   3940061   3944691   3948712   3952211   3955141  
  5170.000000   3957564   3959425   3960789   3961623   3962013  
  5160.000000   3961936   3961459   3960532   3959189   3957375  
  5150.000000   3955144   3952485   3949492   3946182   3942631  
  5140.000000   3938820   3934777   3930452   3925870   3921015  
  5130.000000   3915948   3910690   3905308   3899811   3894232  
  5120.000000   3888556   3882801   3876962   3871067   3865124  
  5110.000000   3859154   3853147   3847101   3840999   3834847  
  5100.000000   3828659   3822477   3816339   3810287   3804334  
  5090.000000   3798481   3792702   3786978   3781285   3775617  
  5080.000000   3769973   3764358   3758767   3753190   3747602  
  5070.000000   3741987   3736324   3730611   3724843   3719029  
  5060.000000   3713160   3707233   3701231   3695144   3688962  
  5050.000000   3682693   3676345   3669937   3663476   3656973  
  5040.000000   3650419   3643814   3637148   3630429   3623665  
  5030.000000   3616878   3610086   3603308   3596562   3589858  
  5020.000000   3583208   3576622   3570121   3563714   3557430  
  5010.000000   3551275   3545270   3539411   3533711   3528157  
  5000.000000   3522763   3517513   3512430   3507503   3502765  
  4990.000000   3498210   3493877   3489759   3485891   3482254  
  4980.000000   3478879   3475737   3472859   3470222   3467871  
  4970.000000   3465799   3464065   3462661   3461637   3460968  
  4960.000000   3460685   3460745   3461177   3461942   3463083  
  4950.000000   3464572   3466458   3468710   3471366   3474381  
  4940.000000   3477786   3481531   3485649   3490099   3494915  
  4930.000000   3500055   3505548   3511351   3517491   3523932  
  4920.000000   3530708   3537792   3545214   3552940   3560984  
  4910.000000   3569299   3577887   3586708   3595763   3605023  
  4900.000000   3614487   3624125   3633916   3643822   3653803  
  4890.000000   3663821   3673828   3683792   3693660   3703394  
  4880.000000   3712928   3722224   3731206   3739849   3748089  
  4870.000000   3755922   3763304   3770252   3776736   3782793  
  4860.000000   3788401   3793607   3798397   3802816   3806848  
  4850.000000   3810535   3813862   3816877   3819576   3822022  
  4840.000000   3824230   3826267   3828156   3829958   3831693  
  4830.000000   3833408   3835113   3836838   3838581   3840350  
  4820.000000   3842129   3843913   3845688   3847457   3849224  
  4810.000000   3851006   3852819   3854674   3856574   3858509  
  4800.000000   3860465   3862423   3864372   3866308   3868240  
  4790.000000   3870177   3872130   3874102   3876090   3878086  
  4780.000000   3880078   3882061   3884031   3885991   3887942  
  4770.000000   3889885   3891813   3893718   3895587   3897413  
  4760.000000   3899187   3900914   3902592   3904230   3905824  
  4750.000000   3907375   3908868   3910295   3911636   3912884  
  4740.000000   3914023   3915057   3915984   3916819   3917566  
  4730.000000   3918239   3918837   3919364   3919809   3920162  
  4720.000000   3920413   3920560   3920609   3920576   3920491  
  4710.000000   3920386   3920307   3920294   3920392   3920640  
  4700.000000   3921070   3921703   3922550   3923601   3924838  
  4690.000000   3926230   3927742   3929332   3930969   3932618  
  4680.000000   3934258   3935859   3937408   3938879   3940266  
  4670.000000   3941553   3942752   3943867   3944935   3945981  
  4660.000000   3947059   3948207   3949478   3950910   3952538  
  4650.000000   3954382   3956451   3958738   3961227   3963892  
  4640.000000   3966703   3969629   3972639   3975703   3978785  
  4630.000000   3981847   3984844   3987731   3990463   3993007  
  4620.000000   3995336   3997441   3999312   4000955   4002364  
  4610.000000   4003553   4004518   4005286   4005871   4006322  
  4600.000000   4006663   4006950   4007195   4007433   4007646  
  4590.000000   4007837   4007967   4008017   4007939   4007711  
  4580.000000   4007291   4006669   4005824   4004772   4003520  
  4570.000000   4002112   4000568   3998930   3997207   3995417  
  4560.000000   3993548   3991606   3989579   3987480   3985311  
  4550.000000   3983090   3980819   3978507   3976145   3973732  
  4540.000000   3971266   3968760   3966239   3963734   3961282  
  4530.000000   3958899   3956603   3954379   3952224   3950110  
  4520.000000   3948051   3946034   3944103   3942263   3940574  
  4510.000000   3939039   3937724   3936631   3935843   3935371  
  4500.000000   3935320   3935703   3936626   3938086   3940173  
  4490.000000   3942868   3946259   3950325   3955158   3960732  
  4480.000000   3967119   3974261   3982191   3990816   4000146  
  4470.000000   4010082   4020638   4031732   4043383   4055513  
  4460.000000   4068128   4081138   4094525   4108193   4122112  
  4450.000000   4136199   4150431   4164752   4179151   4193600  
  4440.000000   4208092   4222611   4237135   4251649   4266107  
  4430.000000   4280491   4294733   4308817   4322666   4336269  
  4420.000000   4349545   4362491   4375020   4387128   4398717  
  4410.000000   4409768   4420166   4429882   4438805   4446928  
  4400.000000   4454191   4460655   4466340   4471379   4475850  
  4390.000000   4479914   4483657   4487220   4490662   4494081  
  4380.000000   4497501   4500980   4504516   4508133   4511822  
  4370.000000   4515595   4519454   4523417   4527505   4531745  
  4360.000000   4536162   4540783   4545616   4550677   4555931  
  4350.000000   4561379   4566943   4572618   4578323   4584081  
  4340.000000   4589837   4595620   4601335   4606878   4611955  
  4330.000000   4616202   4619106   4620190   4619036   4615479  
  4320.000000   4609621   4601899   4592960   4583597   4574530  
  4310.000000   4566358   4559401   4553782   4549394   4546062  
  4300.000000   4543554   4541696   4540356   4539449   4538929  
  4290.000000   4538729   4538819   4539122   4539626   4540285  
  4280.000000   4541119   4542121   4543304   4544668   4546199  
  4270.000000   4547897   4549726   4551655   4553576   4555341  
  4260.000000   4556698   4557361   4557014   4555419   4552443  
  4250.000000   4548143   4542727   4536558   4530043   4523601  
  4240.000000   4517539   4512077   4507274   4503109   4499468  
  4230.000000   4496224   4493238   4490395   4487611   4484824  
  4220.000000   4482028   4479221   4476479   4473854   4471468  
  4210.000000   4469383   4467698   4466426   4465596   4465161  
  4200.000000   4465097   4465331   4465830   4466528   4467400  
  4190.000000   4468383   4469466   4470592   4471764   4472944  
  4180.000000   4474160   4475395   4476701   4478078   4479595  
  4170.000000   4481273   4483205   4485429   4488045   4491085  
  4160.000000   4494619   4498632   4503147   4508098   4513484  
  4150.000000   4519230   4525349   4531788   4538593   4545732  
  4140.000000   4553270   4561183   4569537   4578298   4587521  
  4130.000000   4597159   4607247   4617733   4628650   4639960  
  4120.000000   4651712   4663892   4676568   4689739   4703463  
  4110.000000   4717726   4732554   4747899   4763740   4779989  
  4100.000000   4796590   4813440   4830476   4847623   4864849  
  4090.000000   4882125   4899444   4916798   4934164   4951528  
  4080.000000   4968847   4986113   5003287   5020382   5037352  
  4070.000000   5054196   5070815   5087161   5103092   5118552  
  4060.000000   5133424   5147720   5161386   5174497   5187033  
  4050.000000   5199089   5210641   5221784   5232475   5242794  
  4040.000000   5252666   5262131   5271070   5279490   5287264  
  4030.000000   5294414   5300837   5306577   5311557   5315819  
  4020.000000   5319275   5321992   5323978   5325339   5326056  
  4010.000000   5326278   5326081   5325458   5324148   5322176  
  4000.000000   5319864  
##END= 
