##TITLE= Sample 013 By ssteindl date Montag, November 26 2018
##JCAMP-DX= 4.24
##DATA TYPE= INFRARED SPECTRUM
##ORIGIN= Exported PE Spectrum Data File
##OWNER= Sandra Steindl
##DATE= 18/11/26
##TIME= 11:33:19.00
##SPECTROMETER/DATA SYSTEM= PERKIN-ELMER Frontier FT-IR/NIR IR
##INSTRUMENT PARAMETERS=
  APODIZATION=stark
  DETECTOR=INGAAS
##RESOLUTION= 16.000000
##DELTAX= -2.000000
##XUNITS= 1/CM
##YUNITS= A
##XFACTOR= 1.00
##YFACTOR= 0.00000011920928955078
##FIRSTX= 10000.00
##LASTX= 4000.00
##NPOINTS= 3001
##FIRSTY= 0.291155
##MAXY= 0.647352
##MINY= 0.226111
##XYDATA= (X++(Y..Y))
 10000.000000   2442385   2437963   2435105   2435705   2439459  
  9990.000000   2444535   2449373   2453208   2455579   2456245  
  9980.000000   2455579   2454118   2452173   2449564   2445978  
  9970.000000   2441091   2434801   2427441   2419737   2412733  
  9960.000000   2407401   2404571   2404587   2407410   2412490  
  9950.000000   2418905   2425455   2430781   2433680   2433225  
  9940.000000   2429085   2421519   2411452   2400221   2389393  
  9930.000000   2380379   2374250   2371519   2372154   2375612  
  9920.000000   2380945   2386966   2392400   2396143   2397492  
  9910.000000   2396364   2393358   2389634   2386583   2385417  
  9900.000000   2386816   2390721   2396468   2402982   2409201  
  9890.000000   2414258   2417634   2419041   2418315   2415306  
  9880.000000   2409986   2402583   2393868   2385134   2378066  
  9870.000000   2374239   2374564   2378966   2386252   2394637  
  9860.000000   2402211   2407746   2410905   2412373   2413321  
  9850.000000   2414906   2417685   2421409   2425205   2427905  
  9840.000000   2428626   2426941   2423018   2417355   2410502  
  9830.000000   2402915   2394801   2386421   2378084   2370446  
  9820.000000   2364296   2360458   2359406   2361090   2364815  
  9810.000000   2369386   2373374   2375442   2374714   2370899  
  9800.000000   2364440   2356289   2347778   2340229   2334749  
  9790.000000   2331944   2331879   2334060   2337635   2341576  
  9780.000000   2344949   2347067   2347601   2346548   2344193  
  9770.000000   2340970   2337453   2334231   2331918   2331032  
  9760.000000   2331875   2334446   2338330   2342858   2347224  
  9750.000000   2350795   2353237   2354583   2355097   2355034  
  9740.000000   2354473   2353164   2350744   2346869   2341609  
  9730.000000   2335479   2329439   2324553   2321607   2320845  
  9720.000000   2321862   2323898   2326150   2328196   2330084  
  9710.000000   2332274   2335273   2339325   2344194   2349211  
  9700.000000   2353560   2356572   2358025   2358132   2357399  
  9690.000000   2356313   2355071   2353557   2351429   2348492  
  9680.000000   2344833   2340963   2337534   2335123   2333857  
  9670.000000   2333405   2333019   2331885   2329421   2325480  
  9660.000000   2320427   2314882   2309560   2304896   2301045  
  9650.000000   2297825   2294985   2292343   2289958   2288108  
  9640.000000   2287178   2287554   2289443   2292890   2297701  
  9630.000000   2303537   2309934   2316339   2322194   2326893  
  9620.000000   2329940   2330927   2329727   2326455   2321545  
  9610.000000   2315611   2309376   2303524   2298593   2294956  
  9600.000000   2292720   2291845   2292047   2293010   2294305  
  9590.000000   2295622   2296692   2297429   2297842   2298027  
  9580.000000   2298109   2298128   2298054   2297701   2296830  
  9570.000000   2295157   2292491   2288774   2284167   2279030  
  9560.000000   2273892   2269334   2265845   2263687   2262781  
  9550.000000   2262748   2263007   2262991   2262358   2261101  
  9540.000000   2259565   2258273   2257732   2258174   2259494  
  9530.000000   2261228   2262794   2263663   2263635   2262854  
  9520.000000   2261774   2260931   2260729   2261292   2262443  
  9510.000000   2263828   2265082   2265972   2266447   2266592  
  9500.000000   2266543   2266399   2266200   2265940   2265606  
  9490.000000   2265205   2264749   2264248   2263657   2262921  
  9480.000000   2261997   2260953   2259973   2259373   2259461  
  9470.000000   2260405   2262070   2263997   2265504   2265932  
  9460.000000   2264887   2262415   2258993   2255369   2252294  
  9450.000000   2250289   2249498   2249682   2250345   2250903  
  9440.000000   2250886   2250033   2248333   2245965   2243207  
  9430.000000   2240385   2237807   2235776   2234522   2234196  
  9420.000000   2234797   2236201   2238152   2240360   2242508  
  9410.000000   2244320   2245539   2245936   2245330   2243604  
  9400.000000   2240772   2236984   2232552   2227876   2223375  
  9390.000000   2219369   2216013   2213290   2211064   2209208  
  9380.000000   2207619   2206308   2205262   2204475   2203860  
  9370.000000   2203332   2202882   2202580   2202641   2203225  
  9360.000000   2204408   2205925   2207228   2207504   2206042  
  9350.000000   2202517   2197280   2191325   2186025   2182702  
  9340.000000   2182184   2184585   2189252   2195027   2200594  
  9330.000000   2204914   2207477   2208319   2207858   2206615  
  9320.000000   2205059   2203481   2202057   2200860   2199940  
  9310.000000   2199317   2198952   2198769   2198585   2198274  
  9300.000000   2197739   2197102   2196586   2196461   2196839  
  9290.000000   2197559   2198199   2198168   2196947   2194239  
  9280.000000   2190139   2185105   2179865   2175178   2171622  
  9270.000000   2169491   2168746   2169130   2170232   2171652  
  9260.000000   2173062   2174267   2175185   2175809   2176183  
  9250.000000   2176337   2176294   2175989   2175331   2174183  
  9240.000000   2172504   2170353   2167953   2165631   2163734  
  9230.000000   2162517   2162036   2162165   2162621   2163115  
  9220.000000   2163415   2163461   2163316   2163136   2163052  
  9210.000000   2163104   2163259   2163422   2163551   2163586  
  9200.000000   2163480   2163101   2162264   2160752   2158433  
  9190.000000   2155383   2151970   2148864   2146837   2146554  
  9180.000000   2148245   2151672   2156108   2160615   2164273  
  9170.000000   2166493   2167160   2166556   2165202   2163557  
  9160.000000   2161895   2160176   2158160   2155545   2152176  
  9150.000000   2148145   2143818   2139777   2136636   2134907  
  9140.000000   2134782   2136153   2138563   2141358   2143800  
  9130.000000   2145297   2145586   2144768   2143276   2141685  
  9120.000000   2140538   2140102   2140287   2140669   2140719  
  9110.000000   2140004   2138409   2136172   2133796   2131826  
  9100.000000   2130610   2130171   2130218   2130302   2130028  
  9090.000000   2129235   2128061   2126857   2126032   2125869  
  9080.000000   2126428   2127550   2128939   2130296   2131406  
  9070.000000   2132167   2132565   2132623   2132375   2131885  
  9060.000000   2131254   2130632   2130163   2129928   2129872  
  9050.000000   2129800   2129427   2128511   2126954   2124895  
  9040.000000   2122637   2120581   2119043   2118158   2117826  
  9030.000000   2117787   2117756   2117521   2117018   2116278  
  9020.000000   2115377   2114333   2113084   2111543   2109696  
  9010.000000   2107676   2105778   2104371   2103796   2104203  
  9000.000000   2105494   2107316   2109172   2110558   2111099  
  8990.000000   2110650   2109304   2107347   2105192   2103287  
  8980.000000   2102076   2101862   2102738   2104500   2106666  
  8970.000000   2108570   2109535   2109108   2107242   2104374  
  8960.000000   2101315   2098973   2098047   2098762   2100821  
  8950.000000   2103483   2105855   2107212   2107251   2106172  
  8940.000000   2104522   2102998   2102168   2102329   2103448  
  8930.000000   2105239   2107314   2109287   2110868   2111852  
  8920.000000   2112107   2111573   2110269   2108352   2106095  
  8910.000000   2103884   2102105   2101062   2100829   2101272  
  8900.000000   2102034   2102734   2103044   2102817   2102076  
  8890.000000   2100958   2099647   2098218   2096651   2094784  
  8880.000000   2092475   2089614   2086252   2082590   2078978  
  8870.000000   2075849   2073615   2072632   2073107   2075086  
  8860.000000   2078392   2082654   2087350   2091870   2095629  
  8850.000000   2098148   2099189   2098766   2097183   2094908  
  8840.000000   2092510   2090490   2089196   2088730   2088939  
  8830.000000   2089491   2089962   2090001   2089405   2088203  
  8820.000000   2086623   2085024   2083763   2083072   2082998  
  8810.000000   2083379   2083956   2084460   2084751   2084856  
  8800.000000   2084952   2085297   2086088   2087403   2089121  
  8790.000000   2091008   2092772   2094186   2095143   2095660  
  8780.000000   2095844   2095791   2095533   2094989   2094014  
  8770.000000   2092444   2090191   2087298   2083962   2080517  
  8760.000000   2077346   2074829   2073227   2072679   2073152  
  8750.000000   2074478   2076375   2078503   2080543   2082224  
  8740.000000   2083395   2083999   2084102   2083829   2083363  
  8730.000000   2082879   2082551   2082505   2082825   2083534  
  8720.000000   2084579   2085848   2087150   2088282   2089047  
  8710.000000   2089330   2089115   2088496   2087639   2086729  
  8700.000000   2085914   2085262   2084748   2084287   2083769  
  8690.000000   2083129   2082363   2081539   2080767   2080159  
  8680.000000   2079787   2079649   2079679   2079747   2079728  
  8670.000000   2079509   2079075   2078485   2077910   2077547  
  8660.000000   2077602   2078185   2079303   2080817   2082520  
  8650.000000   2084181   2085664   2086948   2088160   2089497  
  8640.000000   2091151   2093218   2095653   2098281   2100879  
  8630.000000   2103256   2105330   2107135   2108777   2110357  
  8620.000000   2111895   2113321   2114485   2115250   2115554  
  8610.000000   2115466   2115161   2114861   2114740   2114874  
  8600.000000   2115208   2115619   2115965   2116182   2116287  
  8590.000000   2116402   2116671   2117227   2118113   2119292  
  8580.000000   2120645   2122019   2123261   2124245   2124887  
  8570.000000   2125147   2125029   2124579   2123880   2123048  
  8560.000000   2122204   2121448   2120845   2120411   2120131  
  8550.000000   2119962   2119857   2119773   2119659   2119472  
  8540.000000   2119164   2118725   2118199   2117708   2117436  
  8530.000000   2117590   2118327   2119671   2121478   2123442  
  8520.000000   2125200   2126412   2126891   2126640   2125863  
  8510.000000   2124870   2123982   2123430   2123327   2123669  
  8500.000000   2124383   2125382   2126593   2127953   2129379  
  8490.000000   2130758   2131950   2132824   2133303   2133406  
  8480.000000   2133257   2133042   2132958   2133130   2133593  
  8470.000000   2134279   2135058   2135786   2136351   2136703  
  8460.000000   2136840   2136818   2136719   2136657   2136743  
  8450.000000   2137094   2137789   2138838   2140147   2141523  
  8440.000000   2142719   2143486   2143648   2143154   2142101  
  8430.000000   2140693   2139179   2137783   2136660   2135889  
  8420.000000   2135476   2135396   2135597   2136037   2136646  
  8410.000000   2137344   2138019   2138559   2138890   2138974  
  8400.000000   2138831   2138486   2137976   2137304   2136469  
  8390.000000   2135476   2134386   2133344   2132555   2132241  
  8380.000000   2132533   2133439   2134798   2136338   2137746  
  8370.000000   2138762   2139259   2139245   2138844   2138201  
  8360.000000   2137434   2136589   2135667   2134674   2133660  
  8350.000000   2132753   2132123   2131942   2132292   2133130  
  8340.000000   2134248   2135356   2136130   2136326   2135824  
  8330.000000   2134665   2133042   2131235   2129533   2128156  
  8320.000000   2127204   2126641   2126311   2125985   2125439  
  8310.000000   2124526   2123232   2121674   2120062   2118624  
  8300.000000   2117534   2116849   2116500   2116329   2116172  
  8290.000000   2115930   2115613   2115329   2115238   2115459  
  8280.000000   2116006   2116750   2117455   2117847   2117714  
  8270.000000   2116964   2115672   2114035   2112331   2110819  
  8260.000000   2109680   2108966   2108618   2108490   2108399  
  8250.000000   2108178   2107715   2106996   2106098   2105196  
  8240.000000   2104490   2104183   2104390   2105128   2106273  
  8230.000000   2107595   2108797   2109598   2109790   2109287  
  8220.000000   2108121   2106409   2104302   2101940   2099420  
  8210.000000   2096808   2094152   2091524   2089011   2086729  
  8200.000000   2084758   2083154   2081875   2080841   2079923  
  8190.000000   2079020   2078077   2077097   2076124   2075187  
  8180.000000   2074279   2073317   2072186   2070758   2068975  
  8170.000000   2066869   2064595   2062380   2060458   2058997  
  8160.000000   2058034   2057486   2057176   2056908   2056532  
  8150.000000   2055984   2055291   2054519   2053723   2052891  
  8140.000000   2051945   2050764   2049262   2047439   2045414  
  8130.000000   2043403   2041655   2040371   2039626   2039354  
  8120.000000   2039359   2039386   2039208   2038682   2037790  
  8110.000000   2036611   2035275   2033908   2032591   2031349  
  8100.000000   2030171   2029038   2027951   2026941   2026053  
  8090.000000   2025317   2024723   2024204   2023648   2022926  
  8080.000000   2021936   2020627   2019026   2017221   2015355  
  8070.000000   2013579   2012035   2010828   2010010   2009586  
  8060.000000   2009513   2009721   2010115   2010600   2011079  
  8050.000000   2011478   2011732   2011799   2011657   2011289  
  8040.000000   2010700   2009886   2008859   2007622   2006189  
  8030.000000   2004579   2002829   2000999   1999170   1997451  
  8020.000000   1995946   1994755   1993922   1993453   1993281  
  8010.000000   1993311   1993420   1993512   1993518   1993417  
  8000.000000   1993218   1992929   1992556   1992061   1991398  
  7990.000000   1990503   1989342   1987907   1986246   1984437  
  7980.000000   1982584   1980800   1979192   1977860   1976881  
  7970.000000   1976312   1976162   1976390   1976891   1977511  
  7960.000000   1978084   1978466   1978587   1978460   1978182  
  7950.000000   1977878   1977660   1977572   1977579   1977586  
  7940.000000   1977481   1977191   1976711   1976098   1975437  
  7930.000000   1974789   1974153   1973455   1972586   1971456  
  7920.000000   1970054   1968474   1966900   1965550   1964602  
  7910.000000   1964139   1964119   1964410   1964842   1965275  
  7900.000000   1965640   1965937   1966210   1966484   1966732  
  7890.000000   1966860   1966744   1966275   1965434   1964306  
  7880.000000   1963085   1962011   1961295   1961054   1961262  
  7870.000000   1961768   1962332   1962716   1962743   1962357  
  7860.000000   1961627   1960719   1959839   1959174   1958836  
  7850.000000   1958840   1959114   1959523   1959915   1960159  
  7840.000000   1960175   1959940   1959476   1958842   1958101  
  7830.000000   1957315   1956534   1955798   1955142   1954602  
  7820.000000   1954201   1953961   1953869   1953896   1953977  
  7810.000000   1954034   1953981   1953746   1953283   1952577  
  7800.000000   1951645   1950528   1949287   1947994   1946723  
  7790.000000   1945552   1944539   1943723   1943105   1942655  
  7780.000000   1942306   1941982   1941608   1941134   1940541  
  7770.000000   1939835   1939037   1938165   1937234   1936246  
  7760.000000   1935218   1934179   1933184   1932301   1931594  
  7750.000000   1931093   1930782   1930596   1930449   1930252  
  7740.000000   1929963   1929578   1929143   1928711   1928321  
  7730.000000   1927969   1927615   1927209   1926721   1926177  
  7720.000000   1925658   1925282   1925152   1925309   1925697  
  7710.000000   1926169   1926518   1926545   1926114   1925199  
  7700.000000   1923886   1922350   1920800   1919426   1918339  
  7690.000000   1917566   1917034   1916620   1916184   1915618  
  7680.000000   1914874   1913981   1913022   1912104   1911320  
  7670.000000   1910709   1910249   1909854   1909417   1908843  
  7660.000000   1908100   1907230   1906355   1905630   1905199  
  7650.000000   1905137   1905420   1905924   1906463   1906831  
  7640.000000   1906876   1906520   1905795   1904809   1903728  
  7630.000000   1902709   1901877   1901287   1900929   1900750  
  7620.000000   1900681   1900672   1900705   1900803   1901005  
  7610.000000   1901343   1901801   1902305   1902728   1902914  
  7600.000000   1902744   1902163   1901227   1900080   1898929  
  7590.000000   1897972   1897345   1897075   1897083   1897220  
  7580.000000   1897328   1897309   1897146   1896919   1896754  
  7570.000000   1896785   1897092   1897679   1898477   1899357  
  7560.000000   1900192   1900865   1901313   1901500   1901441  
  7550.000000   1901167   1900737   1900225   1899724   1899325  
  7540.000000   1899112   1899141   1899426   1899942   1900623  
  7530.000000   1901390   1902160   1902872   1903485   1903977  
  7520.000000   1904347   1904603   1904777   1904910   1905069  
  7510.000000   1905313   1905696   1906231   1906893   1907610  
  7500.000000   1908289   1908842   1909223   1909440   1909562  
  7490.000000   1909695   1909960   1910452   1911222   1912257  
  7480.000000   1913486   1914798   1916066   1917177   1918064  
  7470.000000   1918716   1919194   1919605   1920083   1920736  
  7460.000000   1921626   1922731   1923964   1925187   1926277  
  7450.000000   1927152   1927812   1928327   1928816   1929401  
  7440.000000   1930175   1931174   1932386   1933774   1935301  
  7430.000000   1936948   1938711   1940582   1942531   1944490  
  7420.000000   1946367   1948050   1949458   1950544   1951329  
  7410.000000   1951876   1952286   1952669   1953135   1953781  
  7400.000000   1954681   1955886   1957406   1959212   1961215  
  7390.000000   1963294   1965311   1967151   1968754   1970123  
  7380.000000   1971330   1972472   1973648   1974910   1976263  
  7370.000000   1977670   1979086   1980475   1981836   1983194  
  7360.000000   1984579   1986005   1987451   1988872   1990210  
  7350.000000   1991427   1992524   1993547   1994576   1995695  
  7340.000000   1996958   1998377   1999912   2001493   2003034  
  7330.000000   2004460   2005719   2006797   2007712   2008517  
  7320.000000   2009281   2010086   2010996   2012055   2013263  
  7310.000000   2014578   2015923   2017206   2018347   2019300  
  7300.000000   2020064   2020680   2021212   2021730   2022286  
  7290.000000   2022914   2023625   2024420   2025293   2026240  
  7280.000000   2027249   2028301   2029361   2030384   2031330  
  7270.000000   2032171   2032905   2033560   2034186   2034840  
  7260.000000   2035577   2036433   2037427   2038558   2039814  
  7250.000000   2041161   2042560   2043946   2045256   2046421  
  7240.000000   2047410   2048216   2048905   2049567   2050329  
  7230.000000   2051285   2052501   2053970   2055652   2057468  
  7220.000000   2059367   2061321   2063363   2065551   2067966  
  7210.000000   2070650   2073606   2076762   2080017   2083232  
  7200.000000   2086307   2089170   2091828   2094319   2096731  
  7190.000000   2099142   2101634   2104245   2107006   2109913  
  7180.000000   2112962   2116138   2119434   2122831   2126319  
  7170.000000   2129872   2133476   2137107   2140773   2144471  
  7160.000000   2148231   2152055   2155962   2159936   2163972  
  7150.000000   2168047   2172173   2176366   2180679   2185158  
  7140.000000   2189853   2194761   2199862   2205075   2210334  
  7130.000000   2215561   2220736   2225853   2230970   2236134  
  7120.000000   2241418   2246847   2252447   2258203   2264111  
  7110.000000   2270156   2276345   2282675   2289158   2295779  
  7100.000000   2302527   2309366   2316273   2323212   2330168  
  7090.000000   2337106   2344009   2350833   2357553   2364136  
  7080.000000   2370591   2376944   2383266   2389637   2396145  
  7070.000000   2402853   2409788   2416933   2424233   2431613  
  7060.000000   2438996   2446317   2453539   2460654   2467686  
  7050.000000   2474674   2481664   2488689   2495761   2502865  
  7040.000000   2509964   2517009   2523958   2530787   2537491  
  7030.000000   2544082   2550569   2556967   2563270   2569484  
  7020.000000   2575611   2581683   2587740   2593832   2599983  
  7010.000000   2606194   2612413   2618574   2624596   2630439  
  7000.000000   2636093   2641604   2647026   2652419   2657797  
  6990.000000   2663151   2668431   2673600   2678626   2683520  
  6980.000000   2688297   2692986   2697573   2702035   2706308  
  6970.000000   2710358   2714161   2717756   2721201   2724585  
  6960.000000   2727962   2731374   2734802   2738228   2741607  
  6950.000000   2744927   2748167   2751332   2754392   2757320  
  6940.000000   2760059   2762577   2764856   2766934   2768868  
  6930.000000   2770747   2772629   2774555   2776508   2778457  
  6920.000000   2780349   2782158   2783866   2785489   2787034  
  6910.000000   2788515   2789926   2791261   2792516   2793708  
  6900.000000   2794866   2796033   2797243   2798518   2799849  
  6890.000000   2801219   2802597   2803965   2805302   2806600  
  6880.000000   2807843   2809014   2810083   2811036   2811866  
  6870.000000   2812597   2813268   2813929   2814619   2815359  
  6860.000000   2816139   2816935   2817708   2818429   2819075  
  6850.000000   2819643   2820134   2820563   2820944   2821303  
  6840.000000   2821666   2822062   2822507   2823001   2823515  
  6830.000000   2824008   2824432   2824759   2824993   2825177  
  6820.000000   2825377   2825662   2826072   2826607   2827221  
  6810.000000   2827840   2828385   2828800   2829054   2829159  
  6800.000000   2829137   2829029   2828862   2828659   2828428  
  6790.000000   2828177   2827908   2827624   2827322   2827001  
  6780.000000   2826653   2826281   2825885   2825479   2825073  
  6770.000000   2824677   2824286   2823891   2823475   2823030  
  6760.000000   2822557   2822076   2821615   2821207   2820873  
  6750.000000   2820615   2820412   2820228   2820015   2819729  
  6740.000000   2819337   2818828   2818213   2817531   2816837  
  6730.000000   2816197   2815666   2815274   2815013   2814837  
  6720.000000   2814670   2814439   2814088   2813603   2813005  
  6710.000000   2812338   2811641   2810936   2810207   2809428  
  6700.000000   2808569   2807629   2806637   2805651   2804723  
  6690.000000   2803889   2803135   2802421   2801681   2800866  
  6680.000000   2799948   2798942   2797877   2796789   2795692  
  6670.000000   2794585   2793448   2792269   2791046   2789798  
  6660.000000   2788539   2787277   2785985   2784625   2783149  
  6650.000000   2781537   2779802   2778002   2776207   2774485  
  6640.000000   2772860   2771322   2769822   2768319   2766781  
  6630.000000   2765219   2763661   2762141   2760667   2759212  
  6620.000000   2757720   2756128   2754387   2752494   2750480  
  6610.000000   2748409   2746345   2744342   2742421   2740588  
  6600.000000   2738829   2737127   2735459   2733801   2732120  
  6590.000000   2730384   2728563   2726652   2724672   2722666  
  6580.000000   2720687   2718776   2716944   2715166   2713398  
  6570.000000   2711595   2709733   2707827   2705916   2704056  
  6560.000000   2702290   2700635   2699078   2697586   2696123  
  6550.000000   2694662   2693193   2691713   2690227   2688730  
  6540.000000   2687216   2685680   2684129   2682581   2681066  
  6530.000000   2679611   2678232   2676928   2675690   2674496  
  6520.000000   2673333   2672189   2671057   2669918   2668748  
  6510.000000   2667512   2666183   2664755   2663258   2661752  
  6500.000000   2660319   2659032   2657934   2657023   2656251  
  6490.000000   2655540   2654805   2653975   2653004   2651877  
  6480.000000   2650608   2649228   2647788   2646345   2644961  
  6470.000000   2643686   2642550   2641549   2640653   2639814  
  6460.000000   2638985   2638144   2637296   2636477   2635720  
  6450.000000   2635043   2634427   2633812   2633132   2632325  
  6440.000000   2631377   2630312   2629196   2628096   2627061  
  6430.000000   2626101   2625192   2624300   2623405   2622517  
  6420.000000   2621676   2620936   2620332   2619864   2619495  
  6410.000000   2619161   2618801   2618378   2617895   2617381  
  6400.000000   2616881   2616424   2616022   2615661   2615317  
  6390.000000   2614968   2614602   2614222   2613837   2613455  
  6380.000000   2613077   2612697   2612309   2611909   2611497  
  6370.000000   2611078   2610648   2610200   2609717   2609189  
  6360.000000   2608611   2607994   2607357   2606723   2606099  
  6350.000000   2605483   2604850   2604182   2603460   2602695  
  6340.000000   2601906   2601130   2600389   2599693   2599021  
  6330.000000   2598341   2597610   2596799   2595896   2594915  
  6320.000000   2593880   2592825   2591775   2590747   2589740  
  6310.000000   2588748   2587750   2586728   2585657   2584524  
  6300.000000   2583313   2582031   2580682   2579287   2577858  
  6290.000000   2576409   2574939   2573446   2571924   2570379  
  6280.000000   2568817   2567259   2565717   2564199   2562694  
  6270.000000   2561187   2559655   2558090   2556489   2554867  
  6260.000000   2553232   2551587   2549912   2548180   2546360  
  6250.000000   2544442   2542440   2540403   2538388   2536449  
  6240.000000   2534611   2532868   2531182   2529504   2527791  
  6230.000000   2526023   2524201   2522345   2520478   2518614  
  6220.000000   2516759   2514909   2513059   2511209   2509365  
  6210.000000   2507531   2505708   2503891   2502070   2500242  
  6200.000000   2498409   2496590   2494808   2493083   2491423  
  6190.000000   2489815   2488238   2486659   2485060   2483428  
  6180.000000   2481771   2480100   2478430   2476771   2475129  
  6170.000000   2473512   2471933   2470412   2468971   2467622  
  6160.000000   2466362   2465166   2463998   2462813   2461577  
  6150.000000   2460275   2458914   2457517   2456117   2454744  
  6140.000000   2453423   2452163   2450965   2449812   2448681  
  6130.000000   2447532   2446329   2445035   2443637   2442146  
  6120.000000   2440610   2439095   2437677   2436417   2435349  
  6110.000000   2434466   2433731   2433086   2432475   2431852  
  6100.000000   2431198   2430510   2429809   2429114   2428459  
  6090.000000   2427865   2427363   2426957   2426654   2426431  
  6080.000000   2426259   2426096   2425912   2425688   2425441  
  6070.000000   2425203   2425027   2424949   2424997   2425158  
  6060.000000   2425411   2425709   2426028   2426351   2426697  
  6050.000000   2427088   2427568   2428155   2428871   2429704  
  6040.000000   2430649   2431679   2432784   2433945   2435158  
  6030.000000   2436413   2437716   2439066   2440477   2441957  
  6020.000000   2443517   2445152   2446851   2448586   2450332  
  6010.000000   2452060   2453763   2455442   2457120   2458815  
  6000.000000   2460551   2462332   2464163   2466030   2467931  
  5990.000000   2469861   2471830   2473847   2475930   2478090  
  5980.000000   2480345   2482700   2485173   2487764   2490475  
  5970.000000   2493285   2496170   2499082   2501987   2504849  
  5960.000000   2507670   2510459   2513260   2516108   2519041  
  5950.000000   2522071   2525200   2528410   2531688   2535023  
  5940.000000   2538415   2541868   2545385   2548960   2552577  
  5930.000000   2556214   2559844   2563449   2567018   2570544  
  5920.000000   2574019   2577428   2580746   2583946   2586999  
  5910.000000   2589888   2592608   2595173   2597608   2599952  
  5900.000000   2602246   2604539   2606870   2609279   2611784  
  5890.000000   2614399   2617108   2619894   2622719   2625557  
  5880.000000   2628374   2631149   2633859   2636476   2638970  
  5870.000000   2641308   2643467   2645441   2647255   2648956  
  5860.000000   2650612   2652291   2654050   2655921   2657915  
  5850.000000   2660023   2662230   2664519   2666877   2669289  
  5840.000000   2671744   2674224   2676719   2679224   2681749  
  5830.000000   2684311   2686932   2689618   2692363   2695130  
  5820.000000   2697874   2700545   2703112   2705563   2707910  
  5810.000000   2710183   2712407   2714605   2716779   2718942  
  5800.000000   2721085   2723237   2725400   2727615   2729868  
  5790.000000   2732161   2734428   2736611   2738594   2740281  
  5780.000000   2741538   2742270   2742374   2741810   2740567  
  5770.000000   2738717   2736374   2733720   2730925   2728169  
  5760.000000   2725556   2723159   2720970   2718975   2717130  
  5750.000000   2715422   2713834   2712375   2711036   2709803  
  5740.000000   2708644   2707519   2706402   2705272   2704138  
  5730.000000   2703005   2701895   2700808   2699754   2698724  
  5720.000000   2697729   2696780   2695902   2695110   2694416  
  5710.000000   2693806   2693259   2692745   2692245   2691750  
  5700.000000   2691274   2690831   2690438   2690104   2689824  
  5690.000000   2689594   2689406   2689264   2689166   2689114  
  5680.000000   2689087   2689055   2688964   2688767   2688411  
  5670.000000   2687865   2687101   2686107   2684861   2683355  
  5660.000000   2681578   2679554   2677325   2674977   2672599  
  5650.000000   2670288   2668102   2666071   2664174   2662377  
  5640.000000   2660637   2658929   2657248   2655605   2654019  
  5630.000000   2652495   2651034   2649621   2648252   2646919  
  5620.000000   2645636   2644412   2643259   2642169   2641127  
  5610.000000   2640105   2639084   2638050   2637014   2635992  
  5600.000000   2635008   2634076   2633199   2632367   2631562  
  5590.000000   2630764   2629954   2629116   2628238   2627313  
  5580.000000   2626341   2625332   2624306   2623293   2622317  
  5570.000000   2621392   2620511   2619648   2618761   2617814  
  5560.000000   2616781   2615661   2614466   2613226   2611965  
  5550.000000   2610701   2609441   2608188   2606945   2605721  
  5540.000000   2604526   2603369   2602248   2601149   2600050  
  5530.000000   2598934   2597788   2596619   2595440   2594268  
  5520.000000   2593110   2591965   2590818   2589655   2588468  
  5510.000000   2587258   2586031   2584796   2583550   2582283  
  5500.000000   2580980   2579635   2578249   2576849   2575458  
  5490.000000   2574101   2572777   2571466   2570128   2568727  
  5480.000000   2567234   2565651   2563994   2562297   2560583  
  5470.000000   2558867   2557144   2555406   2553639   2551837  
  5460.000000   2549996   2548113   2546175   2544165   2542067  
  5450.000000   2539879   2537622   2535341   2533098   2530948  
  5440.000000   2528925   2527033   2525254   2523554   2521909  
  5430.000000   2520300   2518725   2517171   2515630   2514073  
  5420.000000   2512490   2510877   2509276   2507739   2506352  
  5410.000000   2505165   2504206   2503442   2502827   2502293  
  5400.000000   2501814   2501376   2501017   2500764   2500656  
  5390.000000   2500684   2500846   2501104   2501463   2501928  
  5380.000000   2502555   2503377   2504442   2505732   2507234  
  5370.000000   2508878   2510641   2512471   2514394   2516402  
  5360.000000   2518555   2520851   2523348   2526040   2529001  
  5350.000000   2532241   2535859   2539867   2544346   2549265  
  5340.000000   2554662   2560474   2566741   2573414   2580558  
  5330.000000   2588131   2596192   2604675   2613631   2622996  
  5320.000000   2632861   2643209   2654182   2665780   2678139  
  5310.000000   2691215   2705091   2719677   2735038   2751100  
  5300.000000   2767961   2785590   2804121   2823543   2843984  
  5290.000000   2865406   2887869   2911250   2935507   2960451  
  5280.000000   2986017   3012075   3038669   3065810   3093644  
  5270.000000   3122211   3151555   3181549   3212008   3242670  
  5260.000000   3273313   3303808   3334131   3364362   3394561  
  5250.000000   3424766   3454849   3484643   3513841   3542261  
  5240.000000   3569697   3596193   3621765   3646624   3670837  
  5230.000000   3694568   3717749   3740387   3762282   3783384  
  5220.000000   3803525   3822762   3841058   3858596   3875410  
  5210.000000   3891682   3907369   3922525   3936973   3950679  
  5200.000000   3963462   3975366   3986334   3996523   4005940  
  5190.000000   4014732   4022850   4030358   4037153   4043291  
  5180.000000   4048710   4053519   4057701   4061362   4064448  
  5170.000000   4067008   4068951   4070319   4071064   4071282  
  5160.000000   4070977   4070258   4069109   4067589   4065644  
  5150.000000   4063313   4060553   4057427   4053923   4050107  
  5140.000000   4045961   4041530   4036789   4031788   4026528  
  5130.000000   4021082   4015467   4009741   4003896   3997953  
  5120.000000   3991884   3985705   3979408   3973030   3966577  
  5110.000000   3960080   3953532   3946940   3940293   3933607  
  5100.000000   3926898   3920208   3913563   3906988   3900478  
  5090.000000   3894023   3887596   3881191   3874806   3868464  
  5080.000000   3862178   3855963   3849802   3843666   3837502  
  5070.000000   3831271   3824939   3818501   3811958   3805331  
  5060.000000   3798628   3791858   3785016   3778108   3771132  
  5050.000000   3764107   3757043   3749960   3742862   3735750  
  5040.000000   3728611   3721443   3714242   3707018   3699786  
  5030.000000   3692565   3685368   3678203   3671072   3663974  
  5020.000000   3656920   3649916   3642986   3636144   3629414  
  5010.000000   3622795   3616300   3609919   3603663   3597524  
  5000.000000   3591526   3585665   3579976   3574452   3569134  
  4990.000000   3564019   3559154   3554541   3550231   3546214  
  4980.000000   3542528   3539140   3536070   3533275   3530781  
  4970.000000   3528559   3526658   3525062   3523830   3522940  
  4960.000000   3522442   3522303   3522568   3523207   3524269  
  4950.000000   3525723   3527610   3529881   3532556   3535572  
  4940.000000   3538946   3542625   3546648   3550985   3555691  
  4930.000000   3560739   3566174   3571956   3578115   3584607  
  4920.000000   3591455   3598619   3606118   3613907   3621996  
  4910.000000   3630340   3638946   3647785   3656873   3666192  
  4900.000000   3675747   3685507   3695440   3705491   3715597  
  4890.000000   3725700   3735739   3745675   3755464   3765091  
  4880.000000   3774515   3783728   3792683   3801368   3809723  
  4870.000000   3817730   3825318   3832475   3839143   3845337  
  4860.000000   3851035   3856290   3861112   3865570   3869674  
  4850.000000   3873481   3876985   3880230   3883206   3885961  
  4840.000000   3888500   3890879   3893112   3895252   3897311  
  4830.000000   3899327   3901303   3903262   3905198   3907120  
  4820.000000   3909015   3910884   3912721   3914530   3916319  
  4810.000000   3918101   3919892   3921702   3923541   3925410  
  4800.000000   3927312   3929246   3931215   3933223   3935272  
  4790.000000   3937359   3939475   3941610   3943751   3945896  
  4780.000000   3948043   3950203   3952380   3954573   3956763  
  4770.000000   3958923   3961010   3962992   3964840   3966553  
  4760.000000   3968132   3969604   3970981   3972280   3973496  
  4750.000000   3974632   3975669   3976611   3977449   3978199  
  4740.000000   3978858   3979443   3979946   3980375   3980719  
  4730.000000   3980982   3981162   3981269   3981306   3981282  
  4720.000000   3981199   3981059   3980864   3980623   3980350  
  4710.000000   3980066   3979803   3979590   3979462   3979442  
  4700.000000   3979549   3979792   3980174   3980690   3981334  
  4690.000000   3982099   3982979   3983964   3985048   3986212  
  4680.000000   3987438   3988687   3989928   3991115   3992223  
  4670.000000   3993221   3994116   3994913   3995650   3996359  
  4660.000000   3997091   3997883   3998787   3999835   4001066  
  4650.000000   4002502   4004163   4006049   4008149   4010438  
  4640.000000   4012881   4015440   4018077   4020756   4023443  
  4630.000000   4026105   4028704   4031205   4033564   4035753  
  4620.000000   4037737   4039506   4041041   4042345   4043405  
  4610.000000   4044229   4044809   4045168   4045317   4045306  
  4600.000000   4045166   4044955   4044694   4044418   4044109  
  4590.000000   4043771   4043364   4042878   4042280   4041570  
  4580.000000   4040726   4039752   4038626   4037348   4035897  
  4570.000000   4034278   4032483   4030531   4028427   4026196  
  4560.000000   4023842   4021385   4018826   4016184   4013467  
  4550.000000   4010705   4007913   4005120   4002340   3999588  
  4540.000000   3996867   3994181   3991535   3988930   3986379  
  4530.000000   3983880   3981447   3979067   3976750   3974478  
  4520.000000   3972273   3970125   3968080   3966142   3964374  
  4510.000000   3962783   3961441   3960353   3959605   3959203  
  4500.000000   3959246   3959740   3960787   3962380   3964612  
  4490.000000   3967465   3971028   3975274   3980288   3986031  
  4480.000000   3992569   3999838   4007883   4016623   4026093  
  4470.000000   4036215   4047020   4058428   4070455   4083005  
  4460.000000   4096068   4109538   4123397   4137553   4151993  
  4450.000000   4166650   4181512   4196525   4211669   4226896  
  4440.000000   4242177   4257477   4272760   4288007   4303170  
  4430.000000   4318231   4333122   4347824   4362251   4376389  
  4420.000000   4390150   4403534   4416451   4428905   4440793  
  4410.000000   4452099   4462698   4472556   4481553   4489681  
  4400.000000   4496873   4503192   4508655   4513394   4517485  
  4390.000000   4521088   4524291   4527245   4530023   4532743  
  4380.000000   4535454   4538235   4541112   4544135   4547321  
  4370.000000   4550706   4554317   4558189   4562353   4566830  
  4360.000000   4571637   4576773   4582221   4587962   4593935  
  4350.000000   4600110   4606393   4612765   4619138   4625539  
  4340.000000   4631925   4638342   4644711   4650938   4656723  
  4330.000000   4661677   4665246   4666899   4666170   4662865  
  4320.000000   4657082   4649291   4640193   4630649   4621444  
  4310.000000   4613224   4606328   4600877   4596738   4593706  
  4300.000000   4591516   4589970   4588923   4588292   4588042  
  4290.000000   4588120   4588519   4589177   4590098   4591242  
  4280.000000   4592623   4594217   4596013   4597979   4600076  
  4270.000000   4602289   4604583   4606943   4609287   4611492  
  4260.000000   4613321   4614487   4614651   4613538   4610977  
  4250.000000   4606990   4601767   4595680   4589154   4582648  
  4240.000000   4576509   4570995   4566191   4562092   4558583  
  4230.000000   4555534   4552786   4550207   4547687   4545141  
  4220.000000   4542541   4539870   4537194   4534568   4532126  
  4210.000000   4529953   4528170   4526811   4525918   4525449  
  4200.000000   4525371   4525598   4526083   4526742   4527547  
  4190.000000   4528434   4529401   4530403   4531464   4532563  
  4180.000000   4533753   4535033   4536476   4538090   4539950  
  4170.000000   4542067   4544510   4547290   4550472   4554057  
  4160.000000   4558097   4562569   4567506   4572859   4578650  
  4150.000000   4584824   4591409   4598355   4605701   4613404  
  4140.000000   4621513   4629991   4638894   4648190   4657935  
  4130.000000   4668093   4678713   4689750   4701244   4713153  
  4120.000000   4725515   4738299   4751551   4765249   4779439  
  4110.000000   4794099   4809259   4824882   4840961   4857424  
  4100.000000   4874225   4891267   4908489   4925813   4943206  
  4090.000000   4960641   4978121   4995652   5013239   5030896  
  4080.000000   5048613   5066403   5084239   5102127   5120002  
  4070.000000   5137831   5155490   5172908   5189939   5206539  
  4060.000000   5222607   5238167   5253164   5267648   5281549  
  4050.000000   5294905   5307629   5319778   5331293   5342270  
  4040.000000   5352664   5362561   5371875   5380649   5388760  
  4030.000000   5396241   5402979   5409022   5414288   5418824  
  4020.000000   5422538   5425500   5427704   5429248   5430094  
  4010.000000   5430379   5430176   5429475   5428015   5425840  
  4000.000000   5423305  
##END= 
