##TITLE= Sample 026 By ssteindl date Montag, November 26 2018
##JCAMP-DX= 4.24
##DATA TYPE= INFRARED SPECTRUM
##ORIGIN= Exported PE Spectrum Data File
##OWNER= Sandra Steindl
##DATE= 18/11/26
##TIME= 11:45:09.00
##SPECTROMETER/DATA SYSTEM= PERKIN-ELMER Frontier FT-IR/NIR IR
##INSTRUMENT PARAMETERS=
  APODIZATION=stark
  DETECTOR=INGAAS
##RESOLUTION= 16.000000
##DELTAX= -2.000000
##XUNITS= 1/CM
##YUNITS= A
##XFACTOR= 1.00
##YFACTOR= 0.00000011920928955078
##FIRSTX= 10000.00
##LASTX= 4000.00
##NPOINTS= 3001
##FIRSTY= 0.290733
##MAXY= 0.638328
##MINY= 0.225010
##XYDATA= (X++(Y..Y))
 10000.000000   2438847   2434695   2431828   2431668   2433735  
  9990.000000   2436241   2437691   2437342   2434828   2430165  
  9980.000000   2424084   2417676   2411879   2407163   2403586  
  9970.000000   2400839   2398370   2395668   2392466   2388833  
  9960.000000   2385144   2381934   2379681   2378635   2378696  
  9950.000000   2379426   2380166   2380217   2379095   2376651  
  9940.000000   2373204   2369378   2365970   2363620   2362631  
  9930.000000   2362817   2363567   2364024   2363393   2361234  
  9920.000000   2357679   2353419   2349507   2346963   2346409  
  9910.000000   2347800   2350463   2353291   2355182   2355360  
  9900.000000   2353679   2350593   2346995   2343881   2342023  
  9890.000000   2341756   2342956   2345126   2347702   2350173  
  9880.000000   2352310   2354040   2355412   2356418   2356956  
  9870.000000   2356891   2356153   2354914   2353631   2353005  
  9860.000000   2353786   2356530   2361349   2367826   2375016  
  9850.000000   2381727   2386783   2389363   2389187   2386574  
  9840.000000   2382336   2377553   2373244   2370152   2368517  
  9830.000000   2368166   2368545   2369032   2369060   2368341  
  9820.000000   2366890   2364986   2363010   2361216   2359593  
  9810.000000   2357784   2355272   2351590   2346663   2340922  
  9800.000000   2335291   2330953   2328945   2329877   2333619  
  9790.000000   2339394   2345933   2351914   2356337   2358745  
  9780.000000   2359274   2358379   2356619   2354341   2351686  
  9770.000000   2348587   2345012   2341051   2337009   2333323  
  9760.000000   2330403   2328539   2327743   2327874   2328623  
  9750.000000   2329728   2330970   2332218   2333384   2334320  
  9740.000000   2334913   2335009   2334621   2333829   2332842  
  9730.000000   2331822   2330824   2329774   2328542   2327139  
  9720.000000   2325795   2325056   2325568   2327902   2332181  
  9710.000000   2337947   2344120   2349308   2352213   2352100  
  9700.000000   2349026   2343815   2337705   2331936   2327340  
  9690.000000   2324192   2322263   2321060   2320064   2318914  
  9680.000000   2317394   2315412   2312846   2309592   2305577  
  9670.000000   2300929   2296073   2291670   2288510   2287138  
  9660.000000   2287694   2289716   2292328   2294465   2295283  
  9650.000000   2294409   2292110   2289147   2286530   2285153  
  9640.000000   2285505   2287576   2290910   2294841   2298712  
  9630.000000   2302058   2304671   2306547   2307783   2308461  
  9620.000000   2308566   2307964   2306474   2303944   2300413  
  9610.000000   2296146   2291655   2287586   2284534   2282916  
  9600.000000   2282785   2283869   2285596   2287309   2288452  
  9590.000000   2288753   2288302   2287468   2286745   2286528  
  9580.000000   2286963   2287918   2289064   2290059   2290672  
  9570.000000   2290904   2290931   2291057   2291505   2292361  
  9560.000000   2293446   2294393   2294728   2294014   2292010  
  9550.000000   2288686   2284271   2279116   2273634   2268186  
  9540.000000   2263028   2258333   2254182   2250675   2247920  
  9530.000000   2246110   2245441   2246065   2247957   2250845  
  9520.000000   2254207   2257332   2259529   2260257   2259347  
  9510.000000   2256971   2253667   2250105   2246976   2244773  
  9500.000000   2243736   2243827   2244746   2246068   2247281  
  9490.000000   2247973   2247881   2247002   2245592   2244080  
  9480.000000   2242946   2242502   2242760   2243331   2243537  
  9470.000000   2242628   2240150   2236212   2231561   2227399  
  9460.000000   2224892   2224783   2226998   2230740   2234723  
  9450.000000   2237689   2238859   2238154   2236187   2233864  
  9440.000000   2231977   2230782   2229919   2228640   2226234  
  9430.000000   2222454   2217666   2212764   2208813   2206711  
  9420.000000   2206867   2209113   2212728   2216668   2219823  
  9410.000000   2221269   2220462   2217298   2212179   2205934  
  9400.000000   2199732   2194839   2192299   2192596   2195420  
  9390.000000   2199709   2203964   2206768   2207263   2205430  
  9380.000000   2201995   2198119   2194891   2192908   2192123  
  9370.000000   2191926   2191603   2190629   2188994   2187048  
  9360.000000   2185302   2184065   2183288   2182596   2181536  
  9350.000000   2179911   2177963   2176341   2175819   2176958  
  9340.000000   2179844   2184071   2188908   2193613   2197669  
  9330.000000   2200889   2203319   2205018   2205910   2205736  
  9320.000000   2204253   2201427   2197608   2193497   2189909  
  9310.000000   2187480   2186366   2186269   2186535   2186537  
  9300.000000   2185901   2184712   2183405   2182491   2182257  
  9290.000000   2182571   2182961   2182816   2181694   2179513  
  9280.000000   2176625   2173684   2171419   2170375   2170752  
  9270.000000   2172427   2175013   2177996   2180789   2182821  
  9260.000000   2183630   2182944   2180802   2177569   2173922  
  9250.000000   2170656   2168438   2167544   2167715   2168286  
  9240.000000   2168457   2167664   2165812   2163364   2161127  
  9230.000000   2159898   2160057   2161377   2163112   2164293  
  9220.000000   2164155   2162409   2159381   2155834   2152674  
  9210.000000   2150602   2149878   2150345   2151539   2152939  
  9200.000000   2154104   2154791   2154931   2154576   2153823  
  9190.000000   2152791   2151636   2150486   2149457   2148521  
  9180.000000   2147569   2146342   2144581   2142121   2139036  
  9170.000000   2135730   2132812   2130962   2130632   2131994  
  9160.000000   2134851   2138747   2143071   2147226   2150747  
  9150.000000   2153292   2154617   2154510   2152857   2149692  
  9140.000000   2145292   2140168   2135009   2130549   2127371  
  9130.000000   2125761   2125586   2126428   2127683   2128776  
  9120.000000   2129228   2128784   2127414   2125264   2122589  
  9110.000000   2119671   2116841   2114402   2112624   2111631  
  9100.000000   2111393   2111720   2112328   2112927   2113292  
  9090.000000   2113325   2113085   2112688   2112292   2111937  
  9080.000000   2111632   2111282   2110817   2110175   2109355  
  9070.000000   2108456   2107642   2107181   2107340   2108465  
  9060.000000   2110821   2114555   2119480   2125093   2130591  
  9050.000000   2135016   2137496   2137447   2134822   2130043  
  9040.000000   2123916   2117333   2111059   2105576   2101027  
  9030.000000   2097389   2094559   2092605   2091672   2091989  
  9020.000000   2093598   2096336   2099750   2103164   2105850  
  9010.000000   2107182   2106897   2104990   2101771   2097666  
  9000.000000   2093252   2089078   2085649   2083370   2082535  
  8990.000000   2083257   2085377   2088506   2092060   2095433  
  8980.000000   2098082   2099716   2100345   2100236   2099793  
  8970.000000   2099381   2099243   2099414   2099754   2100021  
  8960.000000   2099974   2099474   2098507   2097200   2095746  
  8950.000000   2094364   2093208   2092331   2091654   2090993  
  8940.000000   2090126   2088876   2087189   2085195   2083186  
  8930.000000   2081570   2080724   2080901   2082117   2084141  
  8920.000000   2086549   2088838   2090570   2091440   2091361  
  8910.000000   2090401   2088794   2086800   2084699   2082711  
  8900.000000   2081020   2079750   2078945   2078613   2078706  
  8890.000000   2079198   2080045   2081271   2082894   2084916  
  8880.000000   2087227   2089581   2091629   2092952   2093218  
  8870.000000   2092239   2090115   2087153   2083824   2080601  
  8860.000000   2077841   2075735   2074291   2073435   2073070  
  8850.000000   2073165   2073724   2074765   2076223   2077944  
  8840.000000   2079661   2081072   2081929   2082113   2081711  
  8830.000000   2080951   2080168   2079662   2079639   2080127  
  8820.000000   2080972   2081879   2082487   2082499   2081759  
  8810.000000   2080349   2078555   2076828   2075619   2075247  
  8800.000000   2075771   2076960   2078383   2079532   2080035  
  8790.000000   2079734   2078750   2077375   2075944   2074695  
  8780.000000   2073706   2072937   2072330   2071929   2071915  
  8770.000000   2072561   2074078   2076478   2079476   2082547  
  8760.000000   2085076   2086572   2086842   2086030   2084557  
  8750.000000   2082918   2081526   2080566   2080017   2079722  
  8740.000000   2079532   2079378   2079278   2079282   2079377  
  8730.000000   2079478   2079441   2079177   2078726   2078292  
  8720.000000   2078186   2078679   2079880   2081637   2083599  
  8710.000000   2085327   2086487   2086970   2086913   2086628  
  8700.000000   2086413   2086463   2086768   2087197   2087582  
  8690.000000   2087836   2088015   2088239   2088618   2089091  
  8680.000000   2089419   2089213   2088099   2085886   2082696  
  8670.000000   2078982   2075420   2072739   2071499   2071988  
  8660.000000   2074122   2077531   2081629   2085782   2089435  
  8650.000000   2092173   2093801   2094289   2093814   2092637  
  8640.000000   2091116   2089552   2088200   2087196   2086598  
  8630.000000   2086412   2086611   2087222   2088279   2089865  
  8620.000000   2091980   2094571   2097455   2100370   2103011  
  8610.000000   2105084   2106403   2106871   2106539   2105534  
  8600.000000   2104072   2102389   2100717   2099266   2098187  
  8590.000000   2097596   2097528   2097978   2098877   2100144  
  8580.000000   2101660   2103294   2104889   2106276   2107304  
  8570.000000   2107866   2107960   2107684   2107248   2106897  
  8560.000000   2106849   2107206   2107934   2108868   2109797  
  8550.000000   2110546   2111053   2111371   2111633   2111965  
  8540.000000   2112412   2112916   2113344   2113590   2113642  
  8530.000000   2113642   2113837   2114504   2115808   2117743  
  8520.000000   2120076   2122442   2124436   2125756   2126274  
  8510.000000   2126052   2125301   2124272   2123186   2122175  
  8500.000000   2121285   2120498   2119763   2119038   2118308  
  8490.000000   2117598   2116965   2116499   2116293   2116427  
  8480.000000   2116924   2117732   2118720   2119694   2120477  
  8470.000000   2120948   2121120   2121110   2121112   2121295  
  8460.000000   2121746   2122424   2123194   2123900   2124446  
  8450.000000   2124864   2125286   2125895   2126810   2128029  
  8440.000000   2129402   2130685   2131631   2132082   2132023  
  8430.000000   2131566   2130891   2130161   2129476   2128855  
  8420.000000   2128271   2127701   2127163   2126717   2126435  
  8410.000000   2126362   2126481   2126741   2127065   2127421  
  8400.000000   2127813   2128296   2128921   2129694   2130552  
  8390.000000   2131375   2132036   2132439   2132559   2132421  
  8380.000000   2132085   2131593   2130951   2130144   2129177  
  8370.000000   2128114   2127088   2126276   2125817   2125768  
  8360.000000   2126046   2126470   2126809   2126895   2126674  
  8350.000000   2126228   2125714   2125286   2125007   2124829  
  8340.000000   2124605   2124185   2123486   2122551   2121534  
  8330.000000   2120632   2120001   2119664   2119502   2119288  
  8320.000000   2118782   2117809   2116324   2114417   2112292  
  8310.000000   2110207   2108404   2107077   2106341   2106240  
  8300.000000   2106741   2107732   2109019   2110348   2111445  
  8290.000000   2112075   2112101   2111518   2110469   2109205  
  8280.000000   2108021   2107154   2106720   2106680   2106863  
  8270.000000   2107032   2106936   2106418   2105438   2104113  
  8260.000000   2102656   2101318   2100293   2099669   2099384  
  8250.000000   2099253   2099013   2098429   2097371   2095878  
  8240.000000   2094138   2092428   2091007   2090026   2089465  
  8230.000000   2089136   2088757   2088053   2086871   2085237  
  8220.000000   2083333   2081442   2079825   2078654   2077949  
  8210.000000   2077604   2077440   2077270   2076971   2076480  
  8200.000000   2075788   2074892   2073777   2072418   2070798  
  8190.000000   2068963   2067034   2065208   2063694   2062663  
  8180.000000   2062161   2062107   2062292   2062456   2062353  
  8170.000000   2061816   2060792   2059315   2057490   2055413  
  8160.000000   2053174   2050828   2048436   2046073   2043851  
  8150.000000   2041911   2040380   2039358   2038853   2038805  
  8140.000000   2039071   2039489   2039895   2040161   2040208  
  8130.000000   2039984   2039478   2038678   2037593   2036231  
  8120.000000   2034641   2032897   2031117   2029433   2027972  
  8110.000000   2026821   2026001   2025472   2025128   2024846  
  8100.000000   2024498   2023999   2023320   2022491   2021588  
  8090.000000   2020707   2019924   2019276   2018737   2018231  
  8080.000000   2017654   2016912   2015953   2014785   2013478  
  8070.000000   2012132   2010842   2009661   2008576   2007511  
  8060.000000   2006362   2005030   2003473   2001726   1999899  
  8050.000000   1998155   1996653   1995517   1994793   1994452  
  8040.000000   1994403   1994515   1994656   1994709   1994588  
  8030.000000   1994237   1993630   1992771   1991698   1990477  
  8020.000000   1989209   1987997   1986940   1986084   1985423  
  8010.000000   1984883   1984349   1983698   1982844   1981769  
  8000.000000   1980528   1979240   1978048   1977084   1976432  
  7990.000000   1976112   1976083   1976260   1976544   1976841  
  7980.000000   1977076   1977197   1977175   1976989   1976641  
  7970.000000   1976138   1975506   1974783   1974020   1973263  
  7960.000000   1972552   1971912   1971351   1970872   1970475  
  7950.000000   1970166   1969946   1969812   1969739   1969680  
  7940.000000   1969570   1969347   1968974   1968456   1967849  
  7930.000000   1967237   1966715   1966344   1966127   1966010  
  7920.000000   1965888   1965665   1965273   1964725   1964104  
  7910.000000   1963544   1963184   1963109   1963322   1963719  
  7900.000000   1964127   1964333   1964163   1963516   1962409  
  7890.000000   1960964   1959383   1957907   1956748   1956062  
  7880.000000   1955901   1956224   1956900   1957752   1958590  
  7870.000000   1959249   1959622   1959660   1959373   1958805  
  7860.000000   1958025   1957088   1956054   1954970   1953895  
  7850.000000   1952894   1952040   1951404   1951028   1950921  
  7840.000000   1951037   1951305   1951632   1951942   1952183  
  7830.000000   1952342   1952425   1952447   1952410   1952293  
  7820.000000   1952058   1951660   1951071   1950284   1949326  
  7810.000000   1948246   1947106   1945969   1944883   1943890  
  7800.000000   1943008   1942254   1941626   1941120   1940723  
  7790.000000   1940421   1940195   1940024   1939881   1939730  
  7780.000000   1939522   1939203   1938724   1938059   1937220  
  7770.000000   1936266   1935291   1934406   1933696   1933194  
  7760.000000   1932860   1932593   1932253   1931713   1930898  
  7750.000000   1929808   1928526   1927176   1925896   1924788  
  7740.000000   1923893   1923192   1922619   1922101   1921577  
  7730.000000   1921036   1920509   1920060   1919760   1919647  
  7720.000000   1919709   1919855   1919949   1919812   1919302  
  7710.000000   1918331   1916925   1915214   1913412   1911772  
  7700.000000   1910510   1909769   1909577   1909864   1910483  
  7690.000000   1911263   1912044   1912702   1913151   1913329  
  7680.000000   1913196   1912719   1911906   1910803   1909521  
  7670.000000   1908203   1907010   1906060   1905397   1904985  
  7660.000000   1904714   1904465   1904145   1903745   1903316  
  7650.000000   1902962   1902765   1902756   1902884   1903036  
  7640.000000   1903077   1902899   1902457   1901782   1900961  
  7630.000000   1900102   1899295   1898590   1897998   1897493  
  7620.000000   1897039   1896592   1896112   1895556   1894883  
  7610.000000   1894070   1893126   1892118   1891164   1890416  
  7600.000000   1890013   1890036   1890476   1891223   1892093  
  7590.000000   1892873   1893384   1893521   1893280   1892737  
  7580.000000   1892025   1891271   1890581   1890000   1889535  
  7570.000000   1889153   1888816   1888490   1888169   1887868  
  7560.000000   1887631   1887517   1887580   1887865   1888379  
  7550.000000   1889100   1889968   1890910   1891856   1892764  
  7540.000000   1893628   1894466   1895301   1896120   1896872  
  7530.000000   1897445   1897722   1897598   1897053   1896156  
  7520.000000   1895070   1894008   1893174   1892709   1892655  
  7510.000000   1892960   1893512   1894194   1894921   1895658  
  7500.000000   1896419   1897231   1898114   1899050   1899999  
  7490.000000   1900903   1901729   1902464   1903141   1903804  
  7480.000000   1904501   1905259   1906081   1906955   1907864  
  7470.000000   1908795   1909745   1910699   1911635   1912506  
  7460.000000   1913259   1913839   1914235   1914474   1914641  
  7450.000000   1914842   1915191   1915765   1916604   1917702  
  7440.000000   1919024   1920522   1922155   1923888   1925690  
  7430.000000   1927524   1929348   1931115   1932805   1934414  
  7420.000000   1935972   1937512   1939063   1940608   1942102  
  7410.000000   1943466   1944640   1945604   1946408   1947164  
  7400.000000   1948005   1949047   1950339   1951856   1953505  
  7390.000000   1955174   1956771   1958263   1959669   1961048  
  7380.000000   1962452   1963901   1965365   1966791   1968124  
  7370.000000   1969347   1970489   1971615   1972798   1974082  
  7360.000000   1975459   1976867   1978213   1979402   1980372  
  7350.000000   1981111   1981657   1982086   1982495   1982982  
  7340.000000   1983626   1984494   1985624   1987027   1988672  
  7330.000000   1990481   1992342   1994120   1995695   1996990  
  7320.000000   1998003   1998796   1999483   2000185   2001006  
  7310.000000   2001994   2003140   2004389   2005665   2006903  
  7300.000000   2008063   2009140   2010151   2011122   2012073  
  7290.000000   2013016   2013946   2014857   2015739   2016591  
  7280.000000   2017413   2018215   2018999   2019774   2020539  
  7270.000000   2021291   2022024   2022725   2023386   2023990  
  7260.000000   2024530   2024996   2025394   2025731   2026034  
  7250.000000   2026335   2026684   2027125   2027711   2028472  
  7240.000000   2029431   2030580   2031902   2033356   2034917  
  7230.000000   2036550   2038247   2039991   2041784   2043603  
  7220.000000   2045438   2047262   2049080   2050909   2052808  
  7210.000000   2054843   2057092   2059590   2062334   2065252  
  7200.000000   2068242   2071184   2073997   2076643   2079156  
  7190.000000   2081604   2084085   2086667   2089396   2092256  
  7180.000000   2095214   2098209   2101203   2104166   2107104  
  7170.000000   2110025   2112958   2115918   2118932   2122010  
  7160.000000   2125180   2128443   2131815   2135281   2138840  
  7150.000000   2142470   2146181   2149981   2153915   2158018  
  7140.000000   2162333   2166861   2171589   2176453   2181406  
  7130.000000   2186377   2191345   2196281   2201208   2206125  
  7120.000000   2211064   2216028   2221051   2226154   2231392  
  7110.000000   2236800   2242426   2248277   2254345   2260581  
  7100.000000   2266933   2273336   2279752   2286147   2292517  
  7090.000000   2298849   2305148   2311404   2317630   2323836  
  7080.000000   2330064   2336344   2342706   2349145   2355635  
  7070.000000   2362122   2368565   2374949   2381306   2387703  
  7060.000000   2394220   2400914   2407792   2414808   2421874  
  7050.000000   2428897   2435804   2442573   2449218   2455777  
  7040.000000   2462280   2468728   2475094   2481331   2487403  
  7030.000000   2493302   2499048   2504692   2510285   2515879  
  7020.000000   2521498   2527172   2532911   2538746   2544691  
  7010.000000   2550759   2556920   2563117   2569250   2575214  
  7000.000000   2580911   2586296   2591368   2596187   2600833  
  6990.000000   2605407   2609984   2614624   2619335   2624114  
  6980.000000   2628915   2633696   2638385   2642930   2647271  
  6970.000000   2651382   2655239   2658856   2662245   2665448  
  6960.000000   2668490   2671417   2674256   2677053   2679826  
  6950.000000   2682598   2685353   2688071   2690701   2693214  
  6940.000000   2695588   2697854   2700054   2702262   2704520  
  6930.000000   2706843   2709187   2711483   2713645   2715627  
  6920.000000   2717415   2719057   2720612   2722149   2723692  
  6910.000000   2725238   2726747   2728183   2729518   2730760  
  6900.000000   2731923   2733032   2734085   2735074   2735975  
  6890.000000   2736791   2737551   2738328   2739207   2740259  
  6880.000000   2741500   2742888   2744314   2745651   2746776  
  6870.000000   2747626   2748205   2748585   2748875   2749189  
  6860.000000   2749613   2750188   2750900   2751690   2752470  
  6850.000000   2753152   2753666   2753988   2754144   2754214  
  6840.000000   2754303   2754519   2754932   2755551   2756320  
  6830.000000   2757138   2757893   2758501   2758931   2759210  
  6820.000000   2759399   2759574   2759781   2760037   2760318  
  6810.000000   2760589   2760816   2760984   2761093   2761161  
  6800.000000   2761208   2761258   2761326   2761436   2761598  
  6790.000000   2761816   2762065   2762299   2762442   2762423  
  6780.000000   2762192   2761749   2761145   2760470   2759813  
  6770.000000   2759236   2758743   2758297   2757833   2757307  
  6760.000000   2756711   2756082   2755480   2754957   2754525  
  6750.000000   2754156   2753790   2753375   2752888   2752358  
  6740.000000   2751847   2751423   2751132   2750976   2750911  
  6730.000000   2750872   2750795   2750636   2750379   2750027  
  6720.000000   2749592   2749087   2748528   2747940   2747363  
  6710.000000   2746848   2746435   2746136   2745917   2745708  
  6700.000000   2745416   2744967   2744327   2743526   2742625  
  6690.000000   2741713   2740850   2740064   2739335   2738627  
  6680.000000   2737892   2737105   2736250   2735328   2734330  
  6670.000000   2733247   2732062   2730777   2729415   2728029  
  6660.000000   2726674   2725394   2724183   2722997   2721752  
  6650.000000   2720378   2718832   2717140   2715372   2713625  
  6640.000000   2711979   2710470   2709075   2707736   2706382  
  6630.000000   2704966   2703472   2701922   2700348   2698778  
  6620.000000   2697219   2695663   2694089   2692490   2690868  
  6610.000000   2689241   2687629   2686044   2684483   2682934  
  6600.000000   2681379   2679808   2678215   2676604   2674974  
  6590.000000   2673323   2671644   2669937   2668211   2666487  
  6580.000000   2664792   2663147   2661554   2659993   2658428  
  6570.000000   2656824   2655163   2653452   2651721   2650011  
  6560.000000   2648355   2646764   2645230   2643729   2642241  
  6550.000000   2640760   2639296   2637874   2636513   2635219  
  6540.000000   2633981   2632775   2631574   2630353   2629101  
  6530.000000   2627809   2626474   2625084   2623632   2622114  
  6520.000000   2620546   2618959   2617405   2615940   2614609  
  6510.000000   2613435   2612414   2611516   2610698   2609915  
  6500.000000   2609129   2608314   2607452   2606531   2605550  
  6490.000000   2604508   2603418   2602297   2601169   2600053  
  6480.000000   2598965   2597906   2596868   2595837   2594796  
  6470.000000   2593731   2592634   2591502   2590341   2589166  
  6460.000000   2588001   2586875   2585822   2584864   2584009  
  6450.000000   2583243   2582537   2581852   2581162   2580456  
  6440.000000   2579748   2579057   2578404   2577783   2577173  
  6430.000000   2576529   2575817   2575020   2574160   2573288  
  6420.000000   2572468   2571750   2571155   2570659   2570215  
  6410.000000   2569760   2569253   2568675   2568043   2567392  
  6400.000000   2566767   2566211   2565760   2565438   2565261  
  6390.000000   2565229   2565319   2565483   2565651   2565743  
  6380.000000   2565694   2565472   2565089   2564602   2564087  
  6370.000000   2563615   2563224   2562913   2562649   2562389  
  6360.000000   2562096   2561760   2561384   2560977   2560533  
  6350.000000   2560027   2559422   2558690   2557828   2556878  
  6340.000000   2555907   2554996   2554203   2553549   2553006  
  6330.000000   2552519   2552019   2551456   2550803   2550069  
  6320.000000   2549277   2548461   2547638   2546824   2546022  
  6310.000000   2545237   2544467   2543713   2542960   2542187  
  6300.000000   2541353   2540417   2539342   2538114   2536738  
  6290.000000   2535246   2533674   2532069   2530460   2528876  
  6280.000000   2527327   2525825   2524371   2522969   2521606  
  6270.000000   2520273   2518946   2517603   2516216   2514769  
  6260.000000   2513247   2511648   2509978   2508253   2506495  
  6250.000000   2504731   2502987   2501282   2499617   2497985  
  6240.000000   2496362   2494726   2493058   2491362   2489651  
  6230.000000   2487951   2486276   2484628   2482985   2481313  
  6220.000000   2479580   2477768   2475888   2473975   2472078  
  6210.000000   2470241   2468489   2466824   2465228   2463677  
  6200.000000   2462150   2460639   2459149   2457686   2456253  
  6190.000000   2454843   2453444   2452039   2450617   2449172  
  6180.000000   2447704   2446212   2444696   2443156   2441599  
  6170.000000   2440045   2438524   2437071   2435718   2434475  
  6160.000000   2433326   2432234   2431150   2430029   2428847  
  6150.000000   2427602   2426309   2424989   2423657   2422313  
  6140.000000   2420955   2419574   2418179   2416788   2415436  
  6130.000000   2414150   2412956   2411851   2410825   2409851  
  6120.000000   2408908   2407982   2407075   2406193   2405356  
  6110.000000   2404571   2403851   2403197   2402612   2402087  
  6100.000000   2401614   2401174   2400750   2400318   2399872  
  6090.000000   2399412   2398962   2398550   2398217   2397985  
  6080.000000   2397868   2397851   2397915   2398026   2398164  
  6070.000000   2398311   2398470   2398640   2398834   2399056  
  6060.000000   2399320   2399629   2399999   2400432   2400939  
  6050.000000   2401513   2402155   2402855   2403621   2404453  
  6040.000000   2405371   2406379   2407481   2408654   2409872  
  6030.000000   2411093   2412299   2413486   2414687   2415942  
  6020.000000   2417306   2418802   2420440   2422190   2424018  
  6010.000000   2425882   2427765   2429661   2431582   2433532  
  6000.000000   2435512   2437496   2439460   2441371   2443226  
  5990.000000   2445029   2446820   2448632   2450508   2452465  
  5980.000000   2454522   2456677   2458937   2461300   2463775  
  5970.000000   2466355   2469032   2471777   2474570   2477387  
  5960.000000   2480228   2483097   2486017   2488992   2492026  
  5950.000000   2495092   2498165   2501213   2504229   2507226  
  5940.000000   2510241   2513317   2516490   2519777   2523169  
  5930.000000   2526640   2530152   2533670   2537157   2540583  
  5920.000000   2543915   2547115   2550145   2552976   2555600  
  5910.000000   2558029   2560300   2562465   2564578   2566691  
  5900.000000   2568840   2571059   2573367   2575789   2578330  
  5890.000000   2580995   2583757   2586584   2589420   2592218  
  5880.000000   2594934   2597543   2600035   2602406   2604656  
  5870.000000   2606777   2608762   2610609   2612335   2613976  
  5860.000000   2615588   2617231   2618959   2620805   2622781  
  5850.000000   2624881   2627088   2629385   2631755   2634179  
  5840.000000   2636637   2639103   2641551   2643962   2646331  
  5830.000000   2648664   2650983   2653302   2655629   2657954  
  5820.000000   2660257   2662515   2664720   2666882   2669024  
  5810.000000   2671182   2673374   2675612   2677871   2680139  
  5800.000000   2682380   2684607   2686815   2689050   2691310  
  5790.000000   2693608   2695885   2698080   2700068   2701739  
  5780.000000   2702951   2703607   2703612   2702936   2701580  
  5770.000000   2699625   2697184   2694436   2691553   2688718  
  5760.000000   2686048   2683630   2681468   2679550   2677818  
  5750.000000   2676237   2674764   2673388   2672101   2670901  
  5740.000000   2669788   2668750   2667785   2666875   2666018  
  5730.000000   2665193   2664393   2663595   2662792   2661971  
  5720.000000   2661141   2660311   2659505   2658734   2658012  
  5710.000000   2657337   2656711   2656137   2655627   2655198  
  5700.000000   2654870   2654648   2654520   2654456   2654414  
  5690.000000   2654361   2654273   2654157   2654023   2653894  
  5680.000000   2653769   2653635   2653450   2653170   2652740  
  5670.000000   2652127   2651301   2650255   2648979   2647482  
  5660.000000   2645768   2643870   2641826   2639701   2637556  
  5650.000000   2635458   2633443   2631534   2629724   2628006  
  5640.000000   2626367   2624806   2623322   2621914   2620574  
  5630.000000   2619279   2618006   2616732   2615457   2614192  
  5620.000000   2612968   2611807   2610728   2609723   2608773  
  5610.000000   2607848   2606926   2605995   2605061   2604133  
  5600.000000   2603222   2602327   2601443   2600564   2599688  
  5590.000000   2598824   2597988   2597191   2596433   2595698  
  5580.000000   2594956   2594180   2593348   2592458   2591523  
  5570.000000   2590562   2589588   2588604   2587595   2586546  
  5560.000000   2585439   2584271   2583052   2581803   2580547  
  5550.000000   2579307   2578097   2576930   2575812   2574746  
  5540.000000   2573730   2572752   2571786   2570807   2569787  
  5530.000000   2568718   2567609   2566489   2565394   2564354  
  5520.000000   2563379   2562457   2561555   2560638   2559678  
  5510.000000   2558665   2557602   2556501   2555371   2554219  
  5500.000000   2553041   2551843   2550632   2549430   2548254  
  5490.000000   2547115   2545999   2544875   2543694   2542415  
  5480.000000   2541011   2539491   2537881   2536230   2534578  
  5470.000000   2532957   2531373   2529822   2528282   2526735  
  5460.000000   2525154   2523515   2521784   2519939   2517961  
  5450.000000   2515859   2513666   2511441   2509248   2507138  
  5440.000000   2505136   2503235   2501409   2499631   2497888  
  5430.000000   2496182   2494533   2492946   2491419   2489922  
  5420.000000   2488434   2486934   2485445   2484003   2482680  
  5410.000000   2481519   2480547   2479733   2479038   2478400  
  5400.000000   2477801   2477233   2476743   2476363   2476137  
  5390.000000   2476062   2476133   2476313   2476602   2476997  
  5380.000000   2477545   2478273   2479222   2480375   2481722  
  5370.000000   2483197   2484781   2486427   2488158   2489961  
  5360.000000   2491887   2493927   2496133   2498500   2501105  
  5350.000000   2503972   2507204   2510830   2514932   2519482  
  5340.000000   2524509   2529941   2535801   2542028   2548669  
  5330.000000   2555667   2563071   2570813   2578942   2587410  
  5320.000000   2596318   2605674   2615635   2626221   2637575  
  5310.000000   2649662   2662555   2676158   2690516   2705541  
  5300.000000   2721314   2737800   2755127   2773297   2792448  
  5290.000000   2812561   2833713   2855796   2878769   2902438  
  5280.000000   2926723   2951473   2976713   3002442   3028801  
  5270.000000   3055840   3083622   3112043   3140945   3170083  
  5260.000000   3199250   3228313   3257247   3286120   3314992  
  5250.000000   3343899   3372724   3401306   3429356   3456697  
  5240.000000   3483137   3508715   3533445   3557522   3581000  
  5230.000000   3604016   3626486   3648397   3669546   3689882  
  5220.000000   3709247   3727704   3745227   3761999   3778057  
  5210.000000   3793581   3808534   3822977   3836748   3849823  
  5200.000000   3862029   3873407   3883890   3893619   3902587  
  5190.000000   3910927   3918585   3925622   3931944   3937607  
  5180.000000   3942556   3946900   3950626   3953844   3956513  
  5170.000000   3958694   3960315   3961435   3962014   3962149  
  5160.000000   3961827   3961130   3960005   3958476   3956462  
  5150.000000   3953988   3951024   3947658   3943917   3939904  
  5140.000000   3935624   3931124   3926357   3921339   3916032  
  5130.000000   3910479   3904685   3898715   3892581   3886327  
  5120.000000   3879948   3873471   3866901   3860278   3853626  
  5110.000000   3846986   3840367   3833782   3827210   3820647  
  5100.000000   3814080   3807523   3800992   3794516   3788117  
  5090.000000   3781811   3775594   3769463   3763400   3757393  
  5080.000000   3751426   3745485   3739547   3733594   3727603  
  5070.000000   3721564   3715468   3709324   3703138   3696926  
  5060.000000   3690686   3684420   3678110   3671749   3665320  
  5050.000000   3658820   3652242   3645590   3638855   3632036  
  5040.000000   3625128   3618135   3611068   3603955   3596827  
  5030.000000   3589719   3582661   3575670   3568754   3561908  
  5020.000000   3555130   3548412   3541763   3535185   3528701  
  5010.000000   3522316   3516060   3509933   3503964   3498149  
  5000.000000   3492519   3487065   3481815   3476755   3471911  
  4990.000000   3467268   3462860   3458678   3454768   3451122  
  4980.000000   3447786   3444741   3442019   3439589   3437480  
  4970.000000   3435661   3434175   3433002   3432195   3431734  
  4960.000000   3431670   3431970   3432675   3433744   3435212  
  4950.000000   3437033   3439240   3441784   3444694   3447921  
  4940.000000   3451501   3455392   3459636   3464196   3469111  
  4930.000000   3474340   3479914   3485793   3492012   3498546  
  4920.000000   3505441   3512680   3520298   3528260   3536574  
  4910.000000   3545185   3554082   3563214   3572577   3582132  
  4900.000000   3591875   3601769   3611792   3621903   3632069  
  4890.000000   3642257   3652436   3662584   3672660   3682637  
  4880.000000   3692447   3702052   3711371   3720374   3728993  
  4870.000000   3737221   3745007   3752363   3759251   3765692  
  4860.000000   3771661   3777194   3782281   3786972   3791263  
  4850.000000   3795211   3798819   3802147   3805208   3808075  
  4840.000000   3810770   3813359   3815854   3818296   3820673  
  4830.000000   3823001   3825259   3827458   3829588   3831668  
  4820.000000   3833703   3835709   3837691   3839659   3841614  
  4810.000000   3843562   3845507   3847451   3849398   3851348  
  4800.000000   3853304   3855270   3857256   3859277   3861355  
  4790.000000   3863510   3865754   3868093   3870518   3873012  
  4780.000000   3875551   3878110   3880665   3883194   3885674  
  4770.000000   3888084   3890400   3892607   3894691   3896657  
  4760.000000   3898511   3900281   3901981   3903638   3905251  
  4750.000000   3906825   3908335   3909773   3911107   3912331  
  4740.000000   3913425   3914392   3915223   3915925   3916495  
  4730.000000   3916941   3917267   3917488   3917618   3917678  
  4720.000000   3917685   3917661   3917620   3917577   3917542  
  4710.000000   3917527   3917550   3917627   3917780   3918026  
  4700.000000   3918385   3918863   3919466   3920190   3921030  
  4690.000000   3921979   3923033   3924186   3925437   3926774  
  4680.000000   3928180   3929621   3931062   3932448   3933743  
  4670.000000   3934905   3935925   3936802   3937568   3938258  
  4660.000000   3938930   3939631   3940419   3941337   3942427  
  4650.000000   3943715   3945220   3946948   3948886   3951011  
  4640.000000   3953284   3955660   3958092   3960536   3962953  
  4630.000000   3965316   3967602   3969798   3971889   3973868  
  4620.000000   3975716   3977419   3978953   3980302   3981439  
  4610.000000   3982360   3983057   3983556   3983878   3984082  
  4600.000000   3984203   3984303   3984400   3984523   3984648  
  4590.000000   3984765   3984821   3984788   3984615   3984286  
  4580.000000   3983770   3983069   3982171   3981091   3979827  
  4570.000000   3978403   3976821   3975110   3973275   3971344  
  4560.000000   3969319   3967220   3965046   3962809   3960501  
  4550.000000   3958131   3955691   3953186   3950615   3947987  
  4540.000000   3945310   3942605   3939897   3937215   3934592  
  4530.000000   3932053   3929623   3927303   3925105   3923004  
  4520.000000   3921008   3919087   3917260   3915513   3913893  
  4510.000000   3912402   3911120   3910064   3909331   3908940  
  4500.000000   3908990   3909482   3910503   3912033   3914148  
  4490.000000   3916824   3920145   3924095   3928770   3934149  
  4480.000000   3940313   3947213   3954896   3963281   3972388  
  4470.000000   3982126   3992515   4003473   4015025   4027096  
  4460.000000   4039702   4052762   4066267   4080117   4094276  
  4450.000000   4108637   4123157   4137755   4152410   4167088  
  4440.000000   4181794   4196522   4211263   4226005   4240702  
  4430.000000   4255327   4269811   4284139   4298245   4312135  
  4420.000000   4325738   4339056   4351985   4364497   4376460  
  4410.000000   4387830   4398474   4408365   4417407   4425614  
  4400.000000   4432937   4439441   4445129   4450109   4454432  
  4390.000000   4458241   4461622   4464732   4467659   4470535  
  4380.000000   4473411   4476361   4479389   4482519   4485740  
  4370.000000   4489068   4492519   4496131   4499949   4504015  
  4360.000000   4508371   4513040   4518021   4523304   4528834  
  4350.000000   4534578   4540442   4546405   4552387   4558419  
  4340.000000   4564468   4570579   4576675   4582651   4588205  
  4330.000000   4592946   4596334   4597862   4597097   4593875  
  4320.000000   4588315   4580884   4572263   4563273   4554646  
  4310.000000   4546977   4540565   4535503   4531649   4528796  
  4300.000000   4526686   4525132   4523995   4523199   4522715  
  4290.000000   4522501   4522560   4522850   4523389   4524159  
  4280.000000   4525186   4526461   4527977   4529709   4531614  
  4270.000000   4533669   4535828   4538063   4540275   4542329  
  4260.000000   4543979   4544935   4544861   4543494   4540677  
  4250.000000   4536450   4531022   4524775   4518142   4511577  
  4240.000000   4505409   4499868   4495001   4490767   4487015  
  4230.000000   4483599   4480363   4477198   4474037   4470844  
  4220.000000   4467633   4464419   4461277   4458255   4455466  
  4210.000000   4452969   4450868   4449188   4447973   4447188  
  4200.000000   4446809   4446755   4446975   4447380   4447934  
  4190.000000   4448570   4449291   4450059   4450914   4451840  
  4180.000000   4452892   4454056   4455381   4456849   4458507  
  4170.000000   4460348   4462442   4464807   4467534   4470650  
  4160.000000   4474237   4478293   4482868   4487930   4493510  
  4150.000000   4499562   4506117   4513124   4520614   4528523  
  4140.000000   4536876   4545603   4554734   4564207   4574066  
  4130.000000   4584266   4594858   4605805   4617167   4628919  
  4120.000000   4641130   4653798   4667000   4680741   4695081  
  4110.000000   4710002   4725522   4741577   4758132   4775084  
  4100.000000   4792363   4809858   4827503   4845222   4862989  
  4090.000000   4880779   4898599   4916455   4934349   4952287  
  4080.000000   4970252   4988248   5006241   5024236   5042174  
  4070.000000   5060032   5077700   5095120   5112152   5128748  
  4060.000000   5144795   5160299   5175194   5189536   5203281  
  4050.000000   5216513   5229202   5241449   5253221   5264601  
  4040.000000   5275502   5285947   5295781   5304995   5313439  
  4030.000000   5321146   5328027   5334156   5339474   5344035  
  4020.000000   5347737   5350637   5352715   5354066   5354669  
  4010.000000   5354686   5354208   5353254   5351580   5349235  
  4000.000000   5346544  
##END= 
