##TITLE= Sample 029 By ssteindl date Montag, November 26 2018
##JCAMP-DX= 4.24
##DATA TYPE= INFRARED SPECTRUM
##ORIGIN= Exported PE Spectrum Data File
##OWNER= Sandra Steindl
##DATE= 18/11/26
##TIME= 11:48:00.00
##SPECTROMETER/DATA SYSTEM= PERKIN-ELMER Frontier FT-IR/NIR IR
##INSTRUMENT PARAMETERS=
  APODIZATION=stark
  DETECTOR=INGAAS
##RESOLUTION= 16.000000
##DELTAX= -2.000000
##XUNITS= 1/CM
##YUNITS= A
##XFACTOR= 1.00
##YFACTOR= 0.00000011920928955078
##FIRSTX= 10000.00
##LASTX= 4000.00
##NPOINTS= 3001
##FIRSTY= 0.278404
##MAXY= 0.650442
##MINY= 0.219783
##XYDATA= (X++(Y..Y))
 10000.000000   2335425   2329066   2324430   2323324   2325045  
  9990.000000   2327509   2329504   2330955   2331878   2332025  
  9980.000000   2331390   2329892   2327223   2322834   2316590  
  9970.000000   2308750   2300010   2291242   2283347   2276985  
  9960.000000   2272536   2270199   2270049   2272157   2276438  
  9950.000000   2282574   2289852   2297206   2303461   2307627  
  9940.000000   2309315   2308766   2306856   2304626   2302983  
  9930.000000   2302311   2302448   2302874   2302985   2302491  
  9920.000000   2301450   2300312   2299580   2299611   2300385  
  9910.000000   2301512   2302386   2302361   2300992   2298077  
  9900.000000   2293705   2288201   2282066   2276009   2270834  
  9890.000000   2267451   2266590   2268654   2273433   2280098  
  9880.000000   2287283   2293434   2297176   2297656   2294769  
  9870.000000   2289070   2281669   2273788   2266568   2260733  
  9860.000000   2256582   2253983   2252497   2251565   2250658  
  9850.000000   2249493   2248096   2246851   2246333   2247088  
  9840.000000   2249337   2252797   2256689   2259955   2261696  
  9830.000000   2261516   2259785   2257487   2255880   2255945  
  9820.000000   2257989   2261459   2265151   2267637   2267807  
  9810.000000   2265269   2260442   2254408   2248452   2243712  
  9800.000000   2240811   2239882   2240613   2242494   2244934  
  9790.000000   2247356   2249206   2249977   2249288   2246984  
  9780.000000   2243263   2238637   2233873   2229681   2226599  
  9770.000000   2224756   2223963   2223814   2223884   2223946  
  9760.000000   2223975   2224190   2224860   2226214   2228341  
  9750.000000   2231147   2234445   2237902   2241145   2243646  
  9740.000000   2244890   2244383   2241956   2237837   2232769  
  9730.000000   2227846   2224217   2222774   2223808   2227038  
  9720.000000   2231639   2236706   2241426   2245453   2248769  
  9710.000000   2251639   2254270   2256653   2258492   2259281  
  9700.000000   2258569   2256071   2251845   2246175   2239510  
  9690.000000   2232322   2225047   2218135   2212012   2207150  
  9680.000000   2203888   2202405   2202546   2203887   2205799  
  9670.000000   2207679   2209107   2209945   2210314   2210431  
  9660.000000   2210499   2210543   2210503   2210237   2209718  
  9650.000000   2209014   2208294   2207680   2207151   2206540  
  9640.000000   2205578   2204103   2202111   2199852   2197686  
  9630.000000   2195944   2194790   2194129   2193727   2193271  
  9620.000000   2192552   2191462   2189968   2188047   2185638  
  9610.000000   2182727   2179470   2176312   2174009   2173430  
  9600.000000   2175249   2179556   2185644   2192087   2197143  
  9590.000000   2199369   2198139   2193914   2188070   2182419  
  9580.000000   2178575   2177429   2178928   2182174   2185821  
  9570.000000   2188546   2189411   2188053   2184603   2179581  
  9560.000000   2173675   2167688   2162404   2158532   2156552  
  9550.000000   2156561   2158190   2160641   2162913   2164108  
  9540.000000   2163727   2161831   2158967   2155926   2153402  
  9530.000000   2151728   2150802   2150236   2149618   2148763  
  9520.000000   2147783   2147009   2146756   2147113   2147841  
  9510.000000   2148421   2148281   2146957   2144317   2140484  
  9500.000000   2135866   2130926   2126175   2122057   2118962  
  9490.000000   2117231   2117058   2118514   2121397   2125346  
  9480.000000   2129846   2134446   2138834   2142898   2146661  
  9470.000000   2150068   2152908   2154668   2154757   2152663  
  9460.000000   2148300   2142110   2135030   2128256   2122858  
  9450.000000   2119554   2118477   2119312   2121379   2123958  
  9440.000000   2126386   2128212   2129153   2129078   2128004  
  9430.000000   2126088   2123675   2121210   2119178   2117895  
  9420.000000   2117446   2117615   2118036   2118336   2118325  
  9410.000000   2118053   2117742   2117635   2117810   2118123  
  9400.000000   2118235   2117834   2116793   2115356   2114039  
  9390.000000   2113481   2114105   2115944   2118578   2121285  
  9380.000000   2123300   2124022   2123173   2120749   2116969  
  9370.000000   2112122   2106544   2100626   2094856   2089848  
  9360.000000   2086224   2084493   2084813   2086928   2090138  
  9350.000000   2093568   2096373   2098039   2098440   2097777  
  9340.000000   2096442   2094768   2093018   2091239   2089435  
  9330.000000   2087533   2085535   2083447   2081297   2079084  
  9320.000000   2076821   2074628   2072765   2071666   2071761  
  9310.000000   2073314   2076223   2080002   2083917   2087216  
  9300.000000   2089412   2090424   2090572   2090365   2090228  
  9290.000000   2090294   2090382   2090139   2089298   2087864  
  9280.000000   2086145   2084623   2083653   2083308   2083241  
  9270.000000   2082914   2081804   2079744   2076998   2074191  
  9260.000000   2072011   2070885   2070770   2071174   2071377  
  9250.000000   2070722   2068908   2066065   2062734   2059566  
  9240.000000   2057089   2055522   2054754   2054477   2054319  
  9230.000000   2054064   2053705   2053427   2053509   2054192  
  9220.000000   2055622   2057728   2060221   2062554   2064062  
  9210.000000   2064084   2062216   2058429   2053207   2047511  
  9200.000000   2042581   2039585   2039197   2041432   2045603  
  9190.000000   2050581   2055100   2058184   2059409   2058953  
  9180.000000   2057424   2055536   2053879   2052699   2051955  
  9170.000000   2051379   2050692   2049719   2048458   2047089  
  9160.000000   2045838   2044999   2044772   2045326   2046672  
  9150.000000   2048688   2051069   2053313   2054841   2055103  
  9140.000000   2053799   2050933   2046853   2042148   2037506  
  9130.000000   2033526   2030581   2028784   2028056   2028228  
  9120.000000   2029102   2030474   2032095   2033683   2034926  
  9110.000000   2035548   2035403   2034570   2033377   2032276  
  9100.000000   2031675   2031786   2032568   2033765   2035011  
  9090.000000   2036003   2036597   2036822   2036748   2036386  
  9080.000000   2035591   2034126   2031768   2028476   2024499  
  9070.000000   2020356   2016700   2014072   2012699   2012423  
  9060.000000   2012778   2013169   2013078   2012247   2010745  
  9050.000000   2008885   2007086   2005716   2005016   2005058  
  9040.000000   2005795   2007085   2008768   2010630   2012442  
  9030.000000   2013944   2014933   2015281   2014993   2014208  
  9020.000000   2013164   2012119   2011248   2010661   2010373  
  9010.000000   2010406   2010762   2011518   2012727   2014387  
  9000.000000   2016315   2018163   2019475   2019766   2018677  
  8990.000000   2016067   2012117   2007245   2002033   1997095  
  8980.000000   1992992   1990127   1988681   1988624   1989720  
  8970.000000   1991593   1993739   1995679   1997040   1997675  
  8960.000000   1997669   1997305   1996989   1997057   1997707  
  8950.000000   1998836   2000150   2001188   2001543   2000938  
  8940.000000   1999352   1997004   1994316   1991794   1989895  
  8930.000000   1988960   1989142   1990415   1992562   1995256  
  8920.000000   1998101   2000747   2002926   2004523   2005574  
  8910.000000   2006228   2006692   2007122   2007578   2007979  
  8900.000000   2008143   2007879   2007062   2005751   2004145  
  8890.000000   2002605   2001487   2001085   2001476   2002516  
  8880.000000   2003825   2004906   2005254   2004483   2002442  
  8870.000000   1999233   1995234   1990976   1987051   1983945  
  8860.000000   1981939   1981066   1981116   1981745   1982570  
  8850.000000   1983317   1983893   1984381   1984994   1985906  
  8840.000000   1987198   1988710   1990136   1991030   1991037  
  8830.000000   1989984   1988025   1985630   1983476   1982296  
  8820.000000   1982624   1984684   1988269   1992824   1997561  
  8810.000000   2001671   2004512   2005727   2005289   2003439  
  8800.000000   2000606   1997274   1993917   1990923   1988596  
  8790.000000   1987121   1986557   1986844   1987769   1989042  
  8780.000000   1990296   1991223   1991625   1991500   1991030  
  8770.000000   1990502   1990216   1990339   1990883   1991673  
  8760.000000   1992451   1992974   1993117   1992921   1992564  
  8750.000000   1992289   1992293   1992656   1993315   1994081  
  8740.000000   1994737   1995073   1994977   1994418   1993466  
  8730.000000   1992249   1990946   1989765   1988915   1988602  
  8720.000000   1988959   1990042   1991763   1993939   1996296  
  8710.000000   1998562   2000520   2002037   2003093   2003692  
  8700.000000   2003874   2003598   2002815   2001448   1999507  
  8690.000000   1997119   1994563   1992252   1990643   1990164  
  8680.000000   1991062   1993393   1996945   2001309   2005907  
  8670.000000   2010122   2013417   2015439   2016109   2015597  
  8660.000000   2014316   2012769   2011457   2010696   2010570  
  8650.000000   2010902   2011356   2011591   2011387   2010772  
  8640.000000   2009983   2009403   2009379   2010102   2011522  
  8630.000000   2013364   2015230   2016736   2017664   2018016  
  8620.000000   2018009   2017978   2018257   2019064   2020437  
  8610.000000   2022244   2024235   2026122   2027668   2028732  
  8600.000000   2029305   2029472   2029381   2029178   2028982  
  8590.000000   2028844   2028762   2028694   2028609   2028517  
  8580.000000   2028480   2028627   2029110   2030077   2031589  
  8570.000000   2033620   2036022   2038567   2040983   2043024  
  8560.000000   2044527   2045444   2045843   2045877   2045743  
  8550.000000   2045625   2045633   2045794   2046036   2046241  
  8540.000000   2046280   2046075   2045630   2045031   2044410  
  8530.000000   2043888   2043520   2043249   2042943   2042436  
  8520.000000   2041649   2040622   2039561   2038779   2038602  
  8510.000000   2039262   2040790   2043030   2045682   2048414  
  8500.000000   2050966   2053212   2055167   2056906   2058481  
  8490.000000   2059858   2060917   2061513   2061565   2061122  
  8480.000000   2060391   2059665   2059219   2059208   2059600  
  8470.000000   2060208   2060751   2060990   2060818   2060291  
  8460.000000   2059590   2058948   2058562   2058539   2058889  
  8450.000000   2059560   2060499   2061674   2063074   2064670  
  8440.000000   2066393   2068111   2069658   2070884   2071723  
  8430.000000   2072213   2072497   2072753   2073146   2073757  
  8420.000000   2074574   2075515   2076472   2077376   2078194  
  8410.000000   2078958   2079687   2080401   2081061   2081628  
  8400.000000   2082056   2082366   2082617   2082898   2083264  
  8390.000000   2083692   2084064   2084176   2083800   2082776  
  8380.000000   2081081   2078864   2076393   2074017   2072047  
  8370.000000   2070713   2070089   2070115   2070624   2071408  
  8360.000000   2072257   2072986   2073449   2073540   2073202  
  8350.000000   2072425   2071252   2069785   2068190   2066667  
  8340.000000   2065423   2064605   2064278   2064398   2064824  
  8330.000000   2065347   2065722   2065743   2065287   2064353  
  8320.000000   2063046   2061562   2060139   2058999   2058296  
  8310.000000   2058073   2058254   2058673   2059121   2059405  
  8300.000000   2059388   2059017   2058319   2057380   2056301  
  8290.000000   2055166   2054028   2052912   2051830   2050797  
  8280.000000   2049851   2049043   2048425   2048019   2047811  
  8270.000000   2047736   2047693   2047564   2047248   2046692  
  8260.000000   2045910   2044994   2044093   2043385   2043039  
  8250.000000   2043161   2043758   2044711   2045788   2046693  
  8240.000000   2047145   2046953   2046077   2044646   2042918  
  8230.000000   2041223   2039840   2038940   2038516   2038429  
  8220.000000   2038443   2038341   2037965   2037276   2036312  
  8210.000000   2035158   2033861   2032413   2030739   2028758  
  8200.000000   2026441   2023856   2021180   2018654   2016506  
  8190.000000   2014885   2013783   2013068   2012504   2011859  
  8180.000000   2010969   2009789   2008394   2006927   2005542  
  8170.000000   2004328   2003291   2002339   2001339   2000156  
  8160.000000   1998730   1997073   1995291   1993523   1991914  
  8150.000000   1990554   1989453   1988545   1987708   1986828  
  8140.000000   1985838   1984769   1983734   1982903   1982429  
  8130.000000   1982394   1982748   1983316   1983827   1983981  
  8120.000000   1983542   1982382   1980529   1978133   1975425  
  8110.000000   1972641   1969977   1967552   1965414   1963559  
  8100.000000   1961957   1960580   1959396   1958380   1957493  
  8090.000000   1956700   1955964   1955270   1954635   1954092  
  8080.000000   1953694   1953453   1953357   1953322   1953245  
  8070.000000   1953006   1952531   1951803   1950877   1949859  
  8060.000000   1948875   1948036   1947409   1947010   1946801  
  8050.000000   1946711   1946648   1946509   1946196   1945624  
  8040.000000   1944737   1943526   1942040   1940388   1938730  
  8030.000000   1937242   1936076   1935330   1935003   1935023  
  8020.000000   1935240   1935495   1935638   1935580   1935302  
  8010.000000   1934831   1934229   1933536   1932764   1931868  
  8000.000000   1930783   1929445   1927844   1926045   1924199  
  7990.000000   1922515   1921205   1920426   1920214   1920480  
  7980.000000   1921010   1921540   1921822   1921700   1921154  
  7970.000000   1920289   1919294   1918364   1917641   1917167  
  7960.000000   1916896   1916720   1916532   1916255   1915879  
  7950.000000   1915428   1914944   1914448   1913921   1913325  
  7940.000000   1912622   1911820   1910986   1910242   1909728  
  7930.000000   1909554   1909753   1910260   1910924   1911543  
  7920.000000   1911924   1911923   1911488   1910651   1909529  
  7910.000000   1908275   1907060   1906034   1905306   1904934  
  7900.000000   1904916   1905203   1905705   1906309   1906896  
  7890.000000   1907364   1907633   1907663   1907447   1907014  
  7880.000000   1906424   1905759   1905116   1904589   1904252  
  7870.000000   1904137   1904219   1904417   1904606   1904663  
  7860.000000   1904492   1904074   1903464   1902783   1902169  
  7850.000000   1901731   1901511   1901468   1901503   1901492  
  7840.000000   1901335   1900978   1900420   1899698   1898865  
  7830.000000   1897976   1897079   1896235   1895513   1894998  
  7820.000000   1894757   1894825   1895148   1895611   1896031  
  7810.000000   1896238   1896107   1895614   1894830   1893878  
  7800.000000   1892887   1891915   1890943   1889879   1888627  
  7790.000000   1887134   1885439   1883676   1882031   1880688  
  7780.000000   1879767   1879306   1879250   1879498   1879928  
  7770.000000   1880434   1880926   1881328   1881570   1881592  
  7760.000000   1881357   1880873   1880206   1879458   1878746  
  7750.000000   1878144   1877661   1877232   1876749   1876115  
  7740.000000   1875287   1874303   1873261   1872283   1871445  
  7730.000000   1870763   1870171   1869578   1868905   1868137  
  7720.000000   1867333   1866604   1866058   1865751   1865654  
  7710.000000   1865665   1865642   1865453   1865023   1864345  
  7700.000000   1863480   1862519   1861562   1860678   1859907  
  7690.000000   1859251   1858689   1858188   1857713   1857239  
  7680.000000   1856761   1856301   1855900   1855613   1855478  
  7670.000000   1855501   1855638   1855802   1855892   1855825  
  7660.000000   1855571   1855160   1854669   1854178   1853730  
  7650.000000   1853305   1852832   1852211   1851381   1850337  
  7640.000000   1849159   1847970   1846903   1846046   1845413  
  7630.000000   1844959   1844605   1844291   1844003   1843777  
  7620.000000   1843676   1843749   1844003   1844395   1844848  
  7610.000000   1845281   1845648   1845936   1846175   1846392  
  7600.000000   1846599   1846772   1846866   1846827   1846625  
  7590.000000   1846264   1845789   1845265   1844762   1844333  
  7580.000000   1844008   1843798   1843704   1843729   1843873  
  7570.000000   1844141   1844522   1844990   1845500   1845992  
  7560.000000   1846402   1846669   1846753   1846628   1846312  
  7550.000000   1845841   1845295   1844758   1844321   1844047  
  7540.000000   1843972   1844088   1844369   1844771   1845265  
  7530.000000   1845833   1846471   1847175   1847929   1848699  
  7520.000000   1849452   1850170   1850876   1851626   1852500  
  7510.000000   1853548   1854768   1856074   1857327   1858361  
  7500.000000   1859062   1859400   1859462   1859415   1859453  
  7490.000000   1859728   1860316   1861200   1862298   1863504  
  7480.000000   1864733   1865940   1867117   1868270   1869398  
  7470.000000   1870488   1871529   1872520   1873499   1874516  
  7460.000000   1875634   1876874   1878213   1879569   1880846  
  7450.000000   1881964   1882903   1883718   1884522   1885447  
  7440.000000   1886597   1888007   1889642   1891409   1893197  
  7430.000000   1894913   1896504   1897962   1899320   1900633  
  7420.000000   1901959   1903346   1904824   1906399   1908050  
  7410.000000   1909725   1911362   1912890   1914266   1915483  
  7400.000000   1916583   1917643   1918751   1919980   1921361  
  7390.000000   1922889   1924526   1926231   1927977   1929757  
  7380.000000   1931576   1933430   1935294   1937118   1938851  
  7370.000000   1940453   1941924   1943301   1944645   1946015  
  7360.000000   1947439   1948915   1950408   1951893   1953364  
  7350.000000   1954862   1956449   1958184   1960072   1962054  
  7340.000000   1964005   1965776   1967243   1968350   1969136  
  7330.000000   1969720   1970263   1970923   1971810   1972969  
  7320.000000   1974365   1975925   1977547   1979147   1980660  
  7310.000000   1982053   1983322   1984481   1985553   1986560  
  7300.000000   1987515   1988417   1989262   1990038   1990744  
  7290.000000   1991392   1992010   1992638   1993315   1994077  
  7280.000000   1994936   1995891   1996924   1998016   1999143  
  7270.000000   2000286   2001429   2002546   2003615   2004607  
  7260.000000   2005507   2006313   2007057   2007782   2008550  
  7250.000000   2009406   2010377   2011458   2012621   2013821  
  7240.000000   2015024   2016209   2017390   2018587   2019844  
  7230.000000   2021183   2022628   2024166   2025786   2027454  
  7220.000000   2029158   2030885   2032666   2034544   2036601  
  7210.000000   2038908   2041527   2044464   2047676   2051054  
  7200.000000   2054478   2057826   2061047   2064143   2067199  
  7190.000000   2070308   2073562   2076978   2080513   2084045  
  7180.000000   2087454   2090645   2093616   2096442   2099276  
  7170.000000   2102269   2105547   2109144   2113022   2117059  
  7160.000000   2121132   2125112   2128946   2132616   2136181  
  7150.000000   2139717   2143339   2147145   2151234   2155655  
  7140.000000   2160428   2165501   2170803   2176215   2181653  
  7130.000000   2187031   2192330   2197538   2202693   2207814  
  7120.000000   2212947   2218108   2223349   2228715   2234289  
  7110.000000   2240138   2246320   2252841   2259664   2266696  
  7100.000000   2273831   2280954   2287994   2294901   2301672  
  7090.000000   2308300   2314807   2321200   2327519   2333810  
  7080.000000   2340155   2346630   2353293   2360146   2367140  
  7070.000000   2374175   2381160   2388036   2394816   2401571  
  7060.000000   2408398   2415369   2422502   2429747   2437017  
  7050.000000   2444229   2451348   2458397   2465445   2472563  
  7040.000000   2479781   2487072   2494354   2501533   2508535  
  7030.000000   2515338   2521964   2528468   2534889   2541248  
  7020.000000   2547534   2553743   2559877   2565979   2572089  
  7010.000000   2578246   2584431   2590591   2596624   2602459  
  7000.000000   2608058   2613468   2618775   2624081   2629433  
  6990.000000   2634813   2640117   2645228   2650034   2654519  
  6980.000000   2658733   2662812   2666891   2671091   2675447  
  6970.000000   2679946   2684506   2689040   2693444   2697645  
  6960.000000   2701563   2705157   2708393   2711298   2713938  
  6950.000000   2716443   2718945   2721574   2724379   2727346  
  6940.000000   2730369   2733330   2736105   2738645   2740944  
  6930.000000   2743060   2745049   2746964   2748815   2750600  
  6920.000000   2752310   2753963   2755586   2757220   2758874  
  6910.000000   2760532   2762133   2763623   2764958   2766153  
  6900.000000   2767260   2768360   2769517   2770759   2772058  
  6890.000000   2773366   2774630   2775834   2776993   2778150  
  6880.000000   2779334   2780548   2781747   2782875   2783882  
  6870.000000   2784768   2785580   2786398   2787294   2788297  
  6860.000000   2789369   2790426   2791363   2792104   2792629  
  6850.000000   2792985   2793257   2793538   2793892   2794349  
  6840.000000   2794892   2795497   2796133   2796786   2797445  
  6830.000000   2798104   2798737   2799313   2799791   2800146  
  6820.000000   2800369   2800482   2800524   2800545   2800585  
  6810.000000   2800671   2800806   2800981   2801162   2801309  
  6800.000000   2801370   2801296   2801047   2800615   2800021  
  6790.000000   2799327   2798613   2797965   2797440   2797065  
  6780.000000   2796820   2796657   2796515   2796342   2796100  
  6770.000000   2795776   2795373   2794906   2794398   2793877  
  6760.000000   2793378   2792936   2792576   2792304   2792101  
  6750.000000   2791931   2791748   2791521   2791241   2790928  
  6740.000000   2790615   2790330   2790081   2789843   2789575  
  6730.000000   2789234   2788800   2788286   2787732   2787189  
  6720.000000   2786690   2786242   2785820   2785387   2784909  
  6710.000000   2784378   2783803   2783215   2782632   2782065  
  6700.000000   2781499   2780918   2780306   2779662   2778992  
  6690.000000   2778304   2777586   2776808   2775922   2774883  
  6680.000000   2773672   2772311   2770857   2769395   2767997  
  6670.000000   2766717   2765563   2764514   2763525   2762554  
  6660.000000   2761565   2760544   2759481   2758375   2757219  
  6650.000000   2756012   2754750   2753438   2752084   2750698  
  6640.000000   2749285   2747850   2746391   2744920   2743446  
  6630.000000   2741991   2740559   2739146   2737720   2736239  
  6620.000000   2734658   2732957   2731146   2729272   2727396  
  6610.000000   2725567   2723805   2722087   2720363   2718577  
  6600.000000   2716694   2714716   2712678   2710635   2708636  
  6590.000000   2706711   2704865   2703093   2701388   2699752  
  6580.000000   2698194   2696716   2695301   2693906   2692476  
  6570.000000   2690954   2689314   2687560   2685736   2683901  
  6560.000000   2682110   2680393   2678756   2677182   2675655  
  6550.000000   2674167   2672720   2671324   2669979   2668665  
  6540.000000   2667352   2666000   2664588   2663118   2661621  
  6530.000000   2660143   2658728   2657404   2656175   2655029  
  6520.000000   2653941   2652893   2651868   2650856   2649842  
  6510.000000   2648805   2647726   2646586   2645385   2644138  
  6500.000000   2642873   2641619   2640390   2639182   2637980  
  6490.000000   2636770   2635551   2634351   2633211   2632174  
  6480.000000   2631260   2630455   2629713   2628965   2628152  
  6470.000000   2627233   2626208   2625095   2623935   2622760  
  6460.000000   2621594   2620450   2619341   2618279   2617285  
  6450.000000   2616372   2615547   2614794   2614083   2613383  
  6440.000000   2612670   2611944   2611230   2610561   2609970  
  6430.000000   2609464   2609030   2608626   2608209   2607743  
  6420.000000   2607217   2606643   2606049   2605469   2604930  
  6410.000000   2604445   2604016   2603639   2603305   2603006  
  6400.000000   2602731   2602469   2602210   2601944   2601667  
  6390.000000   2601379   2601083   2600776   2600452   2600095  
  6380.000000   2599689   2599222   2598699   2598139   2597574  
  6370.000000   2597038   2596557   2596141   2595782   2595463  
  6360.000000   2595158   2594849   2594517   2594149   2593730  
  6350.000000   2593247   2592686   2592045   2591332   2590574  
  6340.000000   2589801   2589044   2588318   2587624   2586945  
  6330.000000   2586260   2585546   2584792   2583995   2583160  
  6320.000000   2582293   2581400   2580480   2579539   2578577  
  6310.000000   2577603   2576617   2575617   2574588   2573515  
  6300.000000   2572376   2571169   2569901   2568598   2567282  
  6290.000000   2565975   2564676   2563375   2562044   2560668  
  6280.000000   2559239   2557774   2556289   2554808   2553331  
  6270.000000   2551848   2550330   2548753   2547099   2545376  
  6260.000000   2543605   2541819   2540043   2538295   2536575  
  6250.000000   2534875   2533184   2531498   2529812   2528124  
  6240.000000   2526427   2524713   2522969   2521192   2519385  
  6230.000000   2517562   2515739   2513928   2512135   2510353  
  6220.000000   2508576   2506802   2505039   2503303   2501609  
  6210.000000   2499963   2498352   2496751   2495131   2493475  
  6200.000000   2491785   2490090   2488427   2486831   2485314  
  6190.000000   2483859   2482431   2480986   2479492   2477938  
  6180.000000   2476339   2474720   2473111   2471531   2469989  
  6170.000000   2468486   2467020   2465593   2464209   2462868  
  6160.000000   2461568   2460292   2459025   2457747   2456454  
  6150.000000   2455149   2453845   2452555   2451287   2450042  
  6140.000000   2448817   2447610   2446429   2445288   2444203  
  6130.000000   2443175   2442190   2441212   2440203   2439124  
  6120.000000   2437966   2436745   2435508   2434310   2433210  
  6110.000000   2432241   2431417   2430724   2430142   2429641  
  6100.000000   2429199   2428793   2428414   2428048   2427695  
  6090.000000   2427348   2427020   2426716   2426453   2426231  
  6080.000000   2426055   2425910   2425791   2425689   2425616  
  6070.000000   2425586   2425629   2425755   2425978   2426281  
  6060.000000   2426652   2427061   2427501   2427966   2428473  
  6050.000000   2429035   2429677   2430407   2431240   2432178  
  6040.000000   2433234   2434410   2435717   2437141   2438666  
  6030.000000   2440251   2441862   2443458   2445026   2446556  
  6020.000000   2448070   2449579   2451105   2452646   2454208  
  6010.000000   2455784   2457382   2459011   2460693   2462437  
  6000.000000   2464251   2466116   2468014   2469914   2471810  
  5990.000000   2473699   2475610   2477565   2479602   2481734  
  5980.000000   2483979   2486332   2488797   2491371   2494063  
  5970.000000   2496866   2499774   2502759   2505794   2508838  
  5960.000000   2511874   2514884   2517881   2520872   2523878  
  5950.000000   2526900   2529945   2533006   2536089   2539203  
  5940.000000   2542374   2545632   2549002   2552501   2556124  
  5930.000000   2559853   2563652   2567479   2571282   2575013  
  5920.000000   2578622   2582065   2585314   2588359   2591215  
  5910.000000   2593918   2596517   2599059   2601574   2604080  
  5900.000000   2606572   2609047   2611502   2613956   2616430  
  5890.000000   2618966   2621581   2624290   2627075   2629912  
  5880.000000   2632755   2635562   2638289   2640895   2643343  
  5870.000000   2645601   2647653   2649502   2651183   2652756  
  5860.000000   2654302   2655901   2657619   2659496   2661539  
  5850.000000   2663734   2666056   2668477   2670971   2673517  
  5840.000000   2676091   2678667   2681220   2683730   2686199  
  5830.000000   2688636   2691068   2693515   2695984   2698459  
  5820.000000   2700910   2703300   2705605   2707826   2709986  
  5810.000000   2712127   2714284   2716485   2718723   2720991  
  5800.000000   2723256   2725518   2727761   2730011   2732253  
  5790.000000   2734489   2736659   2738708   2740526   2742027  
  5780.000000   2743100   2743677   2743691   2743128   2741987  
  5770.000000   2740331   2738237   2735837   2733255   2730636  
  5760.000000   2728073   2725650   2723389   2721307   2719385  
  5750.000000   2717622   2716005   2714535   2713202   2711993  
  5740.000000   2710883   2709843   2708851   2707884   2706942  
  5730.000000   2706016   2705113   2704223   2703347   2702473  
  5720.000000   2701612   2700769   2699972   2699238   2698588  
  5710.000000   2698022   2697538   2697117   2696748   2696419  
  5700.000000   2696124   2695862   2695627   2695414   2695214  
  5690.000000   2695030   2694863   2694732   2694646   2694613  
  5680.000000   2694610   2694604   2694531   2694330   2693936  
  5670.000000   2693311   2692428   2691288   2689895   2688273  
  5660.000000   2686447   2684463   2682365   2680217   2678067  
  5650.000000   2675961   2673914   2671932   2669997   2668104  
  5640.000000   2666248   2664448   2662723   2661094   2659566  
  5630.000000   2658123   2656741   2655386   2654043   2652705  
  5620.000000   2651389   2650111   2648890   2647727   2646618  
  5610.000000   2645548   2644508   2643492   2642504   2641544  
  5600.000000   2640613   2639700   2638795   2637890   2636986  
  5590.000000   2636090   2635214   2634364   2633530   2632690  
  5580.000000   2631816   2630885   2629888   2628835   2627743  
  5570.000000   2626633   2625510   2624366   2623183   2621949  
  5560.000000   2620664   2619349   2618037   2616763   2615548  
  5550.000000   2614397   2613293   2612215   2611144   2610074  
  5540.000000   2609012   2607964   2606931   2605903   2604864  
  5530.000000   2603799   2602707   2601605   2600518   2599473  
  5520.000000   2598482   2597535   2596606   2595662   2594675  
  5510.000000   2593633   2592538   2591402   2590231   2589026  
  5500.000000   2587779   2586489   2585160   2583814   2582474  
  5490.000000   2581165   2579883   2578611   2577308   2575940  
  5480.000000   2574484   2572947   2571352   2569738   2568131  
  5470.000000   2566538   2564942   2563315   2561625   2559860  
  5460.000000   2558020   2556119   2554168   2552178   2550147  
  5450.000000   2548076   2545970   2543845   2541724   2539632  
  5440.000000   2537585   2535588   2533644   2531751   2529922  
  5430.000000   2528173   2526519   2524956   2523463   2521996  
  5420.000000   2520519   2519004   2517473   2515969   2514572  
  5410.000000   2513338   2512307   2511458   2510755   2510134  
  5400.000000   2509575   2509065   2508645   2508346   2508214  
  5390.000000   2508243   2508428   2508724   2509121   2509602  
  5380.000000   2510206   2510952   2511889   2513008   2514317  
  5370.000000   2515767   2517351   2519025   2520812   2522691  
  5360.000000   2524705   2526835   2529132   2531588   2534285  
  5350.000000   2537249   2540587   2544323   2548536   2553191  
  5340.000000   2558313   2563831   2569777   2576103   2582874  
  5330.000000   2590051   2597694   2605738   2614227   2623098  
  5320.000000   2632435   2642228   2652622   2663629   2675388  
  5310.000000   2687864   2701134   2715106   2729831   2745228  
  5300.000000   2761386   2778274   2796027   2814643   2834255  
  5290.000000   2854830   2876436   2898951   2922338   2946407  
  5280.000000   2971094   2996269   3021977   3048228   3075170  
  5270.000000   3102852   3131331   3160494   3190175   3220116  
  5260.000000   3250098   3279976   3309707   3339343   3368929  
  5250.000000   3398493   3427919   3457056   3485630   3513480  
  5240.000000   3540428   3566523   3591776   3616385   3640395  
  5230.000000   3663942   3686936   3709363   3731017   3751846  
  5220.000000   3771687   3790607   3808576   3825775   3842238  
  5210.000000   3858135   3873420   3888142   3902136   3915383  
  5200.000000   3927725   3939231   3949858   3959773   3968979  
  5190.000000   3977608   3985591   3992967   3999614   4005568  
  5180.000000   4010757   4015284   4019134   4022422   4025108  
  5170.000000   4027259   4028808   4029820   4030264   4030243  
  5160.000000   4029752   4028883   4027592   4025912   4023769  
  5150.000000   4021193   4018155   4014735   4010949   4006884  
  5140.000000   4002530   3997931   3993048   3987911   3982507  
  5130.000000   3976901   3971114   3965216   3959211   3953124  
  5120.000000   3946927   3940626   3934200   3927678   3921073  
  5110.000000   3914426   3907755   3901085   3894417   3887763  
  5100.000000   3881122   3874505   3867912   3861345   3854793  
  5090.000000   3848252   3841716   3835198   3828718   3822310  
  5080.000000   3815992   3809775   3803638   3797544   3791444  
  5070.000000   3785297   3779076   3772776   3766404   3759976  
  5060.000000   3753495   3746963   3740366   3733697   3726952  
  5050.000000   3720142   3713280   3706389   3699476   3692547  
  5040.000000   3685592   3678608   3671589   3664546   3657496  
  5030.000000   3650459   3643453   3636489   3629572   3622699  
  5020.000000   3615874   3609101   3602400   3595783   3589279  
  5010.000000   3582897   3576660   3570563   3564630   3558852  
  5000.000000   3553258   3547845   3542646   3537655   3532904  
  4990.000000   3528383   3524123   3520109   3516376   3512900  
  4980.000000   3509712   3506778   3504126   3501723   3499609  
  4970.000000   3497766   3496256   3495070   3494271   3493841  
  4960.000000   3493823   3494180   3494942   3496064   3497581  
  4950.000000   3499453   3501719   3504340   3507355   3510721  
  4940.000000   3514476   3518579   3523072   3527916   3533148  
  4930.000000   3538723   3544666   3550928   3557536   3564450  
  4920.000000   3571708   3579284   3587214   3595468   3604063  
  4910.000000   3612959   3622156   3631612   3641324   3651253  
  4900.000000   3661389   3671691   3682132   3692668   3703259  
  4890.000000   3713868   3724450   3734972   3745386   3755663  
  4880.000000   3765747   3775615   3785211   3794524   3803492  
  4870.000000   3812107   3820297   3828052   3835306   3842067  
  4860.000000   3848301   3854053   3859319   3864165   3868593  
  4850.000000   3872662   3876366   3879760   3882849   3885699  
  4840.000000   3888331   3890818   3893181   3895480   3897720  
  4830.000000   3899940   3902138   3904339   3906540   3908756  
  4820.000000   3910975   3913199   3915414   3917621   3919817  
  4810.000000   3922010   3924209   3926421   3928649   3930887  
  4800.000000   3933125   3935353   3937565   3939761   3941947  
  4790.000000   3944135   3946332   3948544   3950772   3953019  
  4780.000000   3955285   3957575   3959888   3962222   3964558  
  4770.000000   3966879   3969151   3971351   3973453   3975453  
  4760.000000   3977347   3979147   3980850   3982467   3983984  
  4750.000000   3985400   3986700   3987888   3988957   3989919  
  4740.000000   3990770   3991520   3992160   3992695   3993120  
  4730.000000   3993445   3993677   3993837   3993939   3994004  
  4720.000000   3994046   3994083   3994126   3994189   3994284  
  4710.000000   3994424   3994617   3994869   3995184   3995563  
  4700.000000   3996008   3996521   3997104   3997758   3998487  
  4690.000000   3999292   4000177   4001143   4002195   4003327  
  4680.000000   4004530   4005774   4007028   4008243   4009381  
  4670.000000   4010406   4011316   4012117   4012855   4013573  
  4660.000000   4014334   4015185   4016179   4017348   4018724  
  4650.000000   4020326   4022166   4024236   4026513   4028955  
  4640.000000   4031501   4034089   4036661   4039174   4041604  
  4630.000000   4043945   4046200   4048374   4050459   4052447  
  4620.000000   4054309   4056023   4057557   4058897   4060022  
  4610.000000   4060938   4061639   4062151   4062483   4062681  
  4600.000000   4062767   4062794   4062780   4062764   4062735  
  4590.000000   4062698   4062612   4062452   4062162   4061716  
  4580.000000   4061067   4060206   4059115   4057813   4056308  
  4570.000000   4054640   4052833   4050926   4048931   4046869  
  4560.000000   4044731   4042521   4040224   4037848   4035394  
  4550.000000   4032882   4030324   4027741   4025134   4022507  
  4540.000000   4019854   4017173   4014473   4011767   4009086  
  4530.000000   4006452   4003898   4001431   3999068   3996793  
  4520.000000   3994620   3992531   3990559   3988697   3987006  
  4510.000000   3985487   3984217   3983201   3982530   3982215  
  4500.000000   3982360   3982972   3984153   3985892   3988274  
  4490.000000   3991268   3994948   3999278   4004336   4010083  
  4480.000000   4016595   4023823   4031824   4040531   4049980  
  4470.000000   4060093   4070896   4082307   4094341   4106907  
  4460.000000   4120000   4133520   4147441   4161659   4176140  
  4450.000000   4190791   4205583   4220450   4235379   4250335  
  4440.000000   4265313   4280300   4295281   4310249   4325165  
  4430.000000   4340023   4354763   4369379   4383795   4398000  
  4420.000000   4411895   4425461   4438577   4451215   4463250  
  4410.000000   4474654   4485313   4495215   4504269   4512494  
  4400.000000   4519842   4526378   4532103   4537128   4541502  
  4390.000000   4545366   4548795   4551940   4554882   4557752  
  4380.000000   4560610   4563543   4566572   4569737   4573038  
  4370.000000   4576497   4580125   4583953   4588015   4592341  
  4360.000000   4596959   4601879   4607087   4612566   4618250  
  4350.000000   4624107   4630041   4636038   4642023   4648035  
  4340.000000   4654046   4660112   4666158   4672091   4677612  
  4330.000000   4682339   4685728   4687263   4686495   4683237  
  4320.000000   4677586   4669999   4661153   4651883   4642948  
  4310.000000   4634977   4628302   4623045   4619077   4616198  
  4300.000000   4614142   4612706   4611735   4611131   4610848  
  4290.000000   4610829   4611063   4611498   4612147   4612987  
  4280.000000   4614044   4615312   4616786   4618443   4620241  
  4270.000000   4622158   4624143   4626168   4628138   4629926  
  4260.000000   4631299   4631985   4631667   4630094   4627110  
  4250.000000   4622746   4617186   4610788   4603959   4597144  
  4240.000000   4590684   4584838   4579699   4575273   4571452  
  4230.000000   4568104   4565065   4562187   4559353   4556468  
  4220.000000   4553502   4550444   4547367   4544334   4541484  
  4210.000000   4538903   4536717   4534963   4533690   4532865  
  4200.000000   4532463   4532403   4532636   4533074   4533684  
  4190.000000   4534398   4535218   4536114   4537123   4538234  
  4180.000000   4539498   4540893   4542451   4544133   4545967  
  4170.000000   4547932   4550100   4552500   4555249   4558399  
  4160.000000   4562053   4566218   4570937   4576151   4581864  
  4150.000000   4588001   4594574   4601530   4608906   4616663  
  4140.000000   4624849   4633424   4642437   4651846   4661705  
  4130.000000   4671974   4682707   4693864   4705492   4717552  
  4120.000000   4730091   4743080   4756572   4770552   4785071  
  4110.000000   4800112   4815705   4831804   4848396   4865399  
  4100.000000   4882760   4900377   4918189   4936119   4954135  
  4090.000000   4972208   4990337   5008524   5026767   5045075  
  4080.000000   5063430   5081839   5100268   5118717   5137114  
  4070.000000   5155425   5173526   5191352   5208759   5225706  
  4060.000000   5242092   5257933   5273166   5287836   5301880  
  4050.000000   5315355   5328209   5340538   5352321   5363677  
  4040.000000   5374561   5385043   5394998   5404425   5413160  
  4030.000000   5421205   5428429   5434875   5440457   5445223  
  4020.000000   5449077   5452084   5454235   5455636   5456269  
  4010.000000   5456301   5455827   5454876   5453218   5450908  
  4000.000000   5448262  
##END= 
