##TITLE= Sample 014 By ssteindl date Donnerstag, November 22 2018
##JCAMP-DX= 4.24
##DATA TYPE= INFRARED SPECTRUM
##ORIGIN= Exported PE Spectrum Data File
##OWNER= Sandra Steindl
##DATE= 18/11/22
##TIME= 10:39:41.00
##SPECTROMETER/DATA SYSTEM= PERKIN-ELMER Frontier FT-IR/NIR IR
##INSTRUMENT PARAMETERS=
  APODIZATION=stark
  DETECTOR=INGAAS
##RESOLUTION= 16.000000
##DELTAX= -2.000000
##XUNITS= 1/CM
##YUNITS= A
##XFACTOR= 1.00
##YFACTOR= 0.00000011920928955078
##FIRSTX= 10000.00
##LASTX= 4000.00
##NPOINTS= 3001
##FIRSTY= 0.229663
##MAXY= 0.590374
##MINY= 0.187033
##XYDATA= (X++(Y..Y))
 10000.000000   1926550   1917377   1908549   1901072   1896328  
  9990.000000   1895378   1898569   1905397   1914764   1925096  
  9980.000000   1934629   1941689   1945269   1945166   1942139  
  9970.000000   1937538   1932979   1929722   1928330   1928480  
  9960.000000   1929260   1929522   1928468   1925888   1922217  
  9950.000000   1918236   1914616   1911639   1909065   1906445  
  9940.000000   1903453   1900275   1897664   1896730   1898482  
  9930.000000   1903372   1910990   1920108   1929006   1935996  
  9920.000000   1939921   1940438   1938014   1933662   1928559  
  9910.000000   1923767   1920009   1917691   1916879   1917397  
  9900.000000   1918800   1920457   1921557   1921322   1919104  
  9890.000000   1914654   1908178   1900347   1892176   1884689  
  9880.000000   1878774   1874854   1872963   1872708   1873480  
  9870.000000   1874606   1875488   1875805   1875520   1875000  
  9860.000000   1874853   1875844   1878601   1883400   1889988  
  9850.000000   1897537   1904820   1910462   1913333   1912796  
  9840.000000   1908912   1902340   1894192   1885651   1877740  
  9830.000000   1871087   1865901   1862056   1859197   1856969  
  9820.000000   1855064   1853411   1852090   1851398   1851653  
  9810.000000   1853103   1855759   1859293   1863116   1866447  
  9800.000000   1868609   1869168   1868123   1865860   1863042  
  9790.000000   1860369   1858370   1857251   1856911   1857025  
  9780.000000   1857192   1857043   1856267   1854656   1852068  
  9770.000000   1848526   1844249   1839733   1835689   1832894  
  9760.000000   1831933   1832953   1835527   1838742   1841470  
  9750.000000   1842768   1842215   1840044   1837038   1834172  
  9740.000000   1832245   1831547   1831849   1832509   1832846  
  9730.000000   1832366   1830976   1828926   1826670   1824658  
  9720.000000   1823173   1822328   1822082   1822376   1823155  
  9710.000000   1824389   1826014   1827885   1829776   1831438  
  9700.000000   1832652   1833322   1833421   1832991   1832039  
  9690.000000   1830545   1828510   1826022   1823333   1820783  
  9680.000000   1818710   1817231   1816173   1815039   1813216  
  9670.000000   1810207   1805909   1800752   1795606   1791566  
  9660.000000   1789538   1790006   1792846   1797465   1802997  
  9650.000000   1808593   1813599   1817606   1820410   1821891  
  9640.000000   1821978   1820620   1817913   1814118   1809757  
  9630.000000   1805440   1801761   1799058   1797311   1796224  
  9620.000000   1795300   1794177   1792663   1790927   1789320  
  9610.000000   1788309   1788236   1789205   1791030   1793227  
  9600.000000   1795198   1796288   1796057   1794265   1791038  
  9590.000000   1786751   1781987   1777407   1773574   1770923  
  9580.000000   1769622   1769702   1771016   1773418   1776698  
  9570.000000   1780636   1784883   1788932   1792123   1793702  
  9560.000000   1793057   1789839   1784197   1776723   1768424  
  9550.000000   1760425   1753739   1749031   1746505   1745967  
  9540.000000   1746903   1748688   1750679   1752359   1753377  
  9530.000000   1753589   1753086   1752111   1751077   1750347  
  9520.000000   1750250   1750856   1752071   1753585   1755055  
  9510.000000   1756219   1756990   1757521   1758066   1758944  
  9500.000000   1760338   1762311   1764739   1767414   1770053  
  9490.000000   1772376   1774065   1774816   1774344   1772478  
  9480.000000   1769259   1764971   1760135   1755354   1751156  
  9470.000000   1747794   1745165   1742888   1740479   1737659  
  9460.000000   1734481   1731422   1729153   1728334   1729288  
  9450.000000   1731900   1735626   1739661   1743223   1745707  
  9440.000000   1746884   1746770   1745612   1743648   1741109  
  9430.000000   1738162   1735000   1731866   1729061   1726899  
  9420.000000   1725623   1725377   1726141   1727777   1730005  
  9410.000000   1732482   1734804   1736588   1737513   1737394  
  9400.000000   1736243   1734300   1732022   1729978   1728694  
  9390.000000   1728475   1729293   1730783   1732368   1733443  
  9380.000000   1733543   1732471   1730279   1727243   1723732  
  9370.000000   1720159   1716891   1714258   1712501   1711769  
  9360.000000   1712041   1713116   1714579   1715922   1716624  
  9350.000000   1716364   1715069   1712947   1710383   1707776  
  9340.000000   1705450   1703507   1701906   1700417   1698804  
  9330.000000   1696828   1694386   1691488   1688292   1685081  
  9320.000000   1682236   1680209   1679397   1680080   1682274  
  9310.000000   1685726   1689966   1694428   1698644   1702311  
  9300.000000   1705341   1707712   1709361   1710076   1709560  
  9290.000000   1707594   1704238   1699956   1695569   1692082  
  9280.000000   1690305   1690568   1692491   1695141   1697356  
  9270.000000   1698176   1697149   1694408   1690542   1686304  
  9260.000000   1682349   1679054   1676566   1674917   1674202  
  9250.000000   1674617   1676345   1679386   1683368   1687619  
  9240.000000   1691295   1693722   1694620   1694232   1693209  
  9230.000000   1692282   1691931   1692127   1692391   1692014  
  9220.000000   1690431   1687472   1683459   1679077   1675077  
  9210.000000   1672020   1670032   1668899   1668159   1667422  
  9200.000000   1666484   1665428   1664515   1664039   1664182  
  9190.000000   1664919   1666034   1667146   1667845   1667748  
  9180.000000   1666646   1664472   1661397   1657774   1654155  
  9170.000000   1651149   1649259   1648742   1649505   1651153  
  9160.000000   1653097   1654794   1655906   1656431   1656624  
  9150.000000   1656860   1657425   1658365   1659469   1660339  
  9140.000000   1660590   1659969   1658461   1656254   1653663  
  9130.000000   1651006   1648536   1646414   1644724   1643506  
  9120.000000   1642738   1642328   1642089   1641782   1641193  
  9110.000000   1640235   1639018   1637858   1637164   1637272  
  9100.000000   1638260   1639886   1641670   1643054   1643649  
  9090.000000   1643343   1642387   1641200   1640213   1639611  
  9080.000000   1639292   1638904   1638052   1636496   1634307  
  9070.000000   1631911   1629945   1629055   1629624   1631720  
  9060.000000   1635042   1639048   1643062   1646465   1648847  
  9050.000000   1650011   1650001   1648999   1647332   1645329  
  9040.000000   1643282   1641357   1639629   1638089   1636709  
  9030.000000   1635524   1634639   1634280   1634642   1635862  
  9020.000000   1637850   1640343   1642920   1645141   1646673  
  9010.000000   1647374   1647334   1646763   1645904   1644898  
  9000.000000   1643787   1642512   1641029   1639352   1637612  
  8990.000000   1636004   1634704   1633803   1633241   1632897  
  8980.000000   1632633   1632432   1632397   1632758   1633747  
  8970.000000   1635481   1637855   1640538   1643058   1644921  
  8960.000000   1645769   1645476   1644209   1642334   1640305  
  8950.000000   1638523   1637236   1636509   1636204   1636094  
  8940.000000   1635918   1635516   1634823   1633914   1632931  
  8930.000000   1632021   1631270   1630639   1630018   1629209  
  8920.000000   1628073   1626521   1624609   1622498   1620412  
  8910.000000   1618611   1617320   1616752   1617060   1618371  
  8900.000000   1620720   1624016   1627968   1632071   1635669  
  8890.000000   1638087   1638840   1637748   1635068   1631385  
  8880.000000   1627504   1624136   1621726   1620315   1619612  
  8870.000000   1619151   1618495   1617438   1616068   1614731  
  8860.000000   1613853   1613791   1614688   1616433   1618701  
  8850.000000   1621073   1623188   1624826   1625974   1626775  
  8840.000000   1627500   1628420   1629738   1631480   1633485  
  8830.000000   1635403   1636807   1637314   1636740   1635190  
  8820.000000   1633066   1630977   1629539   1629204   1630063  
  8810.000000   1631868   1634082   1636113   1637502   1638082  
  8800.000000   1638002   1637618   1637330   1637384   1637804  
  8790.000000   1638366   1638750   1638642   1637910   1636630  
  8780.000000   1635089   1633687   1632807   1632738   1633573  
  8770.000000   1635248   1637546   1640174   1642816   1645179  
  8760.000000   1647047   1648301   1648927   1649006   1648683  
  8750.000000   1648127   1647514   1646979   1646633   1646529  
  8740.000000   1646694   1647101   1647677   1648300   1648808  
  8730.000000   1649046   1648911   1648412   1647684   1646979  
  8720.000000   1646585   1646756   1647631   1649197   1651308  
  8710.000000   1653718   1656164   1658401   1660251   1661595  
  8700.000000   1662372   1662576   1662265   1661584   1660757  
  8690.000000   1660067   1659777   1660078   1660998   1662411  
  8680.000000   1664037   1665539   1666594   1666991   1666677  
  8670.000000   1665727   1664330   1662696   1661059   1659597  
  8660.000000   1658454   1657699   1657356   1657397   1657784  
  8650.000000   1658482   1659496   1660870   1662674   1664951  
  8640.000000   1667669   1670677   1673724   1676507   1678787  
  8630.000000   1680462   1681643   1682588   1683622   1684982  
  8620.000000   1686728   1688707   1690619   1692139   1693049  
  8610.000000   1693329   1693148   1692796   1692549   1692586  
  8600.000000   1692930   1693498   1694153   1694808   1695444  
  8590.000000   1696135   1696962   1698000   1699236   1700624  
  8580.000000   1702074   1703514   1704891   1706156   1707250  
  8570.000000   1708056   1708433   1708229   1707363   1705869  
  8560.000000   1703921   1701800   1699833   1698312   1697441  
  8550.000000   1697295   1697826   1698893   1700292   1701808  
  8540.000000   1703237   1704430   1705324   1705956   1706483  
  8530.000000   1707121   1708110   1709578   1711522   1713742  
  8520.000000   1715943   1717777   1718994   1719501   1719418  
  8510.000000   1719023   1718651   1718621   1719134   1720280  
  8500.000000   1722005   1724196   1726688   1729304   1731846  
  8490.000000   1734107   1735908   1737097   1737616   1737481  
  8480.000000   1736824   1735827   1734706   1733645   1732799  
  8470.000000   1732303   1732280   1732870   1734163   1736226  
  8460.000000   1738995   1742312   1745872   1749341   1752402  
  8450.000000   1754846   1756591   1757655   1758132   1758105  
  8440.000000   1757648   1756791   1755585   1754112   1752506  
  8430.000000   1750928   1749513   1748352   1747456   1746811  
  8420.000000   1746384   1746207   1746342   1746888   1747875  
  8410.000000   1749250   1750832   1752379   1753666   1754572  
  8400.000000   1755153   1755586   1756106   1756854   1757818  
  8390.000000   1758790   1759454   1759504   1758787   1757394  
  8380.000000   1755643   1753999   1752892   1752615   1753198  
  8370.000000   1754451   1755992   1757414   1758382   1758726  
  8360.000000   1758446   1757684   1756649   1755556   1754550  
  8350.000000   1753700   1752990   1752356   1751718   1751013  
  8340.000000   1750211   1749330   1748412   1747515   1746675  
  8330.000000   1745894   1745124   1744291   1743319   1742158  
  8320.000000   1740820   1739377   1737958   1736710   1735754  
  8310.000000   1735149   1734872   1734825   1734863   1734833  
  8300.000000   1734619   1734171   1733529   1732787   1732078  
  8290.000000   1731501   1731106   1730855   1730636   1730304  
  8280.000000   1729741   1728924   1727946   1727005   1726337  
  8270.000000   1726139   1726489   1727301   1728332   1729246  
  8260.000000   1729725   1729558   1728708   1727307   1725604  
  8250.000000   1723897   1722436   1721385   1720783   1720584  
  8240.000000   1720667   1720905   1721156   1721306   1721247  
  8230.000000   1720905   1720224   1719201   1717864   1716285  
  8220.000000   1714555   1712763   1710986   1709272   1707649  
  8210.000000   1706123   1704679   1703293   1701914   1700494  
  8200.000000   1698987   1697385   1695733   1694146   1692781  
  8190.000000   1691805   1691319   1691320   1691670   1692133  
  8180.000000   1692442   1692376   1691834   1690843   1689548  
  8170.000000   1688126   1686727   1685406   1684117   1682747  
  8160.000000   1681184   1679377   1677375   1675321   1673401  
  8150.000000   1671789   1670580   1669763   1669217   1668750  
  8140.000000   1668165   1667306   1666117   1664641   1663015  
  8130.000000   1661421   1660040   1659001   1658347   1658027  
  8120.000000   1657916   1657853   1657689   1657322   1656723  
  8110.000000   1655912   1654943   1653854   1652660   1651336  
  8100.000000   1649855   1648208   1646444   1644673   1643053  
  8090.000000   1641752   1640886   1640499   1640527   1640836  
  8080.000000   1641246   1641580   1641710   1641557   1641110  
  8070.000000   1640392   1639459   1638367   1637182   1635972  
  8060.000000   1634814   1633793   1632987   1632463   1632244  
  8050.000000   1632316   1632600   1632980   1633301   1633410  
  8040.000000   1633183   1632552   1631522   1630169   1628626  
  8030.000000   1627045   1625564   1624274   1623207   1622348  
  8020.000000   1621646   1621054   1620530   1620056   1619619  
  8010.000000   1619203   1618778   1618300   1617734   1617058  
  8000.000000   1616292   1615479   1614689   1613980   1613386  
  7990.000000   1612909   1612522   1612195   1611904   1611648  
  7980.000000   1611439   1611288   1611188   1611105   1610984  
  7970.000000   1610763   1610398   1609866   1609179   1608366  
  7960.000000   1607473   1606553   1605663   1604870   1604240  
  7950.000000   1603839   1603696   1603800   1604085   1604445  
  7940.000000   1604766   1604955   1604974   1604823   1604545  
  7930.000000   1604151   1603639   1602947   1602029   1600865  
  7920.000000   1599537   1598216   1597141   1596552   1596601  
  7910.000000   1597315   1598575   1600178   1601903   1603585  
  7900.000000   1605142   1606563   1607860   1609009   1609930  
  7890.000000   1610499   1610612   1610234   1609454   1608456  
  7880.000000   1607475   1606707   1606243   1606050   1605982  
  7870.000000   1605868   1605562   1605013   1604254   1603384  
  7860.000000   1602513   1601727   1601073   1600572   1600246  
  7850.000000   1600129   1600264   1600675   1601338   1602168  
  7840.000000   1603030   1603784   1604330   1604641   1604769  
  7830.000000   1604803   1604834   1604897   1604965   1604958  
  7820.000000   1604788   1604403   1603811   1603088   1602339  
  7810.000000   1601679   1601179   1600875   1600752   1600780  
  7800.000000   1600906   1601083   1601249   1601338   1601276  
  7790.000000   1600998   1600465   1599681   1598706   1597635  
  7780.000000   1596586   1595660   1594921   1594382   1594013  
  7770.000000   1593759   1593552   1593348   1593113   1592845  
  7760.000000   1592550   1592249   1591956   1591675   1591393  
  7750.000000   1591071   1590663   1590112   1589389   1588497  
  7740.000000   1587485   1586442   1585475   1584678   1584103  
  7730.000000   1583754   1583579   1583508   1583470   1583424  
  7720.000000   1583362   1583295   1583241   1583192   1583119  
  7710.000000   1582962   1582662   1582168   1581467   1580582  
  7700.000000   1579569   1578515   1577521   1576693   1576126  
  7690.000000   1575895   1576022   1576474   1577147   1577882  
  7680.000000   1578498   1578834   1578798   1578377   1577653  
  7670.000000   1576758   1575842   1575029   1574396   1573968  
  7660.000000   1573733   1573663   1573729   1573906   1574166  
  7650.000000   1574470   1574762   1574972   1575039   1574909  
  7640.000000   1574564   1574005   1573269   1572402   1571476  
  7630.000000   1570572   1569786   1569216   1568943   1569014  
  7620.000000   1569410   1570056   1570831   1571599   1572249  
  7610.000000   1572725   1573030   1573209   1573328   1573424  
  7600.000000   1573509   1573557   1573537   1573422   1573217  
  7590.000000   1572953   1572680   1572448   1572295   1572244  
  7580.000000   1572307   1572492   1572802   1573233   1573762  
  7570.000000   1574347   1574931   1575463   1575920   1576320  
  7560.000000   1576713   1577160   1577697   1578309   1578932  
  7550.000000   1579465   1579822   1579961   1579916   1579779  
  7540.000000   1579668   1579678   1579848   1580151   1580517  
  7530.000000   1580871   1581176   1581444   1581745   1582158  
  7520.000000   1582746   1583520   1584437   1585418   1586381  
  7510.000000   1587271   1588085   1588860   1589667   1590568  
  7500.000000   1591612   1592792   1594069   1595358   1596568  
  7490.000000   1597607   1598422   1599000   1599392   1599702  
  7480.000000   1600066   1600625   1601482   1602685   1604206  
  7470.000000   1605957   1607808   1609621   1611289   1612743  
  7460.000000   1613967   1614977   1615822   1616550   1617223  
  7450.000000   1617883   1618574   1619322   1620149   1621062  
  7440.000000   1622069   1623180   1624412   1625794   1627355  
  7430.000000   1629112   1631053   1633130   1635270   1637384  
  7420.000000   1639405   1641286   1643029   1644651   1646187  
  7410.000000   1647651   1649045   1650355   1651580   1652747  
  7400.000000   1653916   1655175   1656602   1658251   1660116  
  7390.000000   1662141   1664230   1666285   1668226   1670011  
  7380.000000   1671634   1673105   1674447   1675678   1676816  
  7370.000000   1677883   1678916   1679964   1681074   1682285  
  7360.000000   1683601   1685008   1686469   1687954   1689448  
  7350.000000   1690963   1692520   1694138   1695810   1697495  
  7340.000000   1699134   1700660   1702031   1703236   1704308  
  7330.000000   1705299   1706270   1707267   1708319   1709434  
  7320.000000   1710609   1711840   1713132   1714495   1715933  
  7310.000000   1717449   1719023   1720632   1722236   1723803  
  7300.000000   1725307   1726732   1728079   1729351   1730559  
  7290.000000   1731705   1732787   1733787   1734684   1735464  
  7280.000000   1736127   1736703   1737255   1737871   1738637  
  7270.000000   1739617   1740830   1742238   1743757   1745275  
  7260.000000   1746698   1747957   1749045   1749985   1750845  
  7250.000000   1751690   1752593   1753600   1754756   1756079  
  7240.000000   1757586   1759257   1761064   1762942   1764836  
  7230.000000   1766693   1768516   1770339   1772253   1774339  
  7220.000000   1776670   1779254   1782054   1784973   1787921  
  7210.000000   1790815   1793635   1796396   1799160   1801975  
  7200.000000   1804883   1807882   1810960   1814086   1817251  
  7190.000000   1820445   1823683   1826955   1830255   1833544  
  7180.000000   1836793   1839974   1843091   1846165   1849240  
  7170.000000   1852349   1855523   1858768   1862093   1865499  
  7160.000000   1869003   1872612   1876340   1880168   1884070  
  7150.000000   1887999   1891930   1895853   1899804   1903825  
  7140.000000   1907977   1912267   1916687   1921173   1925677  
  7130.000000   1930162   1934653   1939200   1943891   1948776  
  7120.000000   1953881   1959154   1964530   1969918   1975278  
  7110.000000   1980593   1985905   1991241   1996629   2002047  
  7100.000000   2007465   2012839   2018168   2023485   2028872  
  7090.000000   2034416   2040188   2046205   2052435   2058800  
  7080.000000   2065210   2071581   2077856   2084006   2090025  
  7070.000000   2095917   2101695   2107374   2112975   2118518  
  7060.000000   2124024   2129502   2134945   2140337   2145657  
  7050.000000   2150897   2156060   2161177   2166273   2171378  
  7040.000000   2176498   2181634   2186778   2191929   2197096  
  7030.000000   2202291   2207510   2212722   2217865   2222867  
  7020.000000   2227668   2232266   2236711   2241117   2245601  
  7010.000000   2250262   2255128   2260159   2265254   2270305  
  7000.000000   2275212   2279925   2284424   2288720   2292809  
  6990.000000   2296692   2300361   2303840   2307182   2310485  
  6980.000000   2313848   2317352   2321001   2324741   2328446  
  6970.000000   2331998   2335295   2338320   2341108   2343756  
  6960.000000   2346350   2348958   2351596   2354253   2356891  
  6950.000000   2359485   2362009   2364458   2366810   2369047  
  6940.000000   2371134   2373066   2374845   2376522   2378147  
  6930.000000   2379780   2381437   2383104   2384727   2386250  
  6920.000000   2387630   2388868   2389995   2391065   2392113  
  6910.000000   2393163   2394200   2395212   2396189   2397152  
  6900.000000   2398136   2399182   2400307   2401494   2402691  
  6890.000000   2403840   2404895   2405849   2406733   2407601  
  6880.000000   2408499   2409446   2410424   2411385   2412276  
  6870.000000   2413059   2413731   2414320   2414874   2415452  
  6860.000000   2416098   2416846   2417707   2418672   2419706  
  6850.000000   2420753   2421737   2422586   2423247   2423713  
  6840.000000   2424027   2424281   2424580   2425014   2425619  
  6830.000000   2426374   2427205   2428026   2428765   2429392  
  6820.000000   2429916   2430375   2430799   2431197   2431548  
  6810.000000   2431819   2431976   2432016   2431960   2431855  
  6800.000000   2431751   2431697   2431716   2431824   2432016  
  6790.000000   2432282   2432590   2432896   2433132   2433227  
  6780.000000   2433123   2432798   2432289   2431681   2431089  
  6770.000000   2430617   2430326   2430214   2430230   2430298  
  6760.000000   2430353   2430366   2430347   2430330   2430347  
  6750.000000   2430403   2430480   2430537   2430549   2430507  
  6740.000000   2430438   2430384   2430386   2430465   2430616  
  6730.000000   2430813   2431022   2431222   2431404   2431572  
  6720.000000   2431728   2431870   2431988   2432072   2432127  
  6710.000000   2432172   2432236   2432344   2432494   2432662  
  6700.000000   2432795   2432841   2432764   2432566   2432278  
  6690.000000   2431954   2431637   2431354   2431096   2430835  
  6680.000000   2430533   2430167   2429719   2429192   2428580  
  6670.000000   2427878   2427068   2426142   2425103   2423988  
  6660.000000   2422850   2421757   2420760   2419890   2419139  
  6650.000000   2418485   2417888   2417319   2416754   2416177  
  6640.000000   2415566   2414885   2414090   2413133   2411984  
  6630.000000   2410643   2409139   2407537   2405910   2404336  
  6620.000000   2402874   2401570   2400438   2399475   2398646  
  6610.000000   2397897   2397148   2396321   2395345   2394186  
  6600.000000   2392848   2391377   2389840   2388297   2386779  
  6590.000000   2385282   2383773   2382218   2380600   2378935  
  6580.000000   2377266   2375646   2374112   2372673   2371303  
  6570.000000   2369965   2368626   2367280   2365943   2364652  
  6560.000000   2363432   2362290   2361199   2360113   2358981  
  6550.000000   2357769   2356472   2355105   2353700   2352283  
  6540.000000   2350871   2349466   2348064   2346664   2345266  
  6530.000000   2343878   2342504   2341152   2339821   2338519  
  6520.000000   2337257   2336053   2334926   2333882   2332904  
  6510.000000   2331948   2330953   2329856   2328616   2327225  
  6500.000000   2325713   2324136   2322558   2321035   2319599  
  6490.000000   2318263   2317019   2315853   2314746   2313675  
  6480.000000   2312612   2311524   2310378   2309152   2307844  
  6470.000000   2306471   2305075   2303700   2302387   2301155  
  6460.000000   2300007   2298925   2297888   2296876   2295876  
  6450.000000   2294874   2293857   2292805   2291701   2290535  
  6440.000000   2289319   2288086   2286888   2285774   2284783  
  6430.000000   2283924   2283179   2282507   2281868   2281233  
  6420.000000   2280594   2279958   2279341   2278751   2278186  
  6410.000000   2277628   2277064   2276483   2275894   2275313  
  6400.000000   2274770   2274283   2273869   2273520   2273225  
  6390.000000   2272964   2272722   2272486   2272252   2272021  
  6380.000000   2271804   2271614   2271472   2271392   2271382  
  6370.000000   2271434   2271515   2271581   2271576   2271460  
  6360.000000   2271210   2270842   2270394   2269921   2269471  
  6350.000000   2269074   2268727   2268409   2268077   2267691  
  6340.000000   2267220   2266648   2265972   2265205   2264358  
  6330.000000   2263452   2262507   2261551   2260608   2259710  
  6320.000000   2258875   2258119   2257435   2256814   2256227  
  6310.000000   2255646   2255035   2254367   2253617   2252775  
  6300.000000   2251841   2250828   2249757   2248656   2247544  
  6290.000000   2246438   2245340   2244251   2243165   2242089  
  6280.000000   2241027   2239991   2238978   2237976   2236951  
  6270.000000   2235866   2234680   2233372   2231946   2230437  
  6260.000000   2228898   2227384   2225934   2224563   2223256  
  6250.000000   2221981   2220697   2219370   2217980   2216529  
  6240.000000   2215032   2213516   2212013   2210553   2209160  
  6230.000000   2207847   2206609   2205427   2204268   2203094  
  6220.000000   2201873   2200588   2199241   2197852   2196455  
  6210.000000   2195079   2193751   2192483   2191278   2190131  
  6200.000000   2189038   2187992   2186990   2186022   2185080  
  6190.000000   2184153   2183233   2182317   2181409   2180512  
  6180.000000   2179634   2178771   2177919   2177068   2176217  
  6170.000000   2175369   2174541   2173748   2173004   2172308  
  6160.000000   2171644   2170989   2170321   2169627   2168912  
  6150.000000   2168192   2167484   2166798   2166129   2165460  
  6140.000000   2164771   2164048   2163296   2162530   2161775  
  6130.000000   2161043   2160336   2159638   2158931   2158198  
  6120.000000   2157449   2156710   2156026   2155439   2154982  
  6110.000000   2154661   2154463   2154357   2154310   2154292  
  6100.000000   2154290   2154295   2154313   2154343   2154391  
  6090.000000   2154454   2154536   2154632   2154744   2154865  
  6080.000000   2154999   2155143   2155312   2155521   2155802  
  6070.000000   2156176   2156666   2157269   2157973   2158742  
  6060.000000   2159552   2160374   2161208   2162057   2162951  
  6050.000000   2163903   2164933   2166043   2167242   2168532  
  6040.000000   2169934   2171464   2173147   2174982   2176960  
  6030.000000   2179037   2181172   2183311   2185433   2187524  
  6020.000000   2189607   2191706   2193856   2196071   2198361  
  6010.000000   2200707   2203096   2205498   2207900   2210280  
  6000.000000   2212637   2214964   2217279   2219596   2221947  
  5990.000000   2224357   2226857   2229451   2232143   2234914  
  5980.000000   2237752   2240638   2243576   2246571   2249640  
  5970.000000   2252790   2256030   2259344   2262725   2266151  
  5960.000000   2269620   2273117   2276647   2280195   2283760  
  5950.000000   2287326   2290895   2294477   2298104   2301817  
  5940.000000   2305657   2309650   2313791   2318055   2322387  
  5930.000000   2326737   2331051   2335298   2339450   2343486  
  5920.000000   2347375   2351083   2354571   2357817   2360816  
  5910.000000   2363594   2366194   2368670   2371064   2373413  
  5900.000000   2375732   2378044   2380362   2382727   2385165  
  5890.000000   2387717   2390380   2393148   2395969   2398796  
  5880.000000   2401570   2404250   2406804   2409214   2411460  
  5870.000000   2413524   2415388   2417043   2418506   2419814  
  5860.000000   2421032   2422227   2423463   2424781   2426201  
  5850.000000   2427728   2429356   2431085   2432917   2434851  
  5840.000000   2436883   2438991   2441150   2443330   2445518  
  5830.000000   2447710   2449927   2452184   2454500   2456868  
  5820.000000   2459274   2461690   2464100   2466496   2468893  
  5810.000000   2471311   2473765   2476261   2478776   2481290  
  5800.000000   2483763   2486195   2488572   2490931   2493275  
  5790.000000   2495633   2497972   2500266   2502423   2504362  
  5780.000000   2505952   2507093   2507669   2507619   2506904  
  5770.000000   2505571   2503702   2501454   2498982   2496462  
  5760.000000   2494006   2491705   2489573   2487614   2485796  
  5750.000000   2484110   2482533   2481069   2479696   2478396  
  5740.000000   2477132   2475870   2474589   2473279   2471961  
  5730.000000   2470651   2469375   2468135   2466928   2465733  
  5720.000000   2464541   2463346   2462163   2461008   2459903  
  5710.000000   2458852   2457852   2456885   2455938   2455001  
  5700.000000   2454075   2453171   2452295   2451453   2450639  
  5690.000000   2449853   2449087   2448350   2447644   2446983  
  5680.000000   2446356   2445748   2445115   2444414   2443585  
  5670.000000   2442585   2441367   2439906   2438177   2436179  
  5660.000000   2433921   2431443   2428805   2426096   2423403  
  5650.000000   2420808   2418360   2416077   2413940   2411914  
  5640.000000   2409959   2408046   2406160   2404300   2402472  
  5630.000000   2400681   2398937   2397242   2395613   2394060  
  5620.000000   2392604   2391250   2390002   2388836   2387734  
  5610.000000   2386664   2385615   2384580   2383571   2382598  
  5600.000000   2381675   2380801   2379972   2379179   2378422  
  5590.000000   2377703   2377031   2376408   2375829   2375275  
  5580.000000   2374721   2374145   2373532   2372885   2372213  
  5570.000000   2371528   2370833   2370120   2369372   2368573  
  5560.000000   2367716   2366814   2365885   2364957   2364045  
  5550.000000   2363154   2362273   2361388   2360487   2359570  
  5540.000000   2358644   2357723   2356810   2355904   2354990  
  5530.000000   2354056   2353100   2352131   2351170   2350241  
  5520.000000   2349360   2348526   2347722   2346924   2346105  
  5510.000000   2345250   2344348   2343405   2342422   2341407  
  5500.000000   2340362   2339298   2338229   2337175   2336151  
  5490.000000   2335162   2334194   2333216   2332186   2331075  
  5480.000000   2329864   2328569   2327214   2325842   2324477  
  5470.000000   2323132   2321797   2320452   2319074   2317653  
  5460.000000   2316183   2314667   2313106   2311496   2309833  
  5450.000000   2308116   2306359   2304593   2302856   2301191  
  5440.000000   2299626   2298170   2296819   2295552   2294354  
  5430.000000   2293203   2292088   2290984   2289875   2288732  
  5420.000000   2287553   2286342   2285150   2284031   2283064  
  5410.000000   2282287   2281721   2281324   2281053   2280847  
  5400.000000   2280685   2280561   2280516   2280574   2280774  
  5390.000000   2281108   2281571   2282128   2282783   2283535  
  5380.000000   2284435   2285506   2286790   2288269   2289934  
  5370.000000   2291721   2293610   2295554   2297579   2299678  
  5360.000000   2301912   2304286   2306868   2309663   2312749  
  5350.000000   2316138   2319914   2324071   2328665   2333645  
  5340.000000   2339032   2344758   2350861   2357302   2364153  
  5330.000000   2371384   2379064   2387141   2395669   2404595  
  5320.000000   2414008   2423896   2434394   2445505   2457356  
  5310.000000   2469907   2483229   2497229   2511955   2527324  
  5300.000000   2543415   2560191   2577776   2596164   2615478  
  5290.000000   2635682   2656827   2678790   2701515   2724814  
  5280.000000   2748620   2772817   2797455   2822560   2848278  
  5270.000000   2874654   2901725   2929366   2957394   2985559  
  5260.000000   3013654   3041567   3069289   3096910   3124504  
  5250.000000   3152122   3179664   3206984   3233809   3259965  
  5240.000000   3285262   3309725   3333359   3356346   3378742  
  5230.000000   3400689   3422129   3443070   3463338   3482893  
  5220.000000   3501588   3519479   3536540   3552943   3568725  
  5210.000000   3584055   3598897   3613291   3627065   3640171  
  5200.000000   3652427   3663859   3674413   3684233   3693342  
  5190.000000   3701888   3709840   3717264   3724065   3730283  
  5180.000000   3735846   3740844   3745251   3749164   3752534  
  5170.000000   3755409   3757705   3759456   3760607   3761241  
  5160.000000   3761351   3761040   3760298   3759196   3757697  
  5150.000000   3755852   3753635   3751111   3748271   3745170  
  5140.000000   3741780   3738125   3734160   3729913   3725369  
  5130.000000   3720591   3715605   3710479   3705231   3699900  
  5120.000000   3694475   3688977   3683397   3677763   3672081  
  5110.000000   3666383   3660672   3654968   3649272   3643600  
  5100.000000   3637964   3632387   3626879   3621451   3616089  
  5090.000000   3610778   3605493   3600221   3594952   3589694  
  5080.000000   3584446   3579211   3573974   3568718   3563413  
  5070.000000   3558048   3552612   3547116   3541567   3535983  
  5060.000000   3530357   3524689   3518956   3513152   3507264  
  5050.000000   3501303   3495270   3489181   3483031   3476821  
  5040.000000   3470535   3464168   3457711   3451176   3444569  
  5030.000000   3437910   3431211   3424483   3417737   3410986  
  5020.000000   3404252   3397558   3390937   3384414   3378010  
  5010.000000   3371725   3365564   3359508   3353560   3347710  
  5000.000000   3341980   3336375   3330934   3325664   3320599  
  4990.000000   3315735   3311093   3306655   3302437   3298412  
  4980.000000   3294598   3290969   3287553   3284336   3281359  
  4970.000000   3278614   3276147   3273937   3272014   3270339  
  4960.000000   3268932   3267752   3266836   3266169   3265811  
  4950.000000   3265763   3266087   3266766   3267837   3269257  
  4940.000000   3271047   3273158   3275623   3278406   3281552  
  4930.000000   3285032   3288892   3293099   3297696   3302653  
  4920.000000   3308012   3313748   3319896   3326423   3333343  
  4910.000000   3340608   3348215   3356112   3364289   3372702  
  4900.000000   3381337   3390152   3399123   3408210   3417376  
  4890.000000   3426583   3435776   3444917   3453931   3462773  
  4880.000000   3471353   3479632   3487523   3495002   3501993  
  4870.000000   3508489   3514413   3519767   3524480   3528570  
  4860.000000   3531990   3534791   3536959   3538570   3539630  
  4850.000000   3540225   3540371   3540153   3539594   3538780  
  4840.000000   3537735   3536537   3535205   3533799   3532335  
  4830.000000   3530865   3529411   3528022   3526726   3525557  
  4820.000000   3524527   3523641   3522892   3522261   3521736  
  4810.000000   3521298   3520946   3520668   3520477   3520363  
  4800.000000   3520345   3520418   3520605   3520906   3521344  
  4790.000000   3521917   3522633   3523477   3524440   3525501  
  4780.000000   3526651   3527877   3529181   3530556   3532001  
  4770.000000   3533502   3535045   3536603   3538161   3539697  
  4760.000000   3541206   3542681   3544128   3545547   3546943  
  4750.000000   3548321   3549683   3551035   3552382   3553728  
  4740.000000   3555072   3556413   3557746   3559064   3560366  
  4730.000000   3561651   3562924   3564182   3565428   3566653  
  4720.000000   3567857   3569030   3570189   3571346   3572543  
  4710.000000   3573810   3575198   3576731   3578442   3580333  
  4700.000000   3582420   3584700   3587184   3589871   3592775  
  4690.000000   3595888   3599211   3602715   3606382   3610167  
  4680.000000   3614039   3617944   3621848   3625698   3629470  
  4670.000000   3633129   3636679   3640124   3643508   3646869  
  4660.000000   3650273   3653770   3657418   3661256   3665318  
  4650.000000   3669624   3674180   3678984   3684012   3689234  
  4640.000000   3694599   3700057   3705549   3711030   3716449  
  4630.000000   3721773   3726957   3731968   3736753   3741276  
  4620.000000   3745482   3749341   3752813   3755898   3758579  
  4610.000000   3760887   3762833   3764479   3765856   3767045  
  4600.000000   3768084   3769053   3769965   3770868   3771737  
  4590.000000   3772577   3773329   3773974   3774448   3774730  
  4580.000000   3774770   3774563   3774082   3773343   3772346  
  4570.000000   3771125   3769698   3768109   3766374   3764530  
  4560.000000   3762584   3760564   3758473   3756344   3754185  
  4550.000000   3752030   3749886   3747773   3745680   3743603  
  4540.000000   3741520   3739417   3737278   3735098   3732875  
  4530.000000   3730610   3728308   3725968   3723602   3721210  
  4520.000000   3718821   3716442   3714118   3711855   3709703  
  4510.000000   3707662   3705788   3704090   3702649   3701493  
  4500.000000   3700731   3700388   3700564   3701254   3702530  
  4490.000000   3704354   3706790   3709804   3713475   3717781  
  4480.000000   3722809   3728528   3735004   3742179   3750094  
  4470.000000   3758668   3767922   3777760   3788182   3799078  
  4460.000000   3810434   3822145   3834203   3846531   3859140  
  4450.000000   3871982   3885072   3898365   3911858   3925501  
  4440.000000   3939273   3953137   3967068   3981050   3995055  
  4430.000000   4009076   4023069   4037019   4050858   4064565  
  4420.000000   4078055   4091296   4104186   4116676   4128643  
  4410.000000   4140025   4150699   4160629   4169739   4178065  
  4400.000000   4185615   4192500   4198788   4204621   4210076  
  4390.000000   4215284   4220303   4225242   4230141   4235080  
  4380.000000   4240067   4245138   4250258   4255425   4260593  
  4370.000000   4265760   4270911   4276068   4281237   4286441  
  4360.000000   4291667   4296914   4302139   4307334   4312442  
  4350.000000   4317480   4322386   4327205   4331882   4336491  
  4340.000000   4340999   4345478   4349849   4354044   4357774  
  4330.000000   4360684   4362236   4361920   4359271   4354092  
  4320.000000   4346470   4336859   4325957   4314620   4303646  
  4310.000000   4293692   4285122   4278072   4272437   4268019  
  4300.000000   4264572   4261895   4259849   4258332   4257309  
  4290.000000   4256712   4256536   4256719   4257283   4258194  
  4280.000000   4259485   4261128   4263110   4265371   4267844  
  4270.000000   4270467   4273165   4275883   4278512   4280910  
  4260.000000   4282842   4284029   4284158   4282982   4280354  
  4250.000000   4276319   4271074   4264987   4258464   4251943  
  4240.000000   4245742   4240100   4235082   4230682   4226784  
  4230.000000   4223271   4220001   4216866   4213785   4210699  
  4220.000000   4207599   4204476   4201390   4198377   4195547  
  4210.000000   4192963   4190740   4188927   4187597   4186749  
  4200.000000   4186389   4186452   4186887   4187587   4188481  
  4190.000000   4189467   4190512   4191561   4192641   4193741  
  4180.000000   4194919   4196172   4197546   4199024   4200647  
  4170.000000   4202410   4204379   4206577   4209087   4211932  
  4160.000000   4215169   4218782   4222788   4227137   4231837  
  4150.000000   4236841   4242176   4247809   4253782   4260064  
  4140.000000   4266701   4273657   4280983   4288644   4296693  
  4130.000000   4305097   4313905   4323083   4332687   4342697  
  4120.000000   4353183   4364150   4375675   4387762   4400466  
  4110.000000   4413758   4427647   4442060   4456961   4472248  
  4100.000000   4487862   4503703   4519721   4535852   4552077  
  4090.000000   4568378   4584751   4601190   4617664   4634147  
  4080.000000   4650575   4666916   4683102   4699125   4714919  
  4070.000000   4730479   4745710   4760574   4774944   4788777  
  4060.000000   4801959   4814495   4826315   4837477   4847946  
  4050.000000   4857810   4867054   4875794   4884028   4891877  
  4040.000000   4899318   4906431   4913138   4919470   4925316  
  4030.000000   4930693   4935502   4939767   4943410   4946455  
  4020.000000   4948826   4950576   4951712   4952326   4952420  
  4010.000000   4952121   4951498   4950559   4949130   4947236  
  4000.000000   4945102  
##END= 
