##TITLE= Sample 012 By ssteindl date Donnerstag, November 22 2018
##JCAMP-DX= 4.24
##DATA TYPE= INFRARED SPECTRUM
##ORIGIN= Exported PE Spectrum Data File
##OWNER= Sandra Steindl
##DATE= 18/11/22
##TIME= 10:21:21.00
##SPECTROMETER/DATA SYSTEM= PERKIN-ELMER Frontier FT-IR/NIR IR
##INSTRUMENT PARAMETERS=
  APODIZATION=stark
  DETECTOR=INGAAS
##RESOLUTION= 16.000000
##DELTAX= -2.000000
##XUNITS= 1/CM
##YUNITS= A
##XFACTOR= 1.00
##YFACTOR= 0.00000011920928955078
##FIRSTX= 10000.00
##LASTX= 4000.00
##NPOINTS= 3001
##FIRSTY= 0.231828
##MAXY= 0.645808
##MINY= 0.198120
##XYDATA= (X++(Y..Y))
 10000.000000   1944711   1948015   1951744   1955831   1958894  
  9990.000000   1959199   1956004   1949825   1941879   1933688  
  9980.000000   1926850   1922537   1920964   1921462   1922851  
  9970.000000   1924017   1924219   1923431   1922168   1921280  
  9960.000000   1921462   1923061   1925919   1929517   1933221  
  9950.000000   1936445   1938825   1940118   1940177   1938832  
  9940.000000   1935955   1931559   1925975   1919862   1914146  
  9930.000000   1909693   1907063   1906225   1906633   1907370  
  9920.000000   1907591   1906808   1905142   1903239   1901994  
  9910.000000   1902237   1904359   1908316   1913636   1919784  
  9900.000000   1926361   1933274   1940630   1948475   1956485  
  9890.000000   1963817   1969171   1971170   1968836   1962044  
  9880.000000   1951696   1939547   1927673   1917934   1911328  
  9870.000000   1907900   1906700   1906345   1905446   1903160  
  9860.000000   1899341   1894472   1889313   1884534   1880443  
  9850.000000   1876934   1873725   1870548   1867515   1865025  
  9840.000000   1863764   1864267   1866722   1870722   1875386  
  9830.000000   1879579   1882346   1883156   1882148   1879962  
  9820.000000   1877601   1876019   1875898   1877452   1880430  
  9810.000000   1884273   1888292   1891919   1894796   1896875  
  9800.000000   1898309   1899410   1900443   1901572   1902737  
  9790.000000   1903690   1904049   1903433   1901618   1898632  
  9780.000000   1894782   1890583   1886614   1883343   1880995  
  9770.000000   1879484   1878485   1877563   1876377   1874811  
  9760.000000   1873007   1871346   1870247   1870123   1871174  
  9750.000000   1873460   1876835   1881065   1885832   1890767  
  9740.000000   1895448   1899365   1901974   1902725   1901208  
  9730.000000   1897252   1891055   1883175   1874499   1866047  
  9720.000000   1858771   1853356   1850041   1848656   1848609  
  9710.000000   1849183   1849635   1849509   1848667   1847340  
  9700.000000   1845999   1845122   1845066   1845808   1847070  
  9690.000000   1848257   1848797   1848191   1846266   1843144  
  9680.000000   1839275   1835312   1831987   1829966   1829694  
  9670.000000   1831316   1834594   1838980   1843696   1847941  
  9660.000000   1851068   1852761   1853086   1852447   1851407  
  9650.000000   1850486   1849949   1849763   1849628   1849191  
  9640.000000   1848211   1846730   1845019   1843450   1842270  
  9630.000000   1841428   1840567   1839111   1836525   1832494  
  9620.000000   1827099   1820800   1814356   1808625   1804402  
  9610.000000   1802263   1802480   1805024   1809511   1815309  
  9600.000000   1821516   1827166   1831388   1833666   1834062  
  9590.000000   1833161   1831964   1831372   1831889   1833234  
  9580.000000   1834492   1834398   1831944   1826854   1819809  
  9570.000000   1812338   1806256   1803131   1803626   1807406  
  9560.000000   1813195   1819370   1824457   1827630   1828789  
  9550.000000   1828426   1827243   1825827   1824473   1823158  
  9540.000000   1821750   1820068   1818073   1815743   1813069  
  9530.000000   1809967   1806292   1802023   1797309   1792655  
  9520.000000   1788745   1786335   1785902   1787495   1790645  
  9510.000000   1794498   1798084   1800557   1801446   1800631  
  9500.000000   1798359   1794991   1790986   1786714   1782563  
  9490.000000   1778879   1776024   1774293   1773830   1774608  
  9480.000000   1776373   1778814   1781563   1784394   1787154  
  9470.000000   1789799   1792270   1794435   1796080   1796920  
  9460.000000   1796736   1795419   1793051   1789848   1786094  
  9450.000000   1782065   1777962   1773948   1770159   1766772  
  9440.000000   1763964   1761882   1760510   1759679   1759033  
  9430.000000   1758216   1756956   1755234   1753281   1751527  
  9420.000000   1750473   1750464   1751593   1753541   1755708  
  9410.000000   1757276   1757528   1755970   1752566   1747686  
  9400.000000   1742101   1736758   1732590   1730281   1730088  
  9390.000000   1731825   1734931   1738698   1742476   1745849  
  9380.000000   1748693   1751107   1753288   1755330   1757157  
  9370.000000   1758480   1758990   1758491   1757085   1755158  
  9360.000000   1753271   1752006   1751732   1752564   1754266  
  9350.000000   1756424   1758518   1760131   1760970   1760921  
  9340.000000   1759968   1758176   1755668   1752649   1749433  
  9330.000000   1746380   1743840   1741998   1740840   1740126  
  9320.000000   1739489   1738574   1737158   1735294   1733286  
  9310.000000   1731609   1730729   1730947   1732330   1734707  
  9300.000000   1737723   1740926   1743838   1746059   1747315  
  9290.000000   1747517   1746776   1745380   1743752   1742324  
  9280.000000   1741400   1740988   1740787   1740257   1738857  
  9270.000000   1736258   1732500   1728037   1723593   1719953  
  9260.000000   1717662   1716892   1717403   1718720   1720326  
  9250.000000   1721858   1723165   1724276   1725280   1726200  
  9240.000000   1726950   1727342   1727232   1726569   1725485  
  9230.000000   1724182   1722886   1721697   1720592   1719460  
  9220.000000   1718197   1716821   1715478   1714420   1713874  
  9210.000000   1713946   1714549   1715448   1716354   1717043  
  9200.000000   1717437   1717592   1717652   1717725   1717841  
  9190.000000   1717919   1717850   1717554   1717064   1716512  
  9180.000000   1716076   1715906   1716029   1716387   1716812  
  9170.000000   1717190   1717433   1717578   1717695   1717877  
  9160.000000   1718154   1718433   1718516   1718111   1716973  
  9150.000000   1714898   1711845   1707874   1703240   1698321  
  9140.000000   1693598   1689580   1686687   1685237   1685317  
  9130.000000   1686868   1689614   1693241   1697394   1701781  
  9120.000000   1706120   1710101   1713372   1715498   1716113  
  9110.000000   1714901   1711826   1707093   1701259   1695021  
  9100.000000   1689101   1684072   1680267   1677788   1676509  
  9090.000000   1676245   1676788   1678007   1679756   1681894  
  9080.000000   1684219   1686514   1688572   1690254   1691551  
  9070.000000   1692548   1693427   1694312   1695262   1696174  
  9060.000000   1696863   1697075   1696585   1695261   1693100  
  9050.000000   1690245   1686944   1683554   1680476   1678115  
  9040.000000   1676768   1676570   1677416   1678979   1680749  
  9030.000000   1682193   1682904   1682752   1681910   1680812  
  9020.000000   1679986   1679872   1680652   1682187   1684068  
  9010.000000   1685766   1686827   1686988   1686245   1684781  
  9000.000000   1682883   1680792   1678648   1676453   1674155  
  8990.000000   1671703   1669153   1666658   1664460   1662821  
  8980.000000   1661952   1661966   1662838   1664449   1666601  
  8970.000000   1669059   1671567   1673882   1675824   1677283  
  8960.000000   1678275   1678895   1679350   1679824   1680442  
  8950.000000   1681156   1681759   1681936   1681393   1680000  
  8940.000000   1677883   1675447   1673247   1671850   1671593  
  8930.000000   1672493   1674191   1676111   1677639   1678349  
  8920.000000   1678124   1677167   1675896   1674757   1674061  
  8910.000000   1673868   1674033   1674264   1674309   1674012  
  8900.000000   1673392   1672577   1671748   1671067   1670647  
  8890.000000   1670567   1670895   1671713   1673088   1675016  
  8880.000000   1677368   1679880   1682219   1684076   1685277  
  8870.000000   1685849   1686001   1686027   1686157   1686471  
  8860.000000   1686870   1687144   1687104   1686691   1686034  
  8850.000000   1685379   1684955   1684838   1684876   1684760  
  8840.000000   1684153   1682898   1681126   1679275   1677945  
  8830.000000   1677690   1678787   1681131   1684243   1687452  
  8820.000000   1690126   1691847   1692527   1692339   1691634  
  8810.000000   1690755   1689953   1689325   1688873   1688567  
  8800.000000   1688426   1688515   1688927   1689712   1690825  
  8790.000000   1692142   1693466   1694617   1695472   1696011  
  8780.000000   1696327   1696573   1696927   1697514   1698390  
  8770.000000   1699520   1700802   1702092   1703248   1704164  
  8760.000000   1704800   1705198   1705462   1705738   1706154  
  8750.000000   1706789   1707645   1708654   1709701   1710676  
  8740.000000   1711504   1712168   1712696   1713144   1713562  
  8730.000000   1713976   1714388   1714781   1715139   1715448  
  8720.000000   1715701   1715882   1715983   1715986   1715912  
  8710.000000   1715807   1715770   1715910   1716327   1717057  
  8700.000000   1718064   1719257   1720524   1721801   1723098  
  8690.000000   1724507   1726160   1728149   1730485   1733030  
  8680.000000   1735552   1737754   1739387   1740311   1740539  
  8670.000000   1740227   1739634   1739062   1738805   1739091  
  8660.000000   1740035   1741622   1743688   1745958   1748075  
  8650.000000   1749706   1750614   1750758   1750318   1749663  
  8640.000000   1749248   1749458   1750482   1752242   1754436  
  8630.000000   1756637   1758453   1759651   1760226   1760385  
  8620.000000   1760450   1760724   1761385   1762432   1763725  
  8610.000000   1765054   1766243   1767213   1768006   1768761  
  8600.000000   1769631   1770752   1772166   1773842   1775675  
  8590.000000   1777530   1779294   1780871   1782212   1783280  
  8580.000000   1784065   1784553   1784754   1784693   1784457  
  8570.000000   1784165   1783977   1784048   1784493   1785366  
  8560.000000   1786628   1788197   1789968   1791872   1793878  
  8550.000000   1796005   1798276   1800680   1803116   1805411  
  8540.000000   1807361   1808800   1809681   1810092   1810242  
  8530.000000   1810368   1810633   1811051   1811482   1811701  
  8520.000000   1811537   1810949   1810106   1809312   1808909  
  8510.000000   1809121   1809949   1811184   1812498   1813624  
  8500.000000   1814480   1815246   1816296   1818056   1820799  
  8490.000000   1824512   1828859   1833269   1837130   1839949  
  8480.000000   1841515   1841891   1841387   1840398   1839307  
  8470.000000   1838388   1837794   1837581   1837739   1838237  
  8460.000000   1839010   1839987   1841052   1842122   1843131  
  8450.000000   1844109   1845133   1846320   1847754   1849429  
  8440.000000   1851242   1852995   1854485   1855564   1856212  
  8430.000000   1856524   1856673   1856829   1857098   1857495  
  8420.000000   1857956   1858410   1858797   1859139   1859485  
  8410.000000   1859919   1860483   1861182   1861964   1862767  
  8400.000000   1863541   1864245   1864827   1865202   1865247  
  8390.000000   1864826   1863828   1862270   1860319   1858315  
  8380.000000   1856660   1855726   1855705   1856561   1858006  
  8370.000000   1859589   1860819   1861316   1860896   1859593  
  8360.000000   1857616   1855267   1852878   1850725   1849002  
  8350.000000   1847806   1847148   1846958   1847081   1847319  
  8340.000000   1847457   1847350   1846942   1846312   1845643  
  8330.000000   1845144   1844981   1845159   1845534   1845816  
  8320.000000   1845712   1845002   1843651   1841828   1839858  
  8310.000000   1838131   1836955   1836498   1836737   1837520  
  8300.000000   1838612   1839773   1840801   1841540   1841880  
  8290.000000   1841741   1841074   1839876   1838218   1836268  
  8280.000000   1834272   1832512   1831229   1830562   1830506  
  8270.000000   1830924   1831576   1832190   1832511   1832357  
  8260.000000   1831641   1830365   1828615   1826532   1824315  
  8250.000000   1822185   1820374   1819069   1818378   1818300  
  8240.000000   1818709   1819403   1820130   1820679   1820908  
  8230.000000   1820796   1820417   1819906   1819391   1818941  
  8220.000000   1818545   1818118   1817537   1816688   1815502  
  8210.000000   1813992   1812238   1810379   1808547   1806848  
  8200.000000   1805310   1803909   1802561   1801180   1799696  
  8190.000000   1798107   1796459   1794860   1793411   1792187  
  8180.000000   1791183   1790327   1789487   1788511   1787281  
  8170.000000   1785722   1783839   1781678   1779325   1776860  
  8160.000000   1774367   1771921   1769609   1767526   1765774  
  8150.000000   1764438   1763552   1763078   1762901   1762864  
  8140.000000   1762805   1762615   1762267   1761803   1761313  
  8130.000000   1760869   1760500   1760152   1759726   1759100  
  8120.000000   1758196   1757009   1755616   1754156   1752770  
  8110.000000   1751562   1750558   1749707   1748898   1748009  
  8100.000000   1746937   1745638   1744129   1742487   1740827  
  8090.000000   1739275   1737940   1736892   1736146   1735653  
  8080.000000   1735319   1735012   1734609   1734017   1733205  
  8070.000000   1732210   1731121   1730055   1729120   1728380  
  8060.000000   1727855   1727506   1727272   1727077   1726859  
  8050.000000   1726571   1726184   1725683   1725054   1724309  
  8040.000000   1723471   1722606   1721802   1721169   1720797  
  8030.000000   1720730   1720930   1721273   1721565   1721585  
  8020.000000   1721147   1720137   1718570   1716563   1714332  
  8010.000000   1712116   1710136   1708536   1707366   1706599  
  8000.000000   1706151   1705946   1705925   1706079   1706417  
  7990.000000   1706947   1707630   1708371   1709019   1709402  
  7980.000000   1709380   1708882   1707950   1706711   1705363  
  7970.000000   1704095   1703047   1702264   1701692   1701212  
  7960.000000   1700680   1699998   1699138   1698166   1697210  
  7950.000000   1696429   1695948   1695815   1695989   1696333  
  7940.000000   1696675   1696832   1696692   1696216   1695466  
  7930.000000   1694568   1693682   1692953   1692489   1692341  
  7920.000000   1692519   1693004   1693767   1694767   1695946  
  7910.000000   1697218   1698459   1699532   1700312   1700729  
  7900.000000   1700806   1700648   1700427   1700307   1700400  
  7890.000000   1700711   1701148   1701554   1701775   1701723  
  7880.000000   1701406   1700933   1700460   1700148   1700089  
  7870.000000   1700309   1700751   1701334   1701976   1702629  
  7860.000000   1703272   1703904   1704504   1705032   1705417  
  7850.000000   1705586   1705489   1705114   1704502   1703718  
  7840.000000   1702849   1701966   1701125   1700366   1699719  
  7830.000000   1699221   1698902   1698792   1698888   1699172  
  7820.000000   1699582   1700050   1700498   1700871   1701140  
  7810.000000   1701299   1701366   1701349   1701257   1701071  
  7800.000000   1700762   1700290   1699621   1698745   1697685  
  7790.000000   1696520   1695352   1694326   1693557   1693139  
  7780.000000   1693085   1693340   1693779   1694238   1694555  
  7770.000000   1694592   1694271   1693558   1692477   1691084  
  7760.000000   1689476   1687774   1686136   1684730   1683710  
  7750.000000   1683178   1683137   1683490   1684038   1684556  
  7740.000000   1684844   1684804   1684458   1683923   1683360  
  7730.000000   1682889   1682548   1682267   1681928   1681404  
  7720.000000   1680648   1679705   1678701   1677790   1677085  
  7710.000000   1676623   1676356   1676191   1676040   1675868  
  7700.000000   1675703   1675614   1675666   1675878   1676205  
  7690.000000   1676553   1676819   1676937   1676908   1676781  
  7680.000000   1676639   1676536   1676478   1676406   1676235  
  7670.000000   1675877   1675296   1674520   1673634   1672764  
  7660.000000   1672028   1671520   1671279   1671304   1671550  
  7650.000000   1671962   1672474   1673028   1673577   1674076  
  7640.000000   1674489   1674781   1674922   1674886   1674666  
  7630.000000   1674272   1673750   1673170   1672630   1672222  
  7620.000000   1672013   1672024   1672215   1672506   1672794  
  7610.000000   1672996   1673078   1673058   1672998   1672960  
  7600.000000   1672987   1673069   1673166   1673217   1673190  
  7590.000000   1673090   1672976   1672940   1673068   1673416  
  7580.000000   1673984   1674725   1675562   1676413   1677212  
  7570.000000   1677906   1678466   1678867   1679102   1679179  
  7560.000000   1679144   1679075   1679070   1679230   1679619  
  7550.000000   1680240   1681034   1681891   1682692   1683340  
  7540.000000   1683791   1684040   1684123   1684073   1683925  
  7530.000000   1683707   1683459   1683247   1683170   1683343  
  7520.000000   1683866   1684783   1686059   1687575   1689160  
  7510.000000   1690627   1691842   1692728   1693295   1693603  
  7500.000000   1693764   1693891   1694108   1694517   1695210  
  7490.000000   1696244   1697642   1699357   1701280   1703243  
  7480.000000   1705066   1706594   1707760   1708596   1709236  
  7470.000000   1709870   1710700   1711865   1713417   1715302  
  7460.000000   1717398   1719549   1721615   1723500   1725176  
  7450.000000   1726662   1728009   1729272   1730492   1731692  
  7440.000000   1732883   1734065   1735258   1736487   1737796  
  7430.000000   1739224   1740801   1742520   1744338   1746176  
  7420.000000   1747943   1749561   1750997   1752282   1753510  
  7410.000000   1754816   1756336   1758163   1760312   1762708  
  7400.000000   1765209   1767635   1769839   1771727   1773300  
  7390.000000   1774634   1775861   1777117   1778507   1780080  
  7380.000000   1781830   1783713   1785668   1787648   1789630  
  7370.000000   1791620   1793633   1795688   1797779   1799892  
  7360.000000   1801993   1804050   1806036   1807938   1809754  
  7350.000000   1811483   1813120   1814650   1816050   1817301  
  7340.000000   1818394   1819338   1820169   1820937   1821706  
  7330.000000   1822536   1823478   1824570   1825827   1827249  
  7320.000000   1828819   1830508   1832278   1834088   1835899  
  7310.000000   1837679   1839417   1841124   1842832   1844577  
  7300.000000   1846390   1848274   1850197   1852098   1853899  
  7290.000000   1855536   1856973   1858223   1859337   1860391  
  7280.000000   1861453   1862564   1863722   1864887   1865999  
  7270.000000   1867001   1867862   1868595   1869254   1869919  
  7260.000000   1870675   1871589   1872702   1874012   1875495  
  7250.000000   1877099   1878778   1880484   1882194   1883890  
  7240.000000   1885587   1887297   1889058   1890893   1892844  
  7230.000000   1894925   1897154   1899518   1902003   1904567  
  7220.000000   1907177   1909791   1912395   1914987   1917601  
  7210.000000   1920282   1923092   1926074   1929256   1932615  
  7200.000000   1936103   1939635   1943135   1946531   1949795  
  7190.000000   1952928   1955976   1958987   1962024   1965116  
  7180.000000   1968277   1971492   1974738   1977994   1981262  
  7170.000000   1984557   1987922   1991386   1994981   1998696  
  7160.000000   2002505   2006342   2010155   2013890   2017548  
  7150.000000   2021148   2024773   2028509   2032465   2036706  
  7140.000000   2041272   2046135   2051245   2056522   2061909  
  7130.000000   2067357   2072864   2078427   2084065   2089756  
  7120.000000   2095479   2101171   2106790   2112294   2117690  
  7110.000000   2123007   2128315   2133677   2139156   2144780  
  7100.000000   2150559   2156471   2162494   2168593   2174743  
  7090.000000   2180911   2187071   2193187   2199236   2205201  
  7080.000000   2211100   2216968   2222871   2228878   2235045  
  7070.000000   2241395   2247907   2254518   2261138   2267672  
  7060.000000   2274041   2280199   2286147   2291917   2297574  
  7050.000000   2303185   2308802   2314447   2320101   2325721  
  7040.000000   2331255   2336672   2341978   2347232   2352523  
  7030.000000   2357956   2363600   2369482   2375553   2381724  
  7020.000000   2387871   2393887   2399697   2405279   2410643  
  7010.000000   2415823   2420846   2425728   2430467   2435060  
  7000.000000   2439507   2443835   2448074   2452277   2456480  
  6990.000000   2460729   2465038   2469431   2473894   2478416  
  6980.000000   2482939   2487399   2491696   2495747   2499480  
  6970.000000   2502887   2506005   2508931   2511765   2514611  
  6960.000000   2517511   2520473   2523444   2526371   2529187  
  6950.000000   2531872   2534414   2536839   2539160   2541407  
  6940.000000   2543587   2545724   2547832   2549941   2552062  
  6930.000000   2554199   2556321   2558390   2560354   2562195  
  6920.000000   2563916   2565572   2567226   2568946   2570751  
  6910.000000   2572622   2574486   2576257   2577853   2579226  
  6900.000000   2580372   2581328   2582153   2582914   2583670  
  6890.000000   2584465   2585329   2586279   2587315   2588432  
  6880.000000   2589607   2590825   2592067   2593335   2594645  
  6870.000000   2596022   2597477   2598996   2600523   2601973  
  6860.000000   2603250   2604280   2605038   2605560   2605935  
  6850.000000   2606282   2606706   2607280   2608022   2608911  
  6840.000000   2609889   2610899   2611883   2612808   2613649  
  6830.000000   2614404   2615072   2615667   2616203   2616703  
  6820.000000   2617184   2617657   2618115   2618549   2618939  
  6810.000000   2619283   2619583   2619859   2620132   2620420  
  6800.000000   2620716   2621002   2621247   2621423   2621516  
  6790.000000   2621530   2621479   2621382   2621246   2621076  
  6780.000000   2620870   2620642   2620419   2620248   2620174  
  6770.000000   2620226   2620398   2620645   2620903   2621104  
  6760.000000   2621208   2621210   2621147   2621072   2621042  
  6750.000000   2621082   2621195   2621358   2621544   2621735  
  6740.000000   2621938   2622171   2622467   2622847   2623315  
  6730.000000   2623854   2624431   2625009   2625556   2626058  
  6720.000000   2626522   2626973   2627443   2627963   2628547  
  6710.000000   2629186   2629838   2630446   2630944   2631282  
  6700.000000   2631440   2631439   2631329   2631179   2631045  
  6690.000000   2630958   2630906   2630858   2630763   2630590  
  6680.000000   2630322   2629978   2629579   2629159   2628729  
  6670.000000   2628293   2627840   2627367   2626870   2626359  
  6660.000000   2625836   2625296   2624718   2624077   2623347  
  6650.000000   2622529   2621642   2620732   2619845   2619019  
  6640.000000   2618264   2617570   2616908   2616246   2615556  
  6630.000000   2614818   2614009   2613110   2612096   2610958  
  6620.000000   2609706   2608392   2607091   2605892   2604855  
  6610.000000   2603993   2603251   2602531   2601714   2600713  
  6600.000000   2599490   2598079   2596547   2594981   2593439  
  6590.000000   2591950   2590503   2589081   2587670   2586271  
  6580.000000   2584893   2583538   2582182   2580778   2579269  
  6570.000000   2577618   2575825   2573944   2572066   2570292  
  6560.000000   2568701   2567329   2566164   2565162   2564263  
  6550.000000   2563415   2562575   2561708   2560776   2559739  
  6540.000000   2558560   2557215   2555717   2554112   2552470  
  6530.000000   2550862   2549341   2547924   2546594   2545323  
  6520.000000   2544081   2542865   2541685   2540562   2539503  
  6510.000000   2538490   2537482   2536423   2535266   2533988  
  6500.000000   2532599   2531132   2529633   2528142   2526685  
  6490.000000   2525277   2523927   2522643   2521430   2520286  
  6480.000000   2519190   2518103   2516969   2515735   2514370  
  6470.000000   2512878   2511302   2509711   2508182   2506777  
  6460.000000   2505524   2504421   2503435   2502518   2501622  
  6450.000000   2500705   2499739   2498703   2497596   2496423  
  6440.000000   2495207   2493976   2492769   2491616   2490548  
  6430.000000   2489573   2488697   2487909   2487202   2486563  
  6420.000000   2485989   2485470   2485006   2484591   2484229  
  6410.000000   2483921   2483682   2483517   2483436   2483427  
  6400.000000   2483473   2483543   2483609   2483648   2483655  
  6390.000000   2483634   2483598   2483555   2483507   2483446  
  6380.000000   2483363   2483258   2483138   2483024   2482936  
  6370.000000   2482886   2482870   2482869   2482852   2482796  
  6360.000000   2482684   2482522   2482321   2482099   2481862  
  6350.000000   2481613   2481341   2481038   2480693   2480301  
  6340.000000   2479851   2479329   2478713   2477994   2477168  
  6330.000000   2476268   2475343   2474464   2473689   2473053  
  6320.000000   2472541   2472104   2471662   2471144   2470503  
  6310.000000   2469734   2468864   2467939   2466999   2466065  
  6300.000000   2465131   2464180   2463189   2462154   2461078  
  6290.000000   2459982   2458886   2457810   2456758   2455738  
  6280.000000   2454745   2453776   2452818   2451848   2450831  
  6270.000000   2449726   2448495   2447124   2445623   2444039  
  6260.000000   2442431   2440867   2439389   2438015   2436728  
  6250.000000   2435494   2434274   2433042   2431786   2430510  
  6240.000000   2429225   2427943   2426668   2425400   2424137  
  6230.000000   2422873   2421604   2420325   2419030   2417716  
  6220.000000   2416384   2415043   2413714   2412420   2411184  
  6210.000000   2410016   2408910   2407847   2406802   2405750  
  6200.000000   2404682   2403600   2402513   2401431   2400359  
  6190.000000   2399293   2398233   2397180   2396149   2395160  
  6180.000000   2394234   2393379   2392588   2391837   2391100  
  6170.000000   2390360   2389618   2388894   2388218   2387610  
  6160.000000   2387071   2386579   2386093   2385568   2384976  
  6150.000000   2384309   2383584   2382829   2382071   2381323  
  6140.000000   2380584   2379839   2379074   2378277   2377448  
  6130.000000   2376592   2375724   2374854   2373997   2373167  
  6120.000000   2372384   2371670   2371045   2370518   2370089  
  6110.000000   2369741   2369453   2369200   2368970   2368758  
  6100.000000   2368570   2368408   2368277   2368170   2368084  
  6090.000000   2368014   2367973   2367973   2368041   2368185  
  6080.000000   2368408   2368686   2368989   2369279   2369539  
  6070.000000   2369757   2369957   2370162   2370416   2370743  
  6060.000000   2371177   2371725   2372402   2373204   2374138  
  6050.000000   2375189   2376361   2377639   2379029   2380530  
  6040.000000   2382159   2383920   2385826   2387863   2390018  
  6030.000000   2392256   2394560   2396909   2399314   2401778  
  6020.000000   2404320   2406930   2409594   2412261   2414897  
  6010.000000   2417459   2419952   2422392   2424834   2427323  
  6000.000000   2429906   2432591   2435376   2438233   2441150  
  5990.000000   2444112   2447138   2450242   2453456   2456788  
  5980.000000   2460250   2463828   2467523   2471316   2475209  
  5970.000000   2479184   2483235   2487328   2491447   2495562  
  5960.000000   2499676   2503790   2507936   2512128   2516391  
  5950.000000   2520713   2525087   2529490   2533925   2538408  
  5940.000000   2542983   2547702   2552602   2557697   2562952  
  5930.000000   2568300   2573645   2578897   2583972   2588825  
  5920.000000   2593430   2597792   2601920   2605835   2609551  
  5910.000000   2613086   2616452   2619672   2622759   2625747  
  5900.000000   2628660   2631546   2634441   2637399   2640445  
  5890.000000   2643605   2646858   2650174   2653484   2656730  
  5880.000000   2659845   2662791   2665543   2668100   2670465  
  5870.000000   2672647   2674654   2676499   2678202   2679800  
  5860.000000   2681336   2682865   2684431   2686073   2687813  
  5850.000000   2689667   2691643   2693751   2695994   2698367  
  5840.000000   2700852   2703409   2705994   2708553   2711054  
  5830.000000   2713480   2715848   2718182   2720522   2722889  
  5820.000000   2725301   2727748   2730223   2732710   2735206  
  5810.000000   2737715   2740243   2742806   2745403   2748052  
  5800.000000   2750742   2753492   2756282   2759121   2761963  
  5790.000000   2764780   2767486   2770010   2772235   2774073  
  5780.000000   2775405   2776163   2776266   2775703   2774476  
  5770.000000   2772669   2770385   2767789   2765026   2762256  
  5760.000000   2759567   2757030   2754641   2752398   2750262  
  5750.000000   2748231   2746289   2744449   2742711   2741083  
  5740.000000   2739553   2738111   2736742   2735427   2734151  
  5730.000000   2732886   2731608   2730281   2728882   2727399  
  5720.000000   2725849   2724263   2722691   2721175   2719744  
  5710.000000   2718400   2717132   2715915   2714735   2713590  
  5700.000000   2712486   2711440   2710456   2709534   2708657  
  5690.000000   2707813   2706985   2706176   2705380   2704603  
  5680.000000   2703825   2703020   2702136   2701126   2699937  
  5670.000000   2698537   2696898   2695012   2692872   2690490  
  5660.000000   2687881   2685092   2682180   2679228   2676310  
  5650.000000   2673496   2670814   2668269   2665833   2663475  
  5640.000000   2661167   2658902   2656691   2654547   2652486  
  5630.000000   2650508   2648607   2646767   2644984   2643256  
  5620.000000   2641597   2640012   2638511   2637079   2635707  
  5610.000000   2634375   2633082   2631829   2630636   2629516  
  5600.000000   2628480   2627517   2626616   2625750   2624910  
  5590.000000   2624086   2623285   2622512   2621771   2621058  
  5580.000000   2620364   2619682   2619012   2618360   2617733  
  5570.000000   2617132   2616541   2615929   2615257   2614492  
  5560.000000   2613618   2612645   2611599   2610518   2609434  
  5550.000000   2608364   2607309   2606263   2605217   2604173  
  5540.000000   2603134   2602109   2601101   2600107   2599117  
  5530.000000   2598127   2597136   2596158   2595208   2594301  
  5520.000000   2593439   2592612   2591798   2590973   2590118  
  5510.000000   2589227   2588298   2587335   2586334   2585291  
  5500.000000   2584199   2583062   2581890   2580710   2579543  
  5490.000000   2578403   2577274   2576131   2574932   2573652  
  5480.000000   2572278   2570832   2569344   2567851   2566365  
  5470.000000   2564885   2563384   2561839   2560231   2558568  
  5460.000000   2556867   2555151   2553431   2551699   2549935  
  5450.000000   2548120   2546246   2544329   2542402   2540504  
  5440.000000   2538669   2536910   2535232   2533627   2532099  
  5430.000000   2530647   2529278   2527980   2526732   2525489  
  5420.000000   2524221   2522906   2521571   2520267   2519080  
  5410.000000   2518072   2517283   2516688   2516245   2515879  
  5400.000000   2515555   2515246   2514982   2514791   2514724  
  5390.000000   2514791   2515011   2515366   2515871   2516526  
  5380.000000   2517377   2518434   2519725   2521218   2522893  
  5370.000000   2524683   2526575   2528531   2530588   2532742  
  5360.000000   2535049   2537501   2540145   2542968   2546043  
  5350.000000   2549390   2553117   2557252   2561881   2566970  
  5340.000000   2572540   2578502   2584867   2591567   2598652  
  5330.000000   2606085   2613938   2622168   2630844   2639921  
  5320.000000   2649493   2659552   2670234   2681543   2693615  
  5310.000000   2706412   2720015   2734340   2749441   2765241  
  5300.000000   2781826   2799164   2817377   2836457   2856518  
  5290.000000   2877512   2899480   2922280   2945853   2970001  
  5280.000000   2994655   3019692   3045164   3071092   3097625  
  5270.000000   3124813   3152710   3181207   3210144   3239286  
  5260.000000   3268433   3297467   3326364   3355193   3384007  
  5250.000000   3412845   3441603   3470140   3498197   3525617  
  5240.000000   3552224   3578056   3603117   3627583   3651495  
  5230.000000   3674975   3697939   3720376   3742096   3763055  
  5220.000000   3783110   3802328   3820692   3838380   3855425  
  5210.000000   3871983   3887998   3903495   3918291   3932340  
  5200.000000   3945472   3957738   3969101   3979732   3989657  
  5190.000000   3999030   4007807   4016041   4023616   4030563  
  5180.000000   4036795   4042401   4047353   4051760   4055583  
  5170.000000   4058886   4061600   4063776   4065366   4066453  
  5160.000000   4067020   4067155   4066824   4066082   4064876  
  5150.000000   4063258   4061203   4058790   4056020   4052963  
  5140.000000   4049595   4045947   4041975   4037709   4033135  
  5130.000000   4028316   4023276   4018082   4012750   4007317  
  5120.000000   4001777   3996157   3990459   3984723   3978964  
  5110.000000   3973210   3967461   3961720   3955974   3950230  
  5100.000000   3944501   3938820   3933224   3927744   3922394  
  5090.000000   3917174   3912064   3907045   3902098   3897214  
  5080.000000   3892387   3887614   3882881   3878169   3873448  
  5070.000000   3868696   3863886   3859008   3854050   3849011  
  5060.000000   3843878   3838648   3833298   3827828   3822222  
  5050.000000   3816488   3810619   3804627   3798502   3792255  
  5040.000000   3785880   3779396   3772812   3766159   3759455  
  5030.000000   3752728   3745990   3739257   3732536   3725842  
  5020.000000   3719192   3712605   3706099   3699683   3693363  
  5010.000000   3687126   3680969   3674877   3668863   3662927  
  5000.000000   3657108   3651420   3645907   3640579   3635471  
  4990.000000   3630577   3625922   3621487   3617294   3613313  
  4980.000000   3609565   3606019   3602702   3599594   3596739  
  4970.000000   3594127   3591812   3589779   3588077   3586679  
  4960.000000   3585626   3584890   3584517   3584482   3584837  
  4950.000000   3585548   3586652   3588098   3589912   3592042  
  4940.000000   3594531   3597347   3600558   3604144   3608168  
  4930.000000   3612596   3617465   3622725   3628411   3634485  
  4920.000000   3641000   3647940   3655358   3663226   3671565  
  4910.000000   3680312   3689447   3698892   3708616   3718552  
  4900.000000   3728680   3738963   3749388   3759936   3770585  
  4890.000000   3781315   3792074   3802819   3813458   3823928  
  4880.000000   3834110   3843946   3853325   3862215   3870523  
  4870.000000   3878242   3885285   3891658   3897286   3902198  
  4860.000000   3906347   3909791   3912511   3914586   3916009  
  4850.000000   3916866   3917165   3917008   3916429   3915551  
  4840.000000   3914425   3913165   3911809   3910431   3909041  
  4830.000000   3907677   3906339   3905050   3903815   3902652  
  4820.000000   3901575   3900596   3899734   3899001   3898424  
  4810.000000   3898012   3897786   3897736   3897861   3898127  
  4800.000000   3898519   3899004   3899587   3900259   3901051  
  4790.000000   3901970   3903045   3904268   3905642   3907144  
  4780.000000   3908766   3910489   3912312   3914222   3916217  
  4770.000000   3918276   3920383   3922508   3924633   3926740  
  4760.000000   3928828   3930898   3932959   3935009   3937045  
  4750.000000   3939054   3941018   3942923   3944756   3946516  
  4740.000000   3948207   3949842   3951441   3953023   3954611  
  4730.000000   3956222   3957872   3959559   3961283   3963021  
  4720.000000   3964762   3966484   3968191   3969885   3971601  
  4710.000000   3973368   3975238   3977240   3979421   3981793  
  4700.000000   3984383   3987189   3990225   3993477   3996950  
  4690.000000   4000624   4004496   4008541   4012751   4017093  
  4680.000000   4021549   4026071   4030626   4035151   4039611  
  4670.000000   4043955   4048177   4052268   4056263   4060191  
  4660.000000   4064114   4068076   4072139   4076351   4080765  
  4650.000000   4085422   4090353   4095574   4101071   4106813  
  4640.000000   4112739   4118783   4124862   4130916   4136879  
  4630.000000   4142712   4148370   4153832   4159058   4164032  
  4620.000000   4168715   4173097   4177139   4180840   4184167  
  4610.000000   4187134   4189719   4191962   4193865   4195494  
  4600.000000   4196868   4198061   4199082   4199986   4200758  
  4590.000000   4201429   4201965   4202378   4202624   4202698  
  4580.000000   4202547   4202157   4201482   4200527   4199279  
  4570.000000   4197783   4196066   4194195   4192199   4190124  
  4560.000000   4187973   4185759   4183466   4181101   4178656  
  4550.000000   4176154   4173598   4171013   4168400   4165769  
  4540.000000   4163116   4160445   4157759   4155067   4152382  
  4530.000000   4149709   4147057   4144417   4141793   4139170  
  4520.000000   4136565   4133974   4131438   4128961   4126601  
  4510.000000   4124362   4122308   4120443   4118850   4117544  
  4500.000000   4116625   4116114   4116115   4116634   4117765  
  4490.000000   4119493   4121903   4124969   4128770   4133270  
  4480.000000   4138538   4144522   4151274   4158724   4166914  
  4470.000000   4175762   4185296   4195420   4206145   4217367  
  4460.000000   4229087   4241213   4253757   4266657   4279939  
  4450.000000   4293557   4307532   4321814   4336399   4351233  
  4440.000000   4366295   4381537   4396928   4412428   4427989  
  4430.000000   4443573   4459112   4474572   4489876   4504996  
  4420.000000   4519851   4534417   4548602   4562375   4575625  
  4410.000000   4588313   4600324   4611625   4622125   4631831  
  4400.000000   4640707   4648827   4656224   4663034   4669342  
  4390.000000   4675316   4681050   4686697   4692314   4697995  
  4380.000000   4703737   4709568   4715444   4721365   4727294  
  4370.000000   4733248   4739220   4745241   4751314   4757453  
  4360.000000   4763633   4769852   4776058   4782251   4788359  
  4350.000000   4794389   4800238   4805918   4811321   4816495  
  4340.000000   4821381   4826063   4830472   4834570   4838078  
  4330.000000   4840644   4841710   4840745   4837259   4831056  
  4320.000000   4822241   4811322   4799056   4786374   4774131  
  4310.000000   4763023   4753435   4745502   4739112   4734049  
  4300.000000   4730060   4726934   4724538   4722773   4721611  
  4290.000000   4720987   4720898   4721272   4722121   4723393  
  4280.000000   4725102   4727200   4729655   4732391   4735322  
  4270.000000   4738369   4741436   4744445   4747259   4749715  
  4260.000000   4751559   4752509   4752256   4750572   4747333  
  4250.000000   4742610   4736618   4729742   4722394   4715026  
  4240.000000   4707963   4701468   4695624   4690453   4685854  
  4230.000000   4681719   4677899   4674268   4670717   4667159  
  4220.000000   4663568   4659924   4656294   4652730   4649361  
  4210.000000   4646266   4643570   4641313   4639555   4638276  
  4200.000000   4637468   4637064   4637029   4637283   4637792  
  4190.000000   4638483   4639336   4640287   4641331   4642416  
  4180.000000   4643552   4644698   4645880   4647075   4648329  
  4170.000000   4649641   4651078   4652656   4654459   4656512  
  4160.000000   4658903   4661658   4664859   4668519   4672700  
  4150.000000   4677383   4682599   4688292   4694469   4701056  
  4140.000000   4708062   4715425   4723179   4731274   4739758  
  4130.000000   4748581   4757785   4767318   4777230   4787491  
  4120.000000   4798182   4809309   4820975   4833210   4846106  
  4110.000000   4859674   4873964   4888936   4904573   4920771  
  4100.000000   4937448   4954462   4971712   4989079   5006501  
  4090.000000   5023928   5041342   5058736   5076095   5093416  
  4080.000000   5110660   5127822   5144848   5161741   5178426  
  4070.000000   5194881   5210980   5226665   5241780   5256284  
  4060.000000   5270059   5283135   5295453   5307091   5318011  
  4050.000000   5328304   5337935   5347013   5355516   5363555  
  4040.000000   5371088   5378184   5384741   5390780   5396181  
  4030.000000   5400977   5405093   5408601   5411470   5413773  
  4020.000000   5415464   5416619   5417245   5417431   5417158  
  4010.000000   5416546   5415654   5414471   5412782   5410589  
  4000.000000   5408131  
##END= 
