##TITLE= Sample 003 By ssteindl date Donnerstag, November 22 2018
##JCAMP-DX= 4.24
##DATA TYPE= INFRARED SPECTRUM
##ORIGIN= Exported PE Spectrum Data File
##OWNER= Sandra Steindl
##DATE= 18/11/22
##TIME= 10:11:25.00
##SPECTROMETER/DATA SYSTEM= PERKIN-ELMER Frontier FT-IR/NIR IR
##INSTRUMENT PARAMETERS=
  APODIZATION=stark
  DETECTOR=INGAAS
##RESOLUTION= 16.000000
##DELTAX= -2.000000
##XUNITS= 1/CM
##YUNITS= A
##XFACTOR= 1.00
##YFACTOR= 0.00000011920928955078
##FIRSTX= 10000.00
##LASTX= 4000.00
##NPOINTS= 3001
##FIRSTY= 0.292614
##MAXY= 0.636803
##MINY= 0.223852
##XYDATA= (X++(Y..Y))
 10000.000000   2454627   2454373   2455195   2458234   2462907  
  9990.000000   2467484   2470606   2471780   2471078   2468926  
  9980.000000   2466153   2463480   2461151   2458867   2456233  
  9970.000000   2453055   2449541   2446351   2444270   2444001  
  9960.000000   2445707   2449205   2453858   2459116   2464503  
  9950.000000   2469862   2475123   2480101   2484371   2487092  
  9940.000000   2487367   2484285   2477485   2467088   2453900  
  9930.000000   2439084   2423975   2409903   2397991   2389338  
  9920.000000   2384764   2384979   2390122   2399790   2412746  
  9910.000000   2427161   2440843   2451698   2458206   2459635  
  9900.000000   2456261   2449051   2439531   2429230   2419529  
  9890.000000   2411327   2405081   2400787   2398101   2396469  
  9880.000000   2395201   2393661   2391310   2387903   2383488  
  9870.000000   2378458   2373439   2369163   2366320   2365406  
  9860.000000   2366677   2370106   2375415   2382102   2389480  
  9850.000000   2396754   2403086   2407732   2410134   2410025  
  9840.000000   2407490   2402921   2397005   2390533   2384317  
  9830.000000   2378958   2374753   2371621   2369129   2366682  
  9820.000000   2363669   2359774   2355033   2349979   2345392  
  9810.000000   2342170   2340925   2341834   2344534   2348252  
  9800.000000   2352106   2355298   2357392   2358206   2357834  
  9790.000000   2356340   2353810   2350187   2345552   2340106  
  9780.000000   2334413   2329221   2325390   2323555   2323975  
  9770.000000   2326452   2330450   2335361   2340678   2346179  
  9760.000000   2351792   2357557   2363406   2369197   2374708  
  9750.000000   2379799   2384446   2388748   2392762   2396352  
  9740.000000   2399072   2400227   2399079   2395174   2388543  
  9730.000000   2379839   2370094   2360478   2351863   2344686  
  9720.000000   2338905   2334260   2330496   2327559   2325531  
  9710.000000   2324490   2324264   2324402   2324306   2323508  
  9700.000000   2322023   2320368   2319512   2320337   2323312  
  9690.000000   2328072   2333567   2338361   2341249   2341704  
  9680.000000   2340094   2337492   2335207   2334271   2335049  
  9670.000000   2337238   2340053   2342650   2344407   2345102  
  9660.000000   2344817   2343795   2342219   2340172   2337662  
  9650.000000   2334753   2331649   2328663   2326105   2324118  
  9640.000000   2322576   2321182   2319551   2317550   2315304  
  9630.000000   2313315   2312163   2312318   2313873   2316451  
  9620.000000   2319355   2321685   2322701   2321848   2318966  
  9610.000000   2314125   2307704   2300234   2292440   2285173  
  9600.000000   2279327   2275752   2274990   2277217   2282051  
  9590.000000   2288728   2296204   2303463   2309703   2314407  
  9580.000000   2317384   2318569   2318033   2315826   2312109  
  9570.000000   2307157   2301467   2295735   2290743   2287220  
  9560.000000   2285623   2286065   2288246   2291537   2295066  
  9550.000000   2297892   2299151   2298252   2295023   2289823  
  9540.000000   2283536   2277442   2272938   2271191   2272800  
  9530.000000   2277580   2284571   2292256   2298977   2303356  
  9520.000000   2304642   2302820   2298524   2292771   2286671  
  9510.000000   2281162   2276903   2274241   2273245   2273785  
  9500.000000   2275508   2277943   2280460   2282469   2283445  
  9490.000000   2283141   2281586   2279079   2276058   2272909  
  9480.000000   2269866   2266932   2263979   2260862   2257557  
  9470.000000   2254246   2251240   2248888   2247365   2246600  
  9460.000000   2246260   2245864   2244963   2243264   2240748  
  9450.000000   2237617   2234245   2231030   2228290   2226203  
  9440.000000   2224814   2224074   2223938   2224319   2225153  
  9430.000000   2226248   2227367   2228159   2228289   2227480  
  9420.000000   2225606   2222787   2219402   2216136   2213812  
  9410.000000   2213264   2215038   2219250   2225412   2232532  
  9400.000000   2239244   2244129   2246039   2244395   2239368  
  9390.000000   2231810   2223046   2214482   2207275   2202059  
  9380.000000   2198898   2197351   2196697   2196195   2195307  
  9370.000000   2193848   2191926   2189880   2188044   2186689  
  9360.000000   2185938   2185806   2186294   2187399   2189190  
  9350.000000   2191676   2194766   2198138   2201276   2203534  
  9340.000000   2204364   2203457   2200934   2197281   2193261  
  9330.000000   2189626   2186896   2185234   2184443   2184177  
  9320.000000   2184077   2184022   2184092   2184577   2185709  
  9310.000000   2187546   2189817   2192020   2193576   2194035  
  9300.000000   2193244   2191340   2188701   2185736   2182765  
  9290.000000   2179926   2177223   2174605   2172092   2169794  
  9280.000000   2167899   2166539   2165713   2165260   2164915  
  9270.000000   2164447   2163751   2162942   2162304   2162222  
  9260.000000   2163023   2164849   2167605   2170980   2174555  
  9250.000000   2177856   2180456   2181972   2182173   2180957  
  9240.000000   2178456   2174981   2171042   2167219   2164042  
  9230.000000   2161875   2160796   2160692   2161265   2162282  
  9220.000000   2163567   2165164   2167180   2169713   2172665  
  9210.000000   2175683   2178239   2179723   2179689   2177928  
  9200.000000   2174598   2170135   2165151   2160278   2156005  
  9190.000000   2152689   2150482   2149442   2149480   2150428  
  9180.000000   2151993   2153806   2155425   2156397   2156354  
  9170.000000   2155087   2152657   2149317   2145516   2141744  
  9160.000000   2138517   2136223   2135087   2135130   2136188  
  9150.000000   2137979   2140123   2142260   2144078   2145412  
  9140.000000   2146242   2146675   2146898   2147065   2147293  
  9130.000000   2147551   2147719   2147591   2146951   2145656  
  9120.000000   2143659   2141124   2138369   2135872   2134110  
  9110.000000   2133486   2134154   2135937   2138274   2140363  
  9100.000000   2141378   2140693   2138094   2133869   2128776  
  9090.000000   2123765   2119691   2117040   2115859   2115772  
  9080.000000   2116180   2116493   2116354   2115714   2114760  
  9070.000000   2113785   2113034   2112627   2112569   2112778  
  9060.000000   2113221   2113887   2114825   2116006   2117288  
  9050.000000   2118410   2119048   2119002   2118251   2117052  
  9040.000000   2115837   2115107   2115248   2116342   2118127  
  9030.000000   2120037   2121404   2121589   2120176   2117070  
  9020.000000   2112567   2107265   2101930   2097369   2094263  
  9010.000000   2093046   2093763   2096129   2099583   2103448  
  9000.000000   2107043   2109872   2111698   2112537   2112554  
  8990.000000   2111945   2110895   2109493   2107824   2105953  
  8980.000000   2104040   2102261   2100766   2099598   2098640  
  8970.000000   2097695   2096523   2095029   2093291   2091620  
  8960.000000   2090399   2089948   2090351   2091408   2092715  
  8950.000000   2093778   2094227   2093887   2092862   2091392  
  8940.000000   2089758   2088137   2086589   2085091   2083628  
  8930.000000   2082287   2081268   2080845   2081218   2082434  
  8920.000000   2084292   2086414   2088330   2089621   2090051  
  8910.000000   2089583   2088395   2086738   2084884   2083009  
  8900.000000   2081210   2079506   2077904   2076435   2075182  
  8890.000000   2074268   2073820   2073928   2074601   2075752  
  8880.000000   2077184   2078639   2079848   2080601   2080809  
  8870.000000   2080538   2080008   2079538   2079449   2079963  
  8860.000000   2081117   2082741   2084484   2085919   2086636  
  8850.000000   2086367   2085028   2082763   2079889   2076828  
  8840.000000   2074006   2071754   2070264   2069520   2069320  
  8830.000000   2069319   2069142   2068490   2067250   2065546  
  8820.000000   2063724   2062248   2061572   2061968   2063476  
  8810.000000   2065848   2068659   2071412   2073706   2075324  
  8800.000000   2076281   2076780   2077130   2077644   2078544  
  8790.000000   2079914   2081683   2083656   2085548   2087069  
  8780.000000   2087967   2088109   2087482   2086224   2084560  
  8770.000000   2082764   2081057   2079568   2078308   2077207  
  8760.000000   2076159   2075088   2073973   2072863   2071836  
  8750.000000   2070974   2070332   2069931   2069801   2069961  
  8740.000000   2070432   2071199   2072185   2073249   2074197  
  8730.000000   2074869   2075215   2075349   2075539   2076093  
  8720.000000   2077232   2078941   2080925   2082664   2083576  
  8710.000000   2083229   2081513   2078698   2075362   2072218  
  8700.000000   2069891   2068739   2068763   2069655   2070929  
  8690.000000   2072099   2072814   2072937   2072547   2071892  
  8680.000000   2071296   2071083   2071476   2072555   2074235  
  8670.000000   2076280   2078382   2080213   2081528   2082208  
  8660.000000   2082289   2081926   2081328   2080661   2080010  
  8650.000000   2079353   2078640   2077822   2076926   2076053  
  8640.000000   2075352   2074974   2074976   2075357   2076038  
  8630.000000   2076956   2078078   2079428   2081056   2082951  
  8620.000000   2085014   2087000   2088609   2089529   2089587  
  8610.000000   2088776   2087311   2085541   2083883   2082696  
  8600.000000   2082206   2082494   2083483   2085018   2086869  
  8590.000000   2088831   2090728   2092458   2093981   2095313  
  8580.000000   2096507   2097589   2098541   2099256   2099594  
  8570.000000   2099426   2098725   2097633   2096450   2095589  
  8560.000000   2095408   2096116   2097641   2099659   2101669  
  8550.000000   2103170   2103818   2103525   2102465   2100974  
  8540.000000   2099430   2098128   2097219   2096718   2096564  
  8530.000000   2096690   2097075   2097733   2098678   2099874  
  8520.000000   2101211   2102529   2103653   2104460   2104924  
  8510.000000   2105113   2105181   2105299   2105622   2106234  
  8500.000000   2107131   2108233   2109393   2110437   2111193  
  8490.000000   2111540   2111451   2110993   2110310   2109580  
  8480.000000   2108946   2108483   2108161   2107908   2107656  
  8470.000000   2107421   2107313   2107504   2108145   2109249  
  8460.000000   2110641   2111952   2112752   2112680   2111627  
  8450.000000   2109768   2107549   2105544   2104286   2104111  
  8440.000000   2105073   2106985   2109509   2112271   2114934  
  8430.000000   2117241   2119011   2120116   2120469   2120063  
  8420.000000   2119018   2117589   2116128   2115001   2114485  
  8410.000000   2114681   2115462   2116546   2117578   2118283  
  8400.000000   2118504   2118246   2117605   2116706   2115642  
  8390.000000   2114441   2113110   2111663   2110183   2108804  
  8380.000000   2107682   2106930   2106575   2106560   2106752  
  8370.000000   2107036   2107325   2107619   2107949   2108359  
  8360.000000   2108850   2109380   2109872   2110247   2110455  
  8350.000000   2110473   2110298   2109903   2109230   2108193  
  8340.000000   2106732   2104863   2102707   2100493   2098483  
  8330.000000   2096924   2095950   2095577   2095687   2096106  
  8320.000000   2096656   2097207   2097681   2098027   2098191  
  8310.000000   2098097   2097670   2096861   2095701   2094308  
  8300.000000   2092883   2091644   2090760   2090294   2090185  
  8290.000000   2090284   2090406   2090402   2090182   2089736  
  8280.000000   2089099   2088321   2087437   2086462   2085403  
  8270.000000   2084289   2083174   2082146   2081305   2080731  
  8260.000000   2080453   2080440   2080596   2080788   2080864  
  8250.000000   2080682   2080138   2079176   2077820   2076163  
  8240.000000   2074370   2072643   2071175   2070120   2069525  
  8230.000000   2069350   2069444   2069628   2069719   2069604  
  8220.000000   2069237   2068644   2067874   2066958   2065881  
  8210.000000   2064578   2062978   2061052   2058856   2056545  
  8200.000000   2054331   2052435   2050991   2050031   2049444  
  8190.000000   2049049   2048642   2048085   2047331   2046415  
  8180.000000   2045414   2044376   2043290   2042065   2040587  
  8170.000000   2038765   2036608   2034260   2031968   2030031  
  8160.000000   2028684   2028050   2028064   2028536   2029170  
  8150.000000   2029672   2029801   2029408   2028448   2026929  
  8140.000000   2024914   2022465   2019684   2016687   2013639  
  8130.000000   2010724   2008126   2005989   2004387   2003328  
  8120.000000   2002751   2002578   2002716   2003079   2003579  
  8110.000000   2004105   2004531   2004708   2004530   2003940  
  8100.000000   2002997   2001834   2000655   1999648   1998937  
  8090.000000   1998543   1998380   1998318   1998221   1998023  
  8080.000000   1997708   1997318   1996883   1996399   1995800  
  8070.000000   1994988   1993867   1992396   1990613   1988627  
  8060.000000   1986591   1984649   1982907   1981405   1980125  
  8050.000000   1979010   1977982   1976968   1975908   1974769  
  8040.000000   1973556   1972323   1971172   1970239   1969648  
  8030.000000   1969470   1969670   1970100   1970529   1970709  
  8020.000000   1970468   1969756   1968686   1967451   1966266  
  8010.000000   1965250   1964385   1963518   1962436   1960983  
  8000.000000   1959146   1957110   1955201   1953807   1953221  
  7990.000000   1953558   1954680   1956248   1957798   1958876  
  7980.000000   1959159   1958515   1957043   1955001   1952755  
  7970.000000   1950653   1948966   1947818   1947187   1946923  
  7960.000000   1946818   1946674   1946366   1945881   1945302  
  7950.000000   1944781   1944451   1944384   1944551   1944833  
  7940.000000   1945078   1945147   1944986   1944623   1944158  
  7930.000000   1943701   1943322   1943021   1942730   1942361  
  7920.000000   1941852   1941207   1940506   1939873   1939423  
  7910.000000   1939212   1939217   1939334   1939423   1939352  
  7900.000000   1939041   1938481   1937737   1936917   1936153  
  7890.000000   1935565   1935242   1935233   1935532   1936083  
  7880.000000   1936786   1937514   1938141   1938567   1938744  
  7870.000000   1938666   1938368   1937888   1937256   1936471  
  7860.000000   1935529   1934434   1933240   1932054   1931018  
  7850.000000   1930271   1929887   1929865   1930103   1930463  
  7840.000000   1930807   1931071   1931269   1931483   1931802  
  7830.000000   1932260   1932803   1933277   1933492   1933276  
  7820.000000   1932553   1931367   1929881   1928324   1926921  
  7810.000000   1925841   1925150   1924828   1924773   1924862  
  7800.000000   1924967   1924997   1924897   1924667   1924338  
  7790.000000   1923975   1923642   1923385   1923219   1923109  
  7780.000000   1922990   1922781   1922419   1921881   1921189  
  7770.000000   1920403   1919583   1918777   1917994   1917222  
  7760.000000   1916438   1915643   1914861   1914140   1913510  
  7750.000000   1912972   1912465   1911891   1911148   1910180  
  7740.000000   1909007   1907724   1906471   1905376   1904500  
  7730.000000   1903819   1903236   1902634   1901934   1901128  
  7720.000000   1900291   1899531   1898950   1898577   1898364  
  7710.000000   1898197   1897949   1897529   1896928   1896216  
  7700.000000   1895526   1894999   1894748   1894813   1895158  
  7690.000000   1895670   1896193   1896551   1896596   1896231  
  7680.000000   1895450   1894336   1893053   1891809   1890793  
  7670.000000   1890130   1889836   1889824   1889937   1890010  
  7660.000000   1889925   1889658   1889267   1888868   1888561  
  7650.000000   1888399   1888361   1888374   1888361   1888270  
  7640.000000   1888108   1887910   1887717   1887525   1887270  
  7630.000000   1886846   1886153   1885152   1883902   1882556  
  7620.000000   1881314   1880362   1879799   1879625   1879736  
  7610.000000   1879981   1880218   1880362   1880397   1880358  
  7600.000000   1880298   1880245   1880195   1880109   1879947  
  7590.000000   1879679   1879317   1878899   1878487   1878140  
  7580.000000   1877904   1877804   1877848   1878034   1878341  
  7570.000000   1878734   1879152   1879518   1879748   1879779  
  7560.000000   1879595   1879235   1878789   1878368   1878072  
  7550.000000   1877950   1877994   1878133   1878279   1878353  
  7540.000000   1878326   1878216   1878080   1877981   1877967  
  7530.000000   1878046   1878198   1878388   1878607   1878869  
  7520.000000   1879227   1879736   1880429   1881284   1882218  
  7510.000000   1883108   1883838   1884331   1884593   1884702  
  7500.000000   1884788   1884974   1885338   1885874   1886511  
  7490.000000   1887141   1887678   1888088   1888414   1888746  
  7480.000000   1889181   1889775   1890517   1891327   1892100  
  7470.000000   1892746   1893244   1893639   1894033   1894534  
  7460.000000   1895211   1896055   1896996   1897924   1898747  
  7450.000000   1899422   1899979   1900498   1901081   1901798  
  7440.000000   1902676   1903682   1904758   1905841   1906899  
  7430.000000   1907933   1908981   1910083   1911277   1912568  
  7420.000000   1913942   1915368   1916816   1918267   1919717  
  7410.000000   1921179   1922671   1924210   1925804   1927444  
  7400.000000   1929100   1930725   1932258   1933635   1934812  
  7390.000000   1935775   1936562   1937245   1937919   1938670  
  7380.000000   1939552   1940575   1941703   1942886   1944084  
  7370.000000   1945299   1946562   1947927   1949427   1951053  
  7360.000000   1952741   1954375   1955833   1957017   1957893  
  7350.000000   1958495   1958918   1959285   1959711   1960275  
  7340.000000   1961007   1961898   1962913   1964012   1965157  
  7330.000000   1966314   1967454   1968554   1969598   1970587  
  7320.000000   1971539   1972494   1973496   1974591   1975802  
  7310.000000   1977131   1978551   1980015   1981465   1982840  
  7300.000000   1984088   1985165   1986047   1986732   1987254  
  7290.000000   1987677   1988088   1988577   1989217   1990039  
  7280.000000   1991022   1992104   1993193   1994204   1995079  
  7270.000000   1995805   1996415   1996969   1997539   1998180  
  7260.000000   1998922   1999762   2000680   2001639   2002617  
  7250.000000   2003595   2004583   2005596   2006667   2007816  
  7240.000000   2009066   2010413   2011850   2013356   2014925  
  7230.000000   2016557   2018286   2020141   2022163   2024353  
  7220.000000   2026686   2029078   2031436   2033648   2035656  
  7210.000000   2037446   2039096   2040731   2042517   2044592  
  7200.000000   2047045   2049885   2053055   2056449   2059962  
  7190.000000   2063496   2067006   2070464   2073878   2077235  
  7180.000000   2080526   2083706   2086740   2089595   2092291  
  7170.000000   2094877   2097465   2100173   2103120   2106367  
  7160.000000   2109912   2113678   2117559   2121435   2125241  
  7150.000000   2128957   2132642   2136377   2140264   2144351  
  7140.000000   2148650   2153099   2157632   2162176   2166716  
  7130.000000   2171263   2175875   2180590   2185438   2190388  
  7120.000000   2195403   2200423   2205436   2210457   2215554  
  7110.000000   2220788   2226212   2231816   2237561   2243366  
  7100.000000   2249175   2254955   2260731   2266548   2272460  
  7090.000000   2278487   2284614   2290787   2296949   2303057  
  7080.000000   2309102   2315098   2321069   2327019   2332926  
  7070.000000   2338742   2344422   2349943   2355326   2360621  
  7060.000000   2365898   2371206   2376563   2381950   2387328  
  7050.000000   2392666   2397956   2403228   2408531   2413922  
  7040.000000   2419434   2425076   2430830   2436660   2442524  
  7030.000000   2448377   2454175   2459871   2465419   2470785  
  7020.000000   2475959   2480974   2485888   2490784   2495725  
  7010.000000   2500745   2505815   2510877   2515838   2520630  
  7000.000000   2525200   2529548   2533687   2537657   2541478  
  6990.000000   2545187   2548807   2552392   2555990   2559661  
  6980.000000   2563425   2567269   2571114   2574863   2578405  
  6970.000000   2581687   2584702   2587517   2590217   2592896  
  6960.000000   2595595   2598324   2601040   2603708   2606293  
  6950.000000   2608801   2611240   2613632   2615965   2618214  
  6940.000000   2620328   2622271   2624023   2625597   2627023  
  6930.000000   2628333   2629544   2630670   2631714   2632714  
  6920.000000   2633724   2634839   2636145   2637715   2639556  
  6910.000000   2641620   2643804   2645991   2648065   2649941  
  6900.000000   2651565   2652913   2653986   2654806   2655425  
  6890.000000   2655923   2656411   2657004   2657791   2658814  
  6880.000000   2660036   2661372   2662700   2663922   2664979  
  6870.000000   2665880   2666680   2667450   2668244   2669074  
  6860.000000   2669918   2670731   2671476   2672135   2672718  
  6850.000000   2673254   2673772   2674302   2674858   2675459  
  6840.000000   2676120   2676864   2677698   2678612   2679564  
  6830.000000   2680490   2681316   2681981   2682454   2682740  
  6820.000000   2682871   2682887   2682824   2682710   2682565  
  6810.000000   2682418   2682305   2682277   2682372   2682615  
  6800.000000   2682986   2683447   2683932   2684388   2684774  
  6790.000000   2685073   2685276   2685373   2685344   2685162  
  6780.000000   2684811   2684308   2683704   2683083   2682535  
  6770.000000   2682125   2681876   2681762   2681728   2681715  
  6760.000000   2681681   2681612   2681512   2681390   2681247  
  6750.000000   2681075   2680868   2680636   2680413   2680248  
  6740.000000   2680188   2680249   2680408   2680603   2680761  
  6730.000000   2680826   2680781   2680654   2680500   2680372  
  6720.000000   2680301   2680287   2680308   2680342   2680381  
  6710.000000   2680438   2680524   2680645   2680771   2680858  
  6700.000000   2680854   2680737   2680516   2680241   2679959  
  6690.000000   2679695   2679424   2679080   2678577   2677866  
  6680.000000   2676946   2675891   2674804   2673788   2672888  
  6670.000000   2672089   2671311   2670468   2669496   2668399  
  6660.000000   2667228   2666075   2665007   2664058   2663203  
  6650.000000   2662388   2661553   2660661   2659703   2658696  
  6640.000000   2657651   2656568   2655424   2654195   2652866  
  6630.000000   2651458   2650015   2648596   2647243   2645967  
  6620.000000   2644742   2643521   2642250   2640901   2639470  
  6610.000000   2637980   2636457   2634927   2633395   2631863  
  6600.000000   2630326   2628792   2627271   2625775   2624302  
  6590.000000   2622840   2621359   2619838   2618263   2616648  
  6580.000000   2615019   2613408   2611834   2610295   2608766  
  6570.000000   2607217   2605624   2603981   2602301   2600606  
  6560.000000   2598917   2597243   2595581   2593926   2592274  
  6550.000000   2590636   2589030   2587476   2585985   2584555  
  6540.000000   2583171   2581813   2580460   2579096   2577710  
  6530.000000   2576284   2574807   2573267   2571668   2570035  
  6520.000000   2568419   2566877   2565459   2564181   2563023  
  6510.000000   2561926   2560824   2559663   2558429   2557150  
  6500.000000   2555877   2554669   2553553   2552525   2551546  
  6490.000000   2550561   2549524   2548409   2547212   2545938  
  6480.000000   2544594   2543181   2541698   2540156   2538584  
  6470.000000   2537034   2535560   2534202   2532969   2531833  
  6460.000000   2530738   2529626   2528456   2527221   2525940  
  6450.000000   2524640   2523347   2522063   2520779   2519476  
  6440.000000   2518155   2516829   2515532   2514289   2513116  
  6430.000000   2512000   2510914   2509831   2508747   2507684  
  6420.000000   2506699   2505849   2505181   2504705   2504395  
  6410.000000   2504193   2504039   2503869   2503648   2503348  
  6400.000000   2502963   2502493   2501953   2501374   2500803  
  6390.000000   2500298   2499911   2499668   2499557   2499526  
  6380.000000   2499498   2499397   2499174   2498824   2498377  
  6370.000000   2497888   2497400   2496936   2496486   2496024  
  6360.000000   2495527   2494994   2494444   2493917   2493442  
  6350.000000   2493033   2492670   2492316   2491920   2491449  
  6340.000000   2490881   2490222   2489484   2488687   2487843  
  6330.000000   2486967   2486068   2485166   2484278   2483426  
  6320.000000   2482612   2481830   2481050   2480239   2479362  
  6310.000000   2478400   2477346   2476212   2475017   2473785  
  6300.000000   2472536   2471295   2470082   2468918   2467811  
  6290.000000   2466759   2465731   2464691   2463586   2462378  
  6280.000000   2461043   2459587   2458038   2456439   2454834  
  6270.000000   2453259   2451737   2450279   2448884   2447544  
  6260.000000   2446235   2444927   2443579   2442153   2440626  
  6250.000000   2439008   2437339   2435689   2434130   2432711  
  6240.000000   2431438   2430269   2429128   2427926   2426598  
  6230.000000   2425115   2423498   2421796   2420076   2418393  
  6220.000000   2416783   2415258   2413811   2412424   2411080  
  6210.000000   2409759   2408446   2407127   2405798   2404460  
  6200.000000   2403129   2401824   2400566   2399364   2398210  
  6190.000000   2397081   2395948   2394793   2393617   2392441  
  6180.000000   2391302   2390229   2389238   2388313   2387421  
  6170.000000   2386518   2385575   2384579   2383543   2382494  
  6160.000000   2381463   2380470   2379522   2378616   2377748  
  6150.000000   2376915   2376120   2375365   2374644   2373941  
  6140.000000   2373232   2372490   2371705   2370875   2370023  
  6130.000000   2369174   2368352   2367567   2366820   2366095  
  6120.000000   2365387   2364690   2364020   2363391   2362827  
  6110.000000   2362333   2361913   2361553   2361245   2360977  
  6100.000000   2360755   2360580   2360471   2360431   2360466  
  6090.000000   2360564   2360719   2360908   2361124   2361349  
  6080.000000   2361583   2361823   2362088   2362393   2362772  
  6070.000000   2363248   2363846   2364564   2365394   2366300  
  6060.000000   2367254   2368216   2369179   2370137   2371113  
  6050.000000   2372124   2373201   2374354   2375605   2376959  
  6040.000000   2378436   2380044   2381800   2383700   2385732  
  6030.000000   2387859   2390046   2392249   2394452   2396643  
  6020.000000   2398842   2401064   2403330   2405639   2407984  
  6010.000000   2410339   2412683   2414997   2417281   2419537  
  6000.000000   2421782   2424025   2426280   2428548   2430838  
  5990.000000   2433149   2435487   2437850   2440245   2442667  
  5980.000000   2445119   2447601   2450126   2452705   2455360  
  5970.000000   2458102   2460944   2463879   2466903   2469995  
  5960.000000   2473147   2476339   2479569   2482817   2486080  
  5950.000000   2489336   2492582   2495816   2499058   2502339  
  5940.000000   2505700   2509184   2512819   2516618   2520561  
  5930.000000   2524617   2528726   2532827   2536850   2540730  
  5920.000000   2544409   2547844   2551013   2553918   2556583  
  5910.000000   2559052   2561372   2563589   2565734   2567834  
  5900.000000   2569901   2571965   2574046   2576189   2578419  
  5890.000000   2580765   2583216   2585755   2588335   2590914  
  5880.000000   2593449   2595914   2598286   2600549   2602684  
  5870.000000   2604666   2606481   2608131   2609648   2611086  
  5860.000000   2612524   2614032   2615663   2617432   2619322  
  5850.000000   2621296   2623314   2625350   2627402   2629484  
  5840.000000   2631628   2633860   2636203   2638659   2641223  
  5830.000000   2643873   2646586   2649323   2652053   2654736  
  5820.000000   2657356   2659903   2662395   2664862   2667345  
  5810.000000   2669873   2672457   2675092   2677747   2680404  
  5800.000000   2683030   2685640   2688226   2690821   2693407  
  5790.000000   2695986   2698496   2700892   2703076   2704971  
  5780.000000   2706460   2707453   2707833   2707537   2706515  
  5770.000000   2704810   2702509   2699790   2696838   2693861  
  5760.000000   2690996   2688344   2685911   2683686   2681610  
  5750.000000   2679662   2677820   2676105   2674529   2673111  
  5740.000000   2671844   2670705   2669661   2668666   2667690  
  5730.000000   2666696   2665671   2664594   2663469   2662299  
  5720.000000   2661107   2659919   2658766   2657666   2656625  
  5710.000000   2655630   2654666   2653714   2652779   2651878  
  5700.000000   2651039   2650290   2649643   2649090   2648601  
  5690.000000   2648149   2647703   2647263   2646831   2646426  
  5680.000000   2646046   2645686   2645305   2644857   2644279  
  5670.000000   2643524   2642543   2641307   2639795   2638002  
  5660.000000   2635937   2633639   2631162   2628591   2626010  
  5650.000000   2623501   2621111   2618866   2616756   2614763  
  5640.000000   2612860   2611035   2609278   2607585   2605951  
  5630.000000   2604357   2602790   2601229   2599680   2598149  
  5620.000000   2596669   2595260   2593943   2592714   2591566  
  5610.000000   2590478   2589441   2588452   2587522   2586664  
  5600.000000   2585889   2585198   2584582   2584025   2583511  
  5590.000000   2583024   2582547   2582060   2581537   2580950  
  5580.000000   2580280   2579521   2578692   2577827   2576968  
  5570.000000   2576147   2575372   2574627   2573874   2573080  
  5560.000000   2572220   2571297   2570329   2569348   2568377  
  5550.000000   2567427   2566495   2565571   2564650   2563735  
  5540.000000   2562840   2561976   2561147   2560341   2559537  
  5530.000000   2558714   2557860   2556980   2556089   2555210  
  5520.000000   2554356   2553527   2552709   2551888   2551049  
  5510.000000   2550188   2549309   2548418   2547511   2546580  
  5500.000000   2545607   2544583   2543505   2542386   2541246  
  5490.000000   2540101   2538949   2537775   2536551   2535256  
  5480.000000   2533881   2532446   2530980   2529520   2528083  
  5470.000000   2526671   2525260   2523825   2522341   2520802  
  5460.000000   2519216   2517597   2515951   2514280   2512575  
  5450.000000   2510833   2509062   2507284   2505533   2503835  
  5440.000000   2502204   2500632   2499103   2497598   2496118  
  5430.000000   2494675   2493293   2491980   2490735   2489525  
  5420.000000   2488323   2487100   2485872   2484673   2483579  
  5410.000000   2482639   2481896   2481329   2480907   2480568  
  5400.000000   2480289   2480053   2479897   2479846   2479946  
  5390.000000   2480197   2480606   2481145   2481825   2482645  
  5380.000000   2483651   2484859   2486298   2487934   2489747  
  5370.000000   2491663   2493669   2495724   2497872   2500115  
  5360.000000   2502520   2505084   2507860   2510836   2514082  
  5350.000000   2517614   2521539   2525883   2530733   2536056  
  5340.000000   2541877   2548110   2554774   2561805   2569267  
  5330.000000   2577126   2585463   2594230   2603486   2613167  
  5320.000000   2623348   2633997   2645242   2657081   2669658  
  5310.000000   2682950   2697059   2711913   2727583   2743993  
  5300.000000   2761234   2779269   2798226   2818095   2839003  
  5290.000000   2860909   2883866   2907738   2932469   2957860  
  5280.000000   2983838   3010274   3037214   3064671   3092789  
  5270.000000   3121608   3151170   3181353   3211980   3242803  
  5260.000000   3273610   3304276   3334770   3365156   3395478  
  5250.000000   3425763   3455878   3485668   3514837   3543218  
  5240.000000   3570616   3597077   3622611   3647428   3671589  
  5230.000000   3695259   3718374   3740948   3762782   3783828  
  5220.000000   3803907   3823067   3841256   3858645   3875255  
  5210.000000   3891263   3906627   3921407   3935444   3948726  
  5200.000000   3961099   3972631   3983282   3993222   4002461  
  5190.000000   4011142   4019205   4026704   4033523   4039705  
  5180.000000   4045180   4050048   4054286   4057996   4061122  
  5170.000000   4063709   4065666   4067029   4067749   4067915  
  5160.000000   4067530   4066701   4065418   4063753   4061665  
  5150.000000   4059212   4056373   4053223   4049761   4046055  
  5140.000000   4042078   4037858   4033351   4028581   4023528  
  5130.000000   4018247   4012749   4007094   4001287   3995365  
  5120.000000   3989322   3983192   3976982   3970735   3964465  
  5110.000000   3958199   3951927   3945648   3939345   3933023  
  5100.000000   3926690   3920381   3914122   3907945   3901861  
  5090.000000   3895874   3889976   3884163   3878427   3872768  
  5080.000000   3867173   3861622   3856074   3850489   3844820  
  5070.000000   3839046   3833158   3827178   3821128   3815042  
  5060.000000   3808927   3802792   3796614   3790383   3784074  
  5050.000000   3777682   3771192   3764605   3757906   3751099  
  5040.000000   3744174   3737147   3730031   3722857   3715649  
  5030.000000   3708432   3701216   3694006   3686800   3679606  
  5020.000000   3672437   3665315   3658271   3651322   3644487  
  5010.000000   3637760   3631141   3624612   3618180   3611841  
  5000.000000   3605623   3599531   3593603   3587840   3582275  
  4990.000000   3576903   3571757   3566829   3562150   3557701  
  4980.000000   3553500   3549509   3545738   3542152   3538784  
  4970.000000   3535625   3532738   3530129   3527862   3525924  
  4960.000000   3524358   3523124   3522252   3521705   3521524  
  4950.000000   3521683   3522235   3523151   3524472   3526155  
  4940.000000   3528232   3530656   3533465   3536624   3540177  
  4930.000000   3544091   3548403   3553071   3558121   3563507  
  4920.000000   3569257   3575331   3581760   3588512   3595613  
  4910.000000   3603033   3610788   3618842   3627197   3635810  
  4900.000000   3644665   3653716   3662936   3672285   3681730  
  4890.000000   3691239   3700766   3710266   3719662   3728891  
  4880.000000   3737850   3746482   3754697   3762471   3769740  
  4870.000000   3776512   3782735   3788425   3793533   3798087  
  4860.000000   3802055   3805489   3808378   3810794   3812731  
  4850.000000   3814255   3815363   3816119   3816534   3816685  
  4840.000000   3816601   3816363   3816000   3815573   3815094  
  4830.000000   3814603   3814104   3813625   3813178   3812785  
  4820.000000   3812459   3812208   3812039   3811949   3811947  
  4810.000000   3812030   3812212   3812493   3812887   3813387  
  4800.000000   3814001   3814722   3815563   3816524   3817625  
  4790.000000   3818867   3820261   3821789   3823437   3825171  
  4780.000000   3826969   3828801   3830656   3832521   3834397  
  4770.000000   3836277   3838161   3840038   3841908   3843766  
  4760.000000   3845616   3847462   3849310   3851160   3853007  
  4750.000000   3854842   3856652   3858427   3860154   3861831  
  4740.000000   3863451   3865013   3866517   3867962   3869349  
  4730.000000   3870684   3871975   3873228   3874456   3875665  
  4720.000000   3876868   3878071   3879292   3880544   3881853  
  4710.000000   3883237   3884725   3886329   3888070   3889952  
  4700.000000   3891991   3894189   3896560   3899106   3901837  
  4690.000000   3904746   3907830   3911068   3914443   3917918  
  4680.000000   3921465   3925031   3928577   3932044   3935399  
  4670.000000   3938602   3941653   3944558   3947366   3950128  
  4660.000000   3952921   3955806   3958849   3962090   3965558  
  4650.000000   3969262   3973193   3977333   3981650   3986110  
  4640.000000   3990670   3995294   3999942   4004585   4009185  
  4630.000000   4013714   4018128   4022394   4026462   4030302  
  4620.000000   4033873   4037158   4040131   4042793   4045127  
  4610.000000   4047150   4048861   4050306   4051508   4052545  
  4600.000000   4053456   4054318   4055143   4055965   4056743  
  4590.000000   4057460   4058045   4058465   4058659   4058614  
  4580.000000   4058299   4057727   4056888   4055815   4054518  
  4570.000000   4053044   4051416   4049687   4047873   4046008  
  4560.000000   4044084   4042107   4040051   4037914   4035676  
  4550.000000   4033347   4030926   4028433   4025875   4023270  
  4540.000000   4020624   4017953   4015269   4012589   4009929  
  4530.000000   4007296   4004695   4002113   3999543   3996958  
  4520.000000   3994361   3991740   3989129   3986536   3984022  
  4510.000000   3981604   3979361   3977313   3975553   3974105  
  4500.000000   3973075   3972484   3972431   3972912   3974010  
  4490.000000   3975696   3978045   3981022   3984710   3989076  
  4480.000000   3994202   4000048   4006681   4014042   4022180  
  4470.000000   4031022   4040600   4050825   4061707   4073145  
  4460.000000   4085127   4097547   4110389   4123560   4137051  
  4450.000000   4150784   4164753   4178895   4193198   4207616  
  4440.000000   4222133   4236720   4251356   4266020   4280672  
  4430.000000   4295286   4309798   4324179   4338349   4352287  
  4420.000000   4365908   4379196   4392063   4404490   4416378  
  4410.000000   4427701   4438358   4448326   4457522   4465958  
  4400.000000   4473599   4480515   4486738   4492399   4497583  
  4390.000000   4502455   4507119   4511727   4516350   4521080  
  4380.000000   4525924   4530902   4535975   4541132   4546341  
  4370.000000   4551614   4556960   4562417   4568010   4573761  
  4360.000000   4579668   4585724   4591885   4598132   4604392  
  4350.000000   4610650   4616809   4622873   4628752   4634499  
  4340.000000   4640073   4645558   4650893   4656029   4660682  
  4330.000000   4664489   4666886   4667331   4665329   4660666  
  4320.000000   4653430   4644100   4633411   4622268   4611505  
  4310.000000   4601803   4593534   4586826   4581551   4577492  
  4300.000000   4574386   4572028   4570288   4569086   4568404  
  4290.000000   4568197   4568466   4569150   4570255   4571727  
  4280.000000   4573571   4575736   4578184   4580840   4583624  
  4270.000000   4586473   4589316   4592112   4594764   4597151  
  4260.000000   4599043   4600166   4600196   4598873   4596035  
  4250.000000   4591720   4586129   4579647   4572704   4565765  
  4240.000000   4559171   4553175   4547850   4543193   4539092  
  4230.000000   4535435   4532084   4528934   4525888   4522865  
  4220.000000   4519820   4516710   4513565   4510414   4507376  
  4210.000000   4504537   4502042   4499960   4498373   4497273  
  4200.000000   4496655   4496442   4496583   4496982   4497591  
  4190.000000   4498328   4499176   4500082   4501068   4502112  
  4180.000000   4503265   4504521   4505932   4507486   4509227  
  4170.000000   4511140   4513278   4515649   4518332   4521350  
  4160.000000   4524786   4528642   4532963   4537709   4542890  
  4150.000000   4548442   4554377   4560644   4567281   4574259  
  4140.000000   4581639   4589399   4597602   4606213   4615280  
  4130.000000   4624749   4634653   4644933   4655629   4666706  
  4120.000000   4678231   4690207   4702725   4715805   4729525  
  4110.000000   4743878   4758889   4774494   4790654   4807254  
  4100.000000   4824216   4841416   4858780   4876226   4893720  
  4090.000000   4911235   4928769   4946325   4963892   4981475  
  4080.000000   4999041   5016590   5034070   5051472   5068706  
  4070.000000   5085730   5102408   5118673   5134381   5149505  
  4060.000000   5163959   5177788   5190961   5203558   5215545  
  4050.000000   5226998   5237868   5248235   5258054   5267413  
  4040.000000   5276256   5284648   5292502   5299861   5306634  
  4030.000000   5312880   5318529   5323643   5328155   5332091  
  4020.000000   5335342   5337936   5339842   5341129   5341769  
  4010.000000   5341891   5341569   5340814   5339417   5337424  
  4000.000000   5335129  
##END= 
