##TITLE= Sample 009 By ssteindl date Donnerstag, November 22 2018
##JCAMP-DX= 4.24
##DATA TYPE= INFRARED SPECTRUM
##ORIGIN= Exported PE Spectrum Data File
##OWNER= Sandra Steindl
##DATE= 18/11/22
##TIME= 10:17:35.00
##SPECTROMETER/DATA SYSTEM= PERKIN-ELMER Frontier FT-IR/NIR IR
##INSTRUMENT PARAMETERS=
  APODIZATION=stark
  DETECTOR=INGAAS
##RESOLUTION= 16.000000
##DELTAX= -2.000000
##XUNITS= 1/CM
##YUNITS= A
##XFACTOR= 1.00
##YFACTOR= 0.00000011920928955078
##FIRSTX= 10000.00
##LASTX= 4000.00
##NPOINTS= 3001
##FIRSTY= 0.269028
##MAXY= 0.624281
##MINY= 0.212954
##XYDATA= (X++(Y..Y))
 10000.000000   2256772   2268218   2278837   2286953   2291000  
  9990.000000   2290025   2283810   2272832   2258187   2241433  
  9980.000000   2224196   2208139   2194605   2184805   2179466  
  9970.000000   2179074   2183465   2191986   2203267   2215540  
  9960.000000   2226826   2235390   2240128   2240685   2237611  
  9950.000000   2231913   2225009   2218097   2212249   2208015  
  9940.000000   2205659   2205015   2205616   2206793   2207713  
  9930.000000   2207777   2206613   2204553   2202378   2201416  
  9920.000000   2202917   2207770   2215962   2226497   2237567  
  9910.000000   2246959   2252731   2253561   2249171   2240094  
  9900.000000   2227601   2213148   2198232   2184082   2171684  
  9890.000000   2161782   2154831   2151097   2150467   2152672  
  9880.000000   2157156   2163412   2170903   2179211   2187901  
  9870.000000   2196377   2203914   2209549   2212503   2212230  
  9860.000000   2208886   2203205   2196484   2190128   2185264  
  9850.000000   2182444   2181520   2181898   2182786   2183596  
  9840.000000   2184043   2184183   2184161   2184068   2183773  
  9830.000000   2183034   2181634   2179616   2177364   2175536  
  9820.000000   2174866   2175860   2178625   2182761   2187486  
  9810.000000   2191796   2194745   2195613   2194114   2190393  
  9800.000000   2185046   2178996   2173323   2169092   2167053  
  9790.000000   2167541   2170292   2174640   2179607   2184312  
  9780.000000   2188063   2190580   2191831   2191961   2191070  
  9770.000000   2189133   2186065   2181762   2176344   2170102  
  9760.000000   2163553   2157184   2151341   2146091   2141282  
  9750.000000   2136726   2132351   2128374   2125214   2123379  
  9740.000000   2123230   2124843   2127975   2132167   2136887  
  9730.000000   2141644   2146038   2149731   2152461   2154004  
  9720.000000   2154314   2153502   2151935   2150075   2148353  
  9710.000000   2146928   2145586   2143788   2140915   2136624  
  9700.000000   2131102   2125150   2119902   2116435   2115240  
  9690.000000   2116077   2118005   2119849   2120673   2120164  
  9680.000000   2118749   2117315   2116806   2117721   2119886  
  9670.000000   2122497   2124480   2124927   2123501   2120513  
  9660.000000   2116846   2113552   2111527   2111199   2112427  
  9650.000000   2114583   2116758   2118033   2117770   2115778  
  9640.000000   2112415   2108501   2105109   2103282   2103663  
  9630.000000   2106306   2110572   2115367   2119473   2122020  
  9620.000000   2122740   2122072   2120877   2120082   2120227  
  9610.000000   2121232   2122438   2122865   2121677   2118478  
  9600.000000   2113501   2107463   2101268   2095707   2091184  
  9590.000000   2087760   2085247   2083452   2082328   2081963  
  9580.000000   2082498   2083913   2085952   2088117   2089833  
  9570.000000   2090641   2090397   2089306   2087926   2086948  
  9560.000000   2087051   2088663   2091831   2096189   2100974  
  9550.000000   2105248   2108103   2108956   2107708   2104813  
  9540.000000   2101122   2097627   2095089   2093801   2093470  
  9530.000000   2093376   2092661   2090724   2087434   2083237  
  9520.000000   2078883   2075182   2072607   2071204   2070627  
  9510.000000   2070356   2069970   2069248   2068202   2066893  
  9500.000000   2065329   2063368   2060843   2057702   2054205  
  9490.000000   2050914   2048557   2047711   2048524   2050608  
  9480.000000   2053169   2055338   2056526   2056633   2056061  
  9470.000000   2055435   2055317   2055862   2056806   2057562  
  9460.000000   2057576   2056588   2054777   2052684   2050960  
  9450.000000   2050130   2050403   2051701   2053734   2056165  
  9440.000000   2058673   2060967   2062752   2063714   2063579  
  9430.000000   2062250   2059899   2057032   2054334   2052493  
  9420.000000   2051913   2052572   2054018   2055566   2056563  
  9410.000000   2056630   2055722   2054048   2051880   2049398  
  9400.000000   2046649   2043613   2040366   2037182   2034518  
  9390.000000   2032861   2032478   2033294   2034844   2036511  
  9380.000000   2037716   2038197   2038025   2037553   2037168  
  9370.000000   2037072   2037180   2037139   2036559   2035154  
  9360.000000   2032896   2029950   2026585   2023027   2019403  
  9350.000000   2015789   2012286   2009148   2006712   2005333  
  9340.000000   2005153   2006030   2007529   2009093   2010272  
  9330.000000   2010864   2010976   2010837   2010639   2010313  
  9320.000000   2009595   2008088   2005610   2002315   1998809  
  9310.000000   1995891   1994264   1994229   1995549   1997581  
  9300.000000   1999524   2000830   2001409   2001673   2002272  
  9290.000000   2003752   2006261   2009487   2012775   2015400  
  9280.000000   2016801   2016793   2015550   2013494   2011075  
  9270.000000   2008641   2006401   2004459   2002845   2001494  
  9260.000000   2000216   1998669   1996456   1993234   1988915  
  9250.000000   1983785   1978536   1974106   1971370   1970847  
  9240.000000   1972464   1975649   1979515   1983267   1986433  
  9230.000000   1989023   1991388   1993930   1996805   1999726  
  9220.000000   2002096   2003121   2002221   1999156   1994254  
  9210.000000   1988196   1981845   1975970   1971067   1967403  
  9200.000000   1965001   1963868   1963983   1965388   1968056  
  9190.000000   1971865   1976470   1981337   1985789   1989182  
  9180.000000   1991075   1991299   1990048   1987777   1985154  
  9170.000000   1982816   1981220   1980506   1980486   1980723  
  9160.000000   1980655   1979832   1978056   1975496   1972568  
  9150.000000   1969827   1967708   1966440   1965945   1965954  
  9140.000000   1966123   1966214   1966171   1966109   1966209  
  9130.000000   1966554   1967076   1967518   1967579   1966953  
  9120.000000   1965501   1963232   1960356   1957161   1953969  
  9110.000000   1951097   1948854   1947552   1947423   1948589  
  9100.000000   1950940   1954133   1957595   1960689   1962876  
  9090.000000   1963901   1963852   1963090   1962081   1961191  
  9080.000000   1960570   1960105   1959544   1958647   1957337  
  9070.000000   1955717   1953984   1952309   1950718   1949083  
  9060.000000   1947196   1944920   1942341   1939761   1937632  
  9050.000000   1936327   1936006   1936525   1937507   1938523  
  9040.000000   1939286   1939811   1940387   1941467   1943402  
  9030.000000   1946296   1949895   1953672   1956994   1959325  
  9020.000000   1960404   1960235   1959052   1957130   1954704  
  9010.000000   1951894   1948746   1945295   1941655   1938075  
  9000.000000   1934902   1932511   1931141   1930895   1931641  
  8990.000000   1933130   1934985   1936876   1938576   1939995  
  8980.000000   1941175   1942196   1943165   1944074   1944815  
  8970.000000   1945149   1944832   1943679   1941682   1939072  
  8960.000000   1936295   1933922   1932443   1932166   1933061  
  8950.000000   1934794   1936766   1938335   1939000   1938543  
  8940.000000   1937062   1934908   1932569   1930492   1928970  
  8930.000000   1928071   1927705   1927659   1927725   1927739  
  8920.000000   1927627   1927391   1927056   1926676   1926291  
  8910.000000   1925974   1925815   1925934   1926456   1927446  
  8900.000000   1928871   1930567   1932240   1933541   1934140  
  8890.000000   1933857   1932732   1931017   1929118   1927447  
  8880.000000   1926302   1925746   1925576   1925409   1924818  
  8870.000000   1923516   1921471   1918952   1916452   1914522  
  8860.000000   1913579   1913757   1914859   1916407   1917813  
  8850.000000   1918544   1918322   1917174   1915442   1913628  
  8840.000000   1912253   1911694   1912109   1913398   1915277  
  8830.000000   1917350   1919257   1920731   1921668   1922101  
  8820.000000   1922162   1922032   1921871   1921795   1921859  
  8810.000000   1922070   1922422   1922904   1923512   1924226  
  8800.000000   1924984   1925677   1926150   1926260   1925921  
  8790.000000   1925162   1924139   1923108   1922355   1922100  
  8780.000000   1922415   1923202   1924225   1925197   1925879  
  8770.000000   1926161   1926085   1925822   1925595   1925590  
  8760.000000   1925897   1926471   1927180   1927842   1928307  
  8750.000000   1928487   1928388   1928097   1927746   1927488  
  8740.000000   1927440   1927683   1928231   1929046   1930034  
  8730.000000   1931070   1932019   1932755   1933191   1933264  
  8720.000000   1932966   1932307   1931349   1930175   1928913  
  8710.000000   1927706   1926710   1926069   1925878   1926181  
  8700.000000   1926953   1928129   1929625   1931354   1933237  
  8690.000000   1935174   1937044   1938662   1939832   1940370  
  8680.000000   1940217   1939457   1938368   1937344   1936799  
  8670.000000   1937056   1938223   1940186   1942614   1945113  
  8660.000000   1947309   1948990   1950102   1950742   1951072  
  8650.000000   1951232   1951306   1951283   1951104   1950683  
  8640.000000   1949961   1948927   1947631   1946193   1944793  
  8630.000000   1943661   1943041   1943135   1944041   1945676  
  8620.000000   1947763   1949865   1951505   1952317   1952187  
  8610.000000   1951331   1950254   1949612   1949991   1951715  
  8600.000000   1954715   1958538   1962467   1965733   1967736  
  8590.000000   1968188   1967177   1965092   1962508   1959998  
  8580.000000   1958009   1956778   1956322   1956481   1956986  
  8570.000000   1957570   1958040   1958350   1958565   1958856  
  8560.000000   1959388   1960268   1961481   1962881   1964254  
  8550.000000   1965367   1966091   1966405   1966437   1966373  
  8540.000000   1966407   1966644   1967090   1967660   1968242  
  8530.000000   1968761   1969205   1969636   1970140   1970791  
  8520.000000   1971601   1972540   1973561   1974630   1975750  
  8510.000000   1976919   1978112   1979220   1980062   1980440  
  8500.000000   1980235   1979491   1978462   1977565   1977265  
  8490.000000   1977915   1979594   1982086   1984918   1987544  
  8480.000000   1989498   1990578   1990872   1990721   1990551  
  8470.000000   1990709   1991336   1992326   1993417   1994275  
  8460.000000   1994658   1994454   1993726   1992648   1991427  
  8450.000000   1990252   1989236   1988478   1988055   1988086  
  8440.000000   1988689   1989980   1992000   1994670   1997752  
  8430.000000   2000891   2003693   2005782   2006900   2006928  
  8420.000000   2005944   2004163   2001910   1999545   1997425  
  8410.000000   1995869   1995089   1995194   1996126   1997721  
  8400.000000   1999682   2001680   2003368   2004499   2004955  
  8390.000000   2004770   2004089   2003109   2002024   2000962  
  8380.000000   1999980   1999062   1998186   1997348   1996580  
  8370.000000   1995941   1995465   1995155   1994942   1994728  
  8360.000000   1994409   1993940   1993372   1992834   1992484  
  8350.000000   1992438   1992713   1993205   1993719   1994038  
  8340.000000   1994007   1993593   1992888   1992074   1991339  
  8330.000000   1990810   1990506   1990340   1990160   1989804  
  8320.000000   1989168   1988210   1986960   1985479   1983835  
  8310.000000   1982100   1980341   1978657   1977156   1975979  
  8300.000000   1975241   1975026   1975327   1976059   1977056  
  8290.000000   1978108   1979013   1979578   1979663   1979147  
  8280.000000   1977972   1976136   1973743   1971006   1968241  
  8270.000000   1965828   1964134   1963429   1963780   1965038  
  8260.000000   1966833   1968701   1970172   1970912   1970768  
  8250.000000   1969801   1968230   1966360   1964484   1962819  
  8240.000000   1961482   1960492   1959800   1959316   1958926  
  8230.000000   1958501   1957883   1956921   1955482   1953515  
  8220.000000   1951074   1948339   1945597   1943182   1941396  
  8210.000000   1940417   1940237   1940658   1941345   1941931  
  8200.000000   1942122   1941782   1940960   1939858   1938749  
  8190.000000   1937866   1937309   1937018   1936805   1936438  
  8180.000000   1935736   1934645   1933245   1931721   1930263  
  8170.000000   1929007   1927956   1926990   1925917   1924544  
  8160.000000   1922776   1920631   1918248   1915821   1913537  
  8150.000000   1911523   1909818   1908394   1907205   1906221  
  8140.000000   1905458   1904954   1904736   1904778   1904982  
  8130.000000   1905189   1905236   1904994   1904431   1903600  
  8120.000000   1902639   1901692   1900878   1900235   1899723  
  8110.000000   1899252   1898719   1898065   1897283   1896433  
  8100.000000   1895596   1894861   1894273   1893836   1893497  
  8090.000000   1893175   1892772   1892198   1891383   1890293  
  8080.000000   1888935   1887362   1885673   1883998   1882475  
  8070.000000   1881205   1880237   1879534   1878992   1878464  
  8060.000000   1877811   1876956   1875911   1874791   1873770  
  8050.000000   1873034   1872713   1872835   1873320   1873999  
  8040.000000   1874668   1875144   1875308   1875122   1874616  
  8030.000000   1873863   1872936   1871893   1870765   1869572  
  8020.000000   1868338   1867096   1865886   1864736   1863643  
  8010.000000   1862563   1861424   1860157   1858731   1857182  
  8000.000000   1855616   1854186   1853040   1852275   1851896  
  7990.000000   1851819   1851893   1851958   1851896   1851668  
  7980.000000   1851320   1850942   1850634   1850431   1850302  
  7970.000000   1850128   1849770   1849096   1848060   1846708  
  7960.000000   1845186   1843700   1842462   1841644   1841331  
  7950.000000   1841525   1842136   1843036   1844068   1845094  
  7940.000000   1846004   1846722   1847204   1847428   1847390  
  7930.000000   1847096   1846573   1845855   1845000   1844076  
  7920.000000   1843156   1842312   1841594   1841032   1840624  
  7910.000000   1840348   1840166   1840034   1839915   1839774  
  7900.000000   1839588   1839331   1838989   1838561   1838073  
  7890.000000   1837587   1837207   1837051   1837231   1837806  
  7880.000000   1838748   1839932   1841150   1842167   1842782  
  7870.000000   1842887   1842508   1841787   1840941   1840196  
  7860.000000   1839707   1839533   1839615   1839829   1840027  
  7850.000000   1840109   1840034   1839844   1839608   1839399  
  7840.000000   1839238   1839088   1838859   1838437   1837738  
  7830.000000   1836726   1835449   1834021   1832606   1831377  
  7820.000000   1830475   1829976   1829870   1830064   1830403  
  7810.000000   1830712   1830841   1830710   1830327   1829783  
  7800.000000   1829217   1828769   1828524   1828489   1828593  
  7790.000000   1828719   1828744   1828593   1828249   1827750  
  7780.000000   1827157   1826515   1825826   1825049   1824121  
  7770.000000   1822998   1821688   1820266   1818854   1817594  
  7760.000000   1816592   1815896   1815473   1815239   1815080  
  7750.000000   1814891   1814611   1814215   1813729   1813187  
  7740.000000   1812629   1812079   1811544   1811020   1810503  
  7730.000000   1809997   1809524   1809119   1808829   1808697  
  7720.000000   1808749   1808967   1809290   1809602   1809762  
  7710.000000   1809631   1809123   1808228   1807037   1805725  
  7700.000000   1804507   1803586   1803086   1803025   1803307  
  7690.000000   1803758   1804179   1804404   1804347   1804007  
  7680.000000   1803455   1802784   1802076   1801366   1800650  
  7670.000000   1799898   1799092   1798252   1797439   1796756  
  7660.000000   1796299   1796144   1796294   1796687   1797190  
  7650.000000   1797642   1797885   1797799   1797338   1796522  
  7640.000000   1795446   1794236   1793040   1791970   1791104  
  7630.000000   1790448   1789955   1789540   1789111   1788607  
  7620.000000   1788019   1787398   1786844   1786474   1786384  
  7610.000000   1786612   1787125   1787810   1788523   1789109  
  7600.000000   1789471   1789570   1789449   1789199   1788932  
  7590.000000   1788746   1788697   1788793   1789002   1789269  
  7580.000000   1789541   1789780   1789963   1790084   1790144  
  7570.000000   1790149   1790106   1790029   1789933   1789838  
  7560.000000   1789759   1789699   1789657   1789624   1789599  
  7550.000000   1789590   1789626   1789736   1789945   1790250  
  7540.000000   1790619   1790985   1791283   1791460   1791514  
  7530.000000   1791488   1791475   1791573   1791865   1792383  
  7520.000000   1793104   1793956   1794854   1795713   1796491  
  7510.000000   1797174   1797784   1798345   1798877   1799381  
  7500.000000   1799849   1800268   1800649   1801021   1801440  
  7490.000000   1801966   1802649   1803505   1804510   1805599  
  7480.000000   1806684   1807683   1808543   1809265   1809905  
  7470.000000   1810564   1811356   1812366   1813625   1815081  
  7460.000000   1816622   1818092   1819345   1820286   1820909  
  7450.000000   1821285   1821548   1821844   1822300   1822987  
  7440.000000   1823919   1825065   1826373   1827799   1829313  
  7430.000000   1830896   1832525   1834164   1835759   1837250  
  7420.000000   1838595   1839777   1840828   1841805   1842787  
  7410.000000   1843836   1844984   1846225   1847522   1848831  
  7400.000000   1850109   1851344   1852548   1853758   1855021  
  7390.000000   1856378   1857850   1859427   1861067   1862697  
  7380.000000   1864233   1865601   1866765   1867745   1868617  
  7370.000000   1869498   1870515   1871764   1873271   1874984  
  7360.000000   1876786   1878530   1880091   1881402   1882478  
  7350.000000   1883408   1884315   1885316   1886480   1887810  
  7340.000000   1889255   1890734   1892170   1893518   1894768  
  7330.000000   1895944   1897081   1898216   1899377   1900583  
  7320.000000   1901838   1903138   1904467   1905791   1907063  
  7310.000000   1908227   1909237   1910070   1910743   1911314  
  7300.000000   1911868   1912500   1913282   1914251   1915392  
  7290.000000   1916652   1917949   1919208   1920369   1921409  
  7280.000000   1922333   1923177   1923985   1924793   1925627  
  7270.000000   1926482   1927339   1928160   1928916   1929590  
  7260.000000   1930190   1930750   1931327   1931982   1932771  
  7250.000000   1933726   1934859   1936148   1937565   1939056  
  7240.000000   1940583   1942099   1943589   1945037   1946463  
  7230.000000   1947883   1949346   1950883   1952537   1954311  
  7220.000000   1956209   1958198   1960261   1962378   1964566  
  7210.000000   1966857   1969311   1971970   1974857   1977944  
  7200.000000   1981167   1984431   1987657   1990787   1993822  
  7190.000000   1996794   1999777   2002824   2005976   2009215  
  7180.000000   2012496   2015738   2018876   2021862   2024705  
  7170.000000   2027443   2030162   2032952   2035905   2039069  
  7160.000000   2042463   2046049   2049776   2053572   2057395  
  7150.000000   2061218   2065060   2068951   2072948   2077076  
  7140.000000   2081358   2085767   2090282   2094863   2099512  
  7130.000000   2104232   2109063   2114022   2119126   2124345  
  7120.000000   2129648   2134978   2140322   2145676   2151089  
  7110.000000   2156600   2162253   2168039   2173925   2179842  
  7100.000000   2185738   2191576   2197373   2203168   2209019  
  7090.000000   2214964   2221010   2227131   2233286   2239433  
  7080.000000   2245552   2251634   2257685   2263697   2269652  
  7070.000000   2275516   2281262   2286886   2292419   2297919  
  7060.000000   2303457   2309084   2314817   2320635   2326486  
  7050.000000   2332310   2338061   2343713   2349261   2354714  
  7040.000000   2360082   2365386   2370656   2375948   2381333  
  7030.000000   2386892   2392672   2398675   2404824   2410993  
  7020.000000   2417020   2422769   2428156   2433183   2437914  
  7010.000000   2442459   2446919   2451373   2455852   2460365  
  7000.000000   2464891   2469422   2473935   2478423   2482854  
  6990.000000   2487198   2491404   2495449   2499313   2503021  
  6980.000000   2506600   2510091   2513505   2516843   2520076  
  6970.000000   2523190   2526179   2529084   2531952   2534847  
  6960.000000   2537795   2540800   2543805   2546745   2549546  
  6950.000000   2552170   2554608   2556899   2559091   2561243  
  6940.000000   2563386   2565538   2567680   2569789   2571824  
  6930.000000   2573763   2575582   2577289   2578901   2580462  
  6920.000000   2582011   2583590   2585204   2586839   2588443  
  6910.000000   2589959   2591332   2592541   2593599   2594556  
  6900.000000   2595469   2596393   2597351   2598340   2599335  
  6890.000000   2600313   2601255   2602168   2603064   2603962  
  6880.000000   2604868   2605781   2606694   2607609   2608534  
  6870.000000   2609487   2610477   2611494   2612507   2613470  
  6860.000000   2614341   2615109   2615799   2616474   2617207  
  6850.000000   2618054   2619026   2620096   2621197   2622265  
  6840.000000   2623254   2624160   2625002   2625810   2626593  
  6830.000000   2627330   2627967   2628450   2628734   2628822  
  6820.000000   2628751   2628593   2628421   2628295   2628242  
  6810.000000   2628262   2628335   2628440   2628554   2628669  
  6800.000000   2628776   2628870   2628949   2629012   2629063  
  6790.000000   2629115   2629177   2629258   2629352   2629448  
  6780.000000   2629528   2629578   2629595   2629590   2629576  
  6770.000000   2629567   2629565   2629559   2629532   2629472  
  6760.000000   2629371   2629236   2629080   2628914   2628748  
  6750.000000   2628579   2628409   2628237   2628073   2627926  
  6740.000000   2627805   2627711   2627637   2627573   2627521  
  6730.000000   2627496   2627528   2627655   2627892   2628230  
  6720.000000   2628622   2629002   2629301   2629479   2629531  
  6710.000000   2629488   2629389   2629267   2629120   2628922  
  6700.000000   2628629   2628214   2627676   2627053   2626399  
  6690.000000   2625770   2625187   2624645   2624102   2623520  
  6680.000000   2622869   2622155   2621401   2620648   2619920  
  6670.000000   2619223   2618537   2617835   2617091   2616301  
  6660.000000   2615471   2614622   2613769   2612917   2612060  
  6650.000000   2611188   2610291   2609373   2608431   2607471  
  6640.000000   2606484   2605461   2604386   2603260   2602088  
  6630.000000   2600897   2599702   2598513   2597316   2596079  
  6620.000000   2594766   2593355   2591843   2590258   2588636  
  6610.000000   2587014   2585404   2583805   2582199   2580582  
  6600.000000   2578963   2577376   2575856   2574426   2573076  
  6590.000000   2571764   2570424   2568998   2567457   2565806  
  6580.000000   2564087   2562351   2560637   2558959   2557307  
  6570.000000   2555661   2554007   2552355   2550735   2549185  
  6560.000000   2547732   2546380   2545105   2543864   2542614  
  6550.000000   2541323   2539979   2538587   2537163   2535718  
  6540.000000   2534268   2532822   2531399   2530018   2528700  
  6530.000000   2527457   2526283   2525151   2524021   2522853  
  6520.000000   2521621   2520317   2518956   2517564   2516168  
  6510.000000   2514784   2513421   2512085   2510782   2509522  
  6500.000000   2508319   2507179   2506093   2505038   2503979  
  6490.000000   2502886   2501741   2500550   2499339   2498139  
  6480.000000   2496974   2495848   2494745   2493631   2492474  
  6470.000000   2491247   2489946   2488581   2487175   2485755  
  6460.000000   2484347   2482973   2481649   2480389   2479203  
  6450.000000   2478099   2477081   2476147   2475295   2474521  
  6440.000000   2473816   2473169   2472557   2471948   2471310  
  6430.000000   2470607   2469826   2468972   2468078   2467186  
  6420.000000   2466342   2465566   2464857   2464185   2463516  
  6410.000000   2462822   2462105   2461389   2460722   2460146  
  6400.000000   2459690   2459352   2459104   2458899   2458696  
  6390.000000   2458460   2458183   2457867   2457530   2457190  
  6380.000000   2456865   2456567   2456307   2456091   2455917  
  6370.000000   2455774   2455641   2455491   2455298   2455045  
  6360.000000   2454728   2454356   2453945   2453508   2453048  
  6350.000000   2452559   2452029   2451451   2450827   2450176  
  6340.000000   2449522   2448895   2448311   2447781   2447294  
  6330.000000   2446839   2446389   2445926   2445424   2444862  
  6320.000000   2444217   2443478   2442642   2441726   2440759  
  6310.000000   2439784   2438831   2437921   2437049   2436194  
  6300.000000   2435322   2434408   2433437   2432418   2431365  
  6290.000000   2430302   2429241   2428188   2427132   2426063  
  6280.000000   2424968   2423842   2422679   2421481   2420244  
  6270.000000   2418969   2417655   2416308   2414932   2413534  
  6260.000000   2412113   2410663   2409169   2407623   2406020  
  6250.000000   2404374   2402712   2401066   2399461   2397910  
  6240.000000   2396403   2394924   2393454   2391988   2390532  
  6230.000000   2389105   2387719   2386376   2385057   2383729  
  6220.000000   2382361   2380931   2379441   2377911   2376374  
  6210.000000   2374858   2373380   2371942   2370540   2369165  
  6200.000000   2367818   2366506   2365241   2364029   2362871  
  6190.000000   2361760   2360688   2359648   2358640   2357659  
  6180.000000   2356698   2355735   2354743   2353692   2352571  
  6170.000000   2351391   2350189   2349016   2347918   2346920  
  6160.000000   2346016   2345173   2344348   2343505   2342628  
  6150.000000   2341718   2340795   2339874   2338960   2338047  
  6140.000000   2337127   2336197   2335272   2334374   2333531  
  6130.000000   2332757   2332047   2331375   2330710   2330024  
  6120.000000   2329311   2328583   2327875   2327213   2326622  
  6110.000000   2326104   2325654   2325259   2324916   2324624  
  6100.000000   2324394   2324222   2324109   2324035   2323987  
  6090.000000   2323950   2323927   2323928   2323971   2324062  
  6080.000000   2324204   2324376   2324567   2324760   2324967  
  6070.000000   2325204   2325507   2325895   2326386   2326966  
  6060.000000   2327620   2328320   2329060   2329832   2330659  
  6050.000000   2331552   2332540   2333627   2334827   2336135  
  6040.000000   2337559   2339092   2340737   2342476   2344299  
  6030.000000   2346177   2348102   2350060   2352062   2354110  
  6020.000000   2356216   2358366   2360544   2362709   2364838  
  6010.000000   2366911   2368945   2370964   2373014   2375126  
  6000.000000   2377321   2379590   2381922   2384290   2386689  
  5990.000000   2389114   2391579   2394089   2396651   2399256  
  5980.000000   2401900   2404572   2407284   2410038   2412851  
  5970.000000   2415712   2418612   2421518   2424412   2427280  
  5960.000000   2430149   2433053   2436045   2439154   2442392  
  5950.000000   2445731   2449130   2452544   2455951   2459355  
  5940.000000   2462782   2466270   2469841   2473498   2477216  
  5930.000000   2480959   2484686   2488372   2491998   2495558  
  5920.000000   2499031   2502392   2505602   2508625   2511432  
  5910.000000   2514022   2516411   2518635   2520732   2522745  
  5900.000000   2524703   2526644   2528597   2530607   2532702  
  5890.000000   2534910   2537226   2539635   2542089   2544549  
  5880.000000   2546973   2549338   2551635   2553857   2556002  
  5870.000000   2558054   2560001   2561833   2563560   2565210  
  5860.000000   2566826   2568453   2570127   2571864   2573669  
  5850.000000   2575539   2577480   2579501   2581620   2583844  
  5840.000000   2586166   2588555   2590973   2593382   2595769  
  5830.000000   2598144   2600549   2603022   2605595   2608261  
  5820.000000   2610988   2613719   2616403   2619009   2621537  
  5810.000000   2624013   2626472   2628949   2631453   2633992  
  5800.000000   2636540   2639101   2641650   2644200   2646721  
  5790.000000   2649209   2651595   2653829   2655807   2657450  
  5780.000000   2658647   2659325   2659408   2658874   2657723  
  5770.000000   2656028   2653893   2651482   2648946   2646445  
  5760.000000   2644072   2641891   2639889   2638053   2636339  
  5750.000000   2634737   2633236   2631851   2630583   2629426  
  5740.000000   2628354   2627333   2626333   2625331   2624328  
  5730.000000   2623324   2622334   2621356   2620393   2619436  
  5720.000000   2618491   2617568   2616687   2615862   2615097  
  5710.000000   2614378   2613682   2612981   2612259   2611519  
  5700.000000   2610780   2610065   2609393   2608767   2608171  
  5690.000000   2607593   2607015   2606447   2605900   2605400  
  5680.000000   2604951   2604544   2604132   2603663   2603067  
  5670.000000   2602294   2601296   2600057   2598561   2596811  
  5660.000000   2594815   2592601   2590214   2587723   2585203  
  5650.000000   2582734   2580367   2578132   2576019   2574006  
  5640.000000   2572061   2570164   2568314   2566521   2564807  
  5630.000000   2563184   2561658   2560220   2558861   2557566  
  5620.000000   2556330   2555141   2554003   2552903   2551842  
  5610.000000   2550811   2549817   2548865   2547972   2547146  
  5600.000000   2546393   2545703   2545066   2544464   2543888  
  5590.000000   2543331   2542794   2542274   2541763   2541243  
  5580.000000   2540691   2540091   2539437   2538738   2538010  
  5570.000000   2537273   2536532   2535783   2535007   2534186  
  5560.000000   2533311   2532387   2531432   2530472   2529524  
  5550.000000   2528594   2527673   2526746   2525803   2524847  
  5540.000000   2523893   2522963   2522077   2521243   2520453  
  5530.000000   2519687   2518917   2518123   2517287   2516404  
  5520.000000   2515479   2514524   2513556   2512598   2511668  
  5510.000000   2510785   2509948   2509144   2508340   2507496  
  5500.000000   2506574   2505557   2504451   2503287   2502105  
  5490.000000   2500942   2499807   2498693   2497564   2496392  
  5480.000000   2495154   2493855   2492510   2491149   2489786  
  5470.000000   2488426   2487053   2485651   2484201   2482704  
  5460.000000   2481164   2479596   2478001   2476377   2474714  
  5450.000000   2473005   2471256   2469489   2467738   2466037  
  5440.000000   2464406   2462848   2461352   2459899   2458480  
  5430.000000   2457086   2455723   2454383   2453057   2451723  
  5420.000000   2450371   2449000   2447648   2446370   2445243  
  5410.000000   2444317   2443622   2443128   2442797   2442564  
  5400.000000   2442403   2442290   2442250   2442296   2442456  
  5390.000000   2442720   2443092   2443545   2444099   2444762  
  5380.000000   2445588   2446598   2447827   2449244   2450830  
  5370.000000   2452520   2454296   2456126   2458049   2460075  
  5360.000000   2462274   2464652   2467270   2470115   2473245  
  5350.000000   2476656   2480420   2484533   2489061   2493972  
  5340.000000   2499312   2505035   2511196   2517759   2524791  
  5330.000000   2532245   2540169   2548486   2557233   2566347  
  5320.000000   2575916   2585940   2596570   2607827   2619859  
  5310.000000   2632635   2646234   2660563   2675665   2691449  
  5300.000000   2707987   2725230   2743296   2762170   2781975  
  5290.000000   2802677   2824338   2846842   2870150   2894083  
  5280.000000   2918581   2943526   2968969   2994929   3021551  
  5270.000000   3048882   3076963   3105671   3134829   3164181  
  5260.000000   3193516   3222711   3251745   3280698   3309635  
  5250.000000   3338598   3367471   3396101   3424195   3451573  
  5240.000000   3478035   3503610   3528303   3552309   3575686  
  5230.000000   3598585   3620943   3642767   3663869   3684202  
  5220.000000   3703605   3722132   3739749   3756630   3772814  
  5210.000000   3788480   3803594   3818214   3832172   3845432  
  5200.000000   3857813   3869347   3879970   3889830   3898938  
  5190.000000   3907441   3915301   3922585   3929193   3935167  
  5180.000000   3940429   3945070   3949058   3952500   3955351  
  5170.000000   3957681   3959427   3960650   3961313   3961507  
  5160.000000   3961214   3960514   3959359   3957784   3955727  
  5150.000000   3953233   3950286   3946982   3943346   3939472  
  5140.000000   3935354   3931032   3926459   3921657   3916602  
  5130.000000   3911351   3905921   3900379   3894733   3889010  
  5120.000000   3883186   3877265   3871233   3865119   3858941  
  5110.000000   3852746   3846556   3840395   3834264   3828167  
  5100.000000   3822098   3816065   3810069   3804121   3798220  
  5090.000000   3792363   3786539   3780747   3774984   3769261  
  5080.000000   3763585   3757964   3752391   3746851   3741313  
  5070.000000   3735752   3730138   3724461   3718710   3712890  
  5060.000000   3706997   3701039   3695012   3688924   3682771  
  5050.000000   3676566   3670306   3663998   3657632   3651205  
  5040.000000   3644701   3638122   3631467   3624752   3617990  
  5030.000000   3611202   3604397   3597583   3590762   3583939  
  5020.000000   3577126   3570341   3563616   3556978   3550461  
  5010.000000   3544083   3537861   3531788   3525866   3520071  
  5000.000000   3514400   3508830   3503369   3498004   3492766  
  4990.000000   3487660   3482739   3478014   3473543   3469326  
  4980.000000   3465402   3461749   3458391   3455296   3452491  
  4970.000000   3449949   3447707   3445741   3444082   3442696  
  4960.000000   3441607   3440776   3440239   3439974   3440040  
  4950.000000   3440433   3441216   3442370   3443937   3445871  
  4940.000000   3448190   3450838   3453839   3457147   3460800  
  4930.000000   3464767   3469092   3473747   3478777   3484151  
  4920.000000   3489908   3496015   3502498   3509317   3516485  
  4910.000000   3523961   3531755   3539833   3548203   3556834  
  4900.000000   3565717   3574806   3584066   3593442   3602884  
  4890.000000   3612342   3621767   3631124   3640358   3649436  
  4880.000000   3658290   3666890   3675163   3683087   3690589  
  4870.000000   3697658   3704222   3710278   3715765   3720705  
  4860.000000   3725067   3728911   3732238   3735123   3737570  
  4850.000000   3739642   3741328   3742676   3743676   3744387  
  4840.000000   3744828   3745075   3745169   3745189   3745171  
  4830.000000   3745175   3745222   3745346   3745555   3745864  
  4820.000000   3746270   3746771   3747359   3748024   3748761  
  4810.000000   3749559   3750417   3751326   3752286   3753289  
  4800.000000   3754340   3755437   3756598   3757831   3759162  
  4790.000000   3760597   3762149   3763812   3765577   3767423  
  4780.000000   3769336   3771300   3773307   3775347   3777414  
  4770.000000   3779496   3781580   3783649   3785691   3787695  
  4760.000000   3789654   3791566   3793426   3795232   3796975  
  4750.000000   3798653   3800260   3801803   3803290   3804737  
  4740.000000   3806155   3807558   3808947   3810322   3811677  
  4730.000000   3813003   3814289   3815523   3816697   3817800  
  4720.000000   3818831   3819792   3820705   3821594   3822505  
  4710.000000   3823477   3824559   3825781   3827170   3828732  
  4700.000000   3830473   3832385   3834467   3836710   3839112  
  4690.000000   3841663   3844356   3847171   3850094   3853091  
  4680.000000   3856140   3859194   3862222   3865173   3868020  
  4670.000000   3870725   3873292   3875723   3878063   3880356  
  4660.000000   3882673   3885074   3887628   3890384   3893383  
  4650.000000   3896648   3900186   3903984   3908007   3912209  
  4640.000000   3916523   3920888   3925238   3929527   3933715  
  4630.000000   3937783   3941712   3945496   3949110   3952542  
  4620.000000   3955757   3958735   3961441   3963871   3966002  
  4610.000000   3967856   3969433   3970780   3971917   3972905  
  4600.000000   3973766   3974554   3975272   3975949   3976558  
  4590.000000   3977101   3977534   3977847   3977994   3977962  
  4580.000000   3977707   3977217   3976454   3975417   3974093  
  4570.000000   3972511   3970695   3968705   3966584   3964396  
  4560.000000   3962170   3959942   3957710   3955484   3953245  
  4550.000000   3950997   3948725   3946437   3944124   3941793  
  4540.000000   3939437   3937053   3934638   3932189   3929712  
  4530.000000   3927207   3924685   3922144   3919598   3917042  
  4520.000000   3914500   3911973   3909500   3907092   3904806  
  4510.000000   3902655   3900709   3898980   3897548   3896427  
  4500.000000   3895706   3895395   3895586   3896277   3897556  
  4490.000000   3899407   3901917   3905060   3908920   3913461  
  4480.000000   3918754   3924744   3931482   3938902   3947043  
  4470.000000   3955834   3965308   3975387   3986085   3997310  
  4460.000000   4009052   4021207   4033755   4046599   4059718  
  4450.000000   4073033   4086526   4100135   4113846   4127615  
  4440.000000   4141429   4155265   4169110   4182956   4196779  
  4430.000000   4210573   4224296   4237937   4251431   4264759  
  4420.000000   4277836   4290641   4303077   4315120   4326672  
  4410.000000   4337708   4348133   4357929   4367017   4375405  
  4400.000000   4383059   4390038   4396371   4402174   4407524  
  4390.000000   4412567   4417388   4422115   4426803   4431532  
  4380.000000   4436314   4441185   4446131   4451175   4456314  
  4370.000000   4461583   4466996   4472590   4478372   4484346  
  4360.000000   4490480   4496740   4503052   4509373   4515607  
  4350.000000   4521729   4527641   4533355   4538801   4544048  
  4340.000000   4549074   4553971   4558686   4563176   4567181  
  4330.000000   4570374   4572250   4572335   4570198   4565669  
  4320.000000   4558841   4550156   4540274   4530005   4520091  
  4310.000000   4511145   4503501   4497286   4492400   4488665  
  4300.000000   4485858   4483800   4482365   4481459   4481037  
  4290.000000   4481021   4481379   4482027   4482958   4484126  
  4280.000000   4485553   4487223   4489139   4491275   4493593  
  4270.000000   4496058   4498613   4501206   4503721   4506004  
  4260.000000   4507802   4508825   4508753   4507341   4504457  
  4250.000000   4500165   4494690   4488426   4481800   4475257  
  4240.000000   4469109   4463576   4458692   4454417   4450608  
  4230.000000   4447132   4443846   4440647   4437465   4434249  
  4220.000000   4430994   4427693   4424406   4421178   4418130  
  4210.000000   4415341   4412933   4410952   4409453   4408402  
  4200.000000   4407772   4407477   4407462   4407641   4407987  
  4190.000000   4408448   4409036   4409722   4410541   4411467  
  4180.000000   4412534   4413708   4415011   4416409   4417934  
  4170.000000   4419574   4421395   4423420   4425746   4428406  
  4160.000000   4431487   4434990   4438959   4443350   4448174  
  4150.000000   4453372   4458961   4464892   4471210   4477883  
  4140.000000   4484972   4492453   4500388   4508745   4517576  
  4130.000000   4526836   4536565   4546709   4557306   4568311  
  4120.000000   4579775   4591672   4604064   4616940   4630356  
  4110.000000   4644293   4658782   4673778   4689274   4705189  
  4100.000000   4721481   4738050   4754839   4771769   4788802  
  4090.000000   4805902   4823057   4840260   4857500   4874778  
  4080.000000   4892069   4909375   4926652   4943895   4961023  
  4070.000000   4977995   4994682   5011017   5026856   5042162  
  4060.000000   5056837   5070907   5084319   5097134   5109308  
  4050.000000   5120915   5131918   5142415   5152385   5161932  
  4040.000000   5171002   5179652   5187766   5195360   5202312  
  4030.000000   5208666   5214349   5219439   5223885   5227738  
  4020.000000   5230900   5233403   5235204   5236364   5236847  
  4010.000000   5236786   5236263   5235308   5233734   5231593  
  4000.000000   5229162  
##END= 
