##TITLE= Sample 005 By ssteindl date Donnerstag, November 22 2018
##JCAMP-DX= 4.24
##DATA TYPE= INFRARED SPECTRUM
##ORIGIN= Exported PE Spectrum Data File
##OWNER= Sandra Steindl
##DATE= 18/11/22
##TIME= 10:13:21.00
##SPECTROMETER/DATA SYSTEM= PERKIN-ELMER Frontier FT-IR/NIR IR
##INSTRUMENT PARAMETERS=
  APODIZATION=stark
  DETECTOR=INGAAS
##RESOLUTION= 16.000000
##DELTAX= -2.000000
##XUNITS= 1/CM
##YUNITS= A
##XFACTOR= 1.00
##YFACTOR= 0.00000011920928955078
##FIRSTX= 10000.00
##LASTX= 4000.00
##NPOINTS= 3001
##FIRSTY= 0.267464
##MAXY= 0.588280
##MINY= 0.194262
##XYDATA= (X++(Y..Y))
 10000.000000   2243648   2235481   2226516   2216080   2205122  
  9990.000000   2195110   2186783   2179896   2174205   2169500  
  9980.000000   2165521   2161925   2158691   2156006   2154154  
  9970.000000   2153382   2153960   2156015   2159517   2164184  
  9960.000000   2169565   2174994   2179772   2183206   2184818  
  9950.000000   2184411   2182186   2178656   2174562   2170617  
  9940.000000   2167367   2165010   2163405   2162115   2160563  
  9930.000000   2158250   2154883   2150574   2145732   2141079  
  9920.000000   2137348   2135178   2134890   2136447   2139492  
  9910.000000   2143409   2147473   2150909   2153008   2153200  
  9900.000000   2151206   2147117   2141508   2135328   2129746  
  9890.000000   2125827   2124208   2124883   2127126   2129769  
  9880.000000   2131539   2131599   2129785   2126702   2123388  
  9870.000000   2120853   2119642   2119564   2119900   2119657  
  9860.000000   2118128   2115070   2110826   2106089   2101578  
  9850.000000   2097836   2095069   2093327   2092622   2093115  
  9840.000000   2095038   2098520   2103319   2108675   2113407  
  9830.000000   2116238   2116280   2113349   2108123   2101828  
  9820.000000   2095838   2091119   2087998   2086154   2084940  
  9810.000000   2083779   2082436   2081086   2080097   2079789  
  9800.000000   2080182   2081008   2081821   2082263   2082228  
  9790.000000   2081902   2081657   2081831   2082587   2083857  
  9780.000000   2085409   2087012   2088494   2089778   2090769  
  9770.000000   2091265   2090951   2089498   2086767   2082942  
  9760.000000   2078534   2074218   2070550   2067746   2065609  
  9750.000000   2063675   2061496   2058931   2056235   2053993  
  9740.000000   2052760   2052811   2053913   2055445   2056686  
  9730.000000   2057145   2056829   2056136   2055654   2055702  
  9720.000000   2056171   2056437   2055726   2053452   2049611  
  9710.000000   2044835   2040191   2036797   2035336   2035917  
  9700.000000   2038016   2040876   2043786   2046394   2048709  
  9690.000000   2050887   2052980   2054686   2055436   2054559  
  9680.000000   2051673   2046859   2040752   2034332   2028642  
  9670.000000   2024520   2022380   2022268   2023863   2026716  
  9660.000000   2030275   2034017   2037407   2039936   2041166  
  9650.000000   2040821   2038910   2035733   2031859   2027910  
  9640.000000   2024422   2021681   2019710   2018375   2017447  
  9630.000000   2016792   2016306   2015974   2015717   2015400  
  9620.000000   2014820   2013742   2012048   2009688   2006801  
  9610.000000   2003503   1999937   1996114   1992030   1987745  
  9600.000000   1983494   1979775   1977226   1976523   1978116  
  9590.000000   1982108   1988154   1995504   2003138   2009934  
  9580.000000   2014926   2017419   2017193   2014442   2009834  
  9570.000000   2004308   1998964   1994790   1992432   1992071  
  9560.000000   1993331   1995524   1997785   1999485   2000291  
  9550.000000   2000333   1999963   1999592   1999414   1999276  
  9540.000000   1998795   1997448   1994926   1991181   1986559  
  9530.000000   1981623   1976988   1973152   1970344   1968621  
  9520.000000   1967912   1968213   1969576   1972078   1975632  
  9510.000000   1979903   1984244   1987853   1989989   1990195  
  9500.000000   1988525   1985461   1981866   1978587   1976239  
  9490.000000   1974947   1974320   1973693   1972345   1969947  
  9480.000000   1966614   1963018   1960059   1958635   1959256  
  9470.000000   1961844   1965693   1969588   1972190   1972325  
  9460.000000   1969401   1963503   1955445   1946518   1938205  
  9450.000000   1931803   1928180   1927605   1929774   1933912  
  9440.000000   1938975   1943888   1947729   1949949   1950409  
  9430.000000   1949428   1947645   1945851   1944781   1944879  
  9420.000000   1946222   1948448   1950927   1952920   1953811  
  9410.000000   1953258   1951209   1947916   1943747   1939159  
  9400.000000   1934530   1930202   1926449   1923539   1921671  
  9390.000000   1920935   1921174   1921984   1922732   1922737  
  9380.000000   1921464   1918686   1914610   1909772   1904926  
  9370.000000   1900719   1897541   1895392   1893992   1892938  
  9360.000000   1891929   1890884   1889968   1889489   1889701  
  9350.000000   1890662   1892149   1893724   1894925   1895402  
  9340.000000   1895115   1894254   1893207   1892320   1891776  
  9330.000000   1891514   1891295   1890859   1890093   1889128  
  9320.000000   1888296   1888019   1888565   1889923   1891710  
  9310.000000   1893325   1894177   1893911   1892594   1890654  
  9300.000000   1888739   1887404   1886861   1886893   1886944  
  9290.000000   1886430   1885018   1882845   1880481   1878761  
  9280.000000   1878389   1879642   1882129   1884975   1887105  
  9270.000000   1887676   1886352   1883401   1879574   1875768  
  9260.000000   1872697   1870611   1869301   1868220   1866790  
  9250.000000   1864599   1861562   1857910   1854099   1850663  
  9240.000000   1848038   1846533   1846268   1847233   1849240  
  9230.000000   1851972   1854972   1857745   1859842   1860977  
  9220.000000   1861108   1860417   1859247   1857876   1856433  
  9210.000000   1854764   1852579   1849540   1845483   1840534  
  9200.000000   1835135   1829960   1825678   1822806   1821523  
  9190.000000   1821722   1823034   1824988   1827129   1829076  
  9180.000000   1830615   1831606   1832046   1831954   1831460  
  9170.000000   1830697   1829856   1829066   1828437   1828026  
  9160.000000   1827900   1828182   1829021   1830602   1832977  
  9150.000000   1836071   1839558   1842965   1845753   1847508  
  9140.000000   1848088   1847621   1846433   1844845   1843028  
  9130.000000   1840936   1838371   1835165   1831368   1827368  
  9120.000000   1823802   1821367   1820482   1821164   1822939  
  9110.000000   1825044   1826672   1827293   1826821   1825593  
  9100.000000   1824162   1823037   1822474   1822425   1822618  
  9090.000000   1822734   1822580   1822162   1821645   1821187  
  9080.000000   1820812   1820348   1819509   1817987   1815636  
  9070.000000   1812513   1808937   1805325   1802083   1799484  
  9060.000000   1797643   1796606   1796372   1797006   1798566  
  9050.000000   1801120   1804605   1808789   1813225   1817362  
  9040.000000   1820675   1822756   1823409   1822621   1820601  
  9030.000000   1817630   1814032   1810093   1806076   1802208  
  9020.000000   1798660   1795583   1793062   1791169   1789887  
  9010.000000   1789171   1788896   1788936   1789120   1789296  
  9000.000000   1789320   1789100   1788645   1788017   1787368  
  8990.000000   1786801   1786411   1786142   1785873   1785359  
  8980.000000   1784383   1782789   1780584   1777959   1775260  
  8970.000000   1772947   1771476   1771218   1772354   1774843  
  8960.000000   1778400   1782539   1786642   1790077   1792337  
  8950.000000   1793157   1792569   1790885   1788600   1786259  
  8940.000000   1784315   1783025   1782411   1782317   1782485  
  8930.000000   1782648   1782573   1782089   1781084   1779487  
  8920.000000   1777279   1774515   1771373   1768152   1765233  
  8910.000000   1763001   1761741   1761591   1762492   1764262  
  8900.000000   1766619   1769305   1772088   1774774   1777164  
  8890.000000   1779019   1780112   1780216   1779247   1777245  
  8880.000000   1774463   1771245   1767973   1764959   1762406  
  8870.000000   1760426   1759050   1758339   1758367   1759217  
  8860.000000   1760861   1763124   1765657   1767998   1769709  
  8850.000000   1770477   1770263   1769274   1767932   1766687  
  8840.000000   1765891   1765698   1766062   1766817   1767753  
  8830.000000   1768719   1769642   1770532   1771415   1772281  
  8820.000000   1773036   1773518   1773541   1772959   1771744  
  8810.000000   1770005   1768006   1766110   1764709   1764111  
  8800.000000   1764444   1765611   1767279   1768978   1770222  
  8790.000000   1770674   1770265   1769222   1768001   1767109  
  8780.000000   1766921   1767534   1768747   1770138   1771250  
  8770.000000   1771754   1771585   1770930   1770133   1769527  
  8760.000000   1769301   1769437   1769755   1770022   1770077  
  8750.000000   1769897   1769604   1769403   1769488   1769970  
  8740.000000   1770849   1772027   1773366   1774711   1775919  
  8730.000000   1776839   1777335   1777307   1776747   1775803  
  8720.000000   1774762   1774027   1773961   1774788   1776454  
  8710.000000   1778651   1780871   1782597   1783463   1783354  
  8700.000000   1782420   1780954   1779261   1777525   1775782  
  8690.000000   1773956   1771989   1769926   1767980   1766463  
  8680.000000   1765680   1765799   1766768   1768332   1770121  
  8670.000000   1771786   1773130   1774128   1774913   1775656  
  8660.000000   1776505   1777505   1778625   1779799   1781000  
  8650.000000   1782262   1783672   1785302   1787146   1789075  
  8640.000000   1790846   1792180   1792868   1792839   1792210  
  8630.000000   1791233   1790236   1789506   1789210   1789373  
  8620.000000   1789887   1790617   1791446   1792368   1793444  
  8610.000000   1794801   1796511   1798551   1800741   1802790  
  8600.000000   1804365   1805183   1805115   1804209   1802706  
  8590.000000   1800940   1799246   1797867   1796903   1796324  
  8580.000000   1796015   1795868   1795820   1795897   1796153  
  8570.000000   1796639   1797348   1798198   1799062   1799793  
  8560.000000   1800314   1800600   1800715   1800746   1800785  
  8550.000000   1800893   1801105   1801461   1802024   1802884  
  8540.000000   1804128   1805779   1807752   1809831   1811718  
  8530.000000   1813104   1813782   1813722   1813101   1812251  
  8520.000000   1811558   1811352   1811806   1812920   1814525  
  8510.000000   1816385   1818253   1819959   1821414   1822602  
  8500.000000   1823545   1824259   1824747   1824982   1824954  
  8490.000000   1824654   1824141   1823503   1822887   1822462  
  8480.000000   1822395   1822823   1823797   1825296   1827205  
  8470.000000   1829369   1831616   1833816   1835900   1837871  
  8460.000000   1839757   1841579   1843305   1844848   1846092  
  8450.000000   1846939   1847369   1847449   1847311   1847098  
  8440.000000   1846895   1846698   1846399   1845883   1845066  
  8430.000000   1843999   1842842   1841863   1841313   1841361  
  8420.000000   1841994   1843049   1844248   1845301   1845971  
  8410.000000   1846135   1845791   1845027   1843981   1842792  
  8400.000000   1841597   1840505   1839598   1838918   1838444  
  8390.000000   1838103   1837767   1837339   1836778   1836168  
  8380.000000   1835678   1835515   1835827   1836600   1837632  
  8370.000000   1838541   1838909   1838405   1836936   1834668  
  8360.000000   1831993   1829415   1827394   1826230   1825984  
  8350.000000   1826525   1827584   1828863   1830080   1831013  
  8340.000000   1831502   1831454   1830838   1829687   1828126  
  8330.000000   1826344   1824587   1823061   1821902   1821116  
  8320.000000   1820607   1820231   1819849   1819417   1818972  
  8310.000000   1818639   1818536   1818729   1819179   1819763  
  8300.000000   1820313   1820680   1820779   1820605   1820218  
  8290.000000   1819694   1819099   1818455   1817761   1816993  
  8280.000000   1816133   1815169   1814103   1812944   1811707  
  8270.000000   1810427   1809148   1807965   1806984   1806331  
  8260.000000   1806083   1806251   1806760   1807454   1808135  
  8250.000000   1808596   1808661   1808211   1807209   1805703  
  8240.000000   1803826   1801787   1799835   1798228   1797167  
  8230.000000   1796749   1796902   1797418   1797963   1798209  
  8220.000000   1797897   1796935   1795383   1793442   1791348  
  8210.000000   1789303   1787403   1785635   1783920   1782165  
  8200.000000   1780317   1778381   1776393   1774397   1772400  
  8190.000000   1770390   1768343   1766268   1764230   1762330  
  8180.000000   1760682   1759340   1758286   1757410   1756562  
  8170.000000   1755615   1754520   1753348   1752250   1751410  
  8160.000000   1750962   1750932   1751224   1751646   1751968  
  8150.000000   1751973   1751514   1750513   1748974   1746953  
  8140.000000   1744563   1741946   1739288   1736783   1734616  
  8130.000000   1732918   1731727   1730996   1730582   1730332  
  8120.000000   1730100   1729827   1729529   1729287   1729195  
  8110.000000   1729292   1729537   1729788   1729854   1729532  
  8100.000000   1728692   1727297   1725443   1723318   1721168  
  8090.000000   1719232   1717682   1716588   1715905   1715502  
  8080.000000   1715195   1714810   1714221   1713391   1712367  
  8070.000000   1711265   1710228   1709378   1708790   1708462  
  8060.000000   1708340   1708319   1708288   1708138   1707787  
  8050.000000   1707187   1706323   1705222   1703947   1702595  
  8040.000000   1701277   1700097   1699129   1698388   1697834  
  8030.000000   1697377   1696915   1696358   1695659   1694822  
  8020.000000   1693886   1692916   1691976   1691123   1690409  
  8010.000000   1689875   1689557   1689463   1689566   1689774  
  8000.000000   1689949   1689924   1689553   1688766   1687599  
  7990.000000   1686194   1684768   1683540   1682673   1682216  
  7980.000000   1682107   1682192   1682282   1682215   1681891  
  7970.000000   1681302   1680508   1679625   1678781   1678095  
  7960.000000   1677651   1677470   1677512   1677661   1677756  
  7950.000000   1677616   1677099   1676141   1674796   1673221  
  7940.000000   1671647   1670306   1669373   1668911   1668870  
  7930.000000   1669109   1669461   1669781   1669983   1670051  
  7920.000000   1670016   1669927   1669829   1669746   1669697  
  7910.000000   1669688   1669737   1669842   1669992   1670135  
  7900.000000   1670196   1670094   1669779   1669257   1668605  
  7890.000000   1667948   1667417   1667110   1667045   1667172  
  7880.000000   1667391   1667605   1667759   1667868   1667997  
  7870.000000   1668225   1668600   1669094   1669611   1669999  
  7860.000000   1670116   1669870   1669265   1668395   1667427  
  7850.000000   1666546   1665909   1665607   1665650   1665975  
  7840.000000   1666475   1667027   1667517   1667860   1668004  
  7830.000000   1667936   1667668   1667248   1666743   1666242  
  7820.000000   1665833   1665596   1665570   1665749   1666065  
  7810.000000   1666413   1666656   1666677   1666397   1665808  
  7800.000000   1664968   1663986   1662985   1662062   1661263  
  7790.000000   1660567   1659909   1659208   1658407   1657508  
  7780.000000   1656568   1655691   1654983   1654516   1654290  
  7770.000000   1654239   1654245   1654180   1653953   1653536  
  7760.000000   1652972   1652352   1651778   1651324   1651009  
  7750.000000   1650793   1650600   1650342   1649959   1649429  
  7740.000000   1648772   1648036   1647269   1646509   1645773  
  7730.000000   1645066   1644391   1643763   1643208   1642757  
  7720.000000   1642430   1642225   1642115   1642049   1641974  
  7710.000000   1641842   1641631   1641331   1640951   1640497  
  7700.000000   1639977   1639394   1638764   1638114   1637493  
  7690.000000   1636960   1636565   1636331   1636238   1636220  
  7680.000000   1636187   1636046   1635736   1635242   1634602  
  7670.000000   1633890   1633198   1632610   1632187   1631959  
  7660.000000   1631930   1632077   1632366   1632747   1633165  
  7650.000000   1633561   1633879   1634075   1634129   1634045  
  7640.000000   1633854   1633601   1633341   1633123   1632977  
  7630.000000   1632920   1632945   1633037   1633172   1633328  
  7620.000000   1633483   1633622   1633730   1633792   1633783  
  7610.000000   1633676   1633437   1633044   1632498   1631839  
  7600.000000   1631145   1630521   1630073   1629870   1629920  
  7590.000000   1630159   1630469   1630713   1630792   1630672  
  7580.000000   1630410   1630111   1629898   1629845   1629954  
  7570.000000   1630149   1630316   1630351   1630218   1629967  
  7560.000000   1629711   1629590   1629707   1630094   1630701  
  7550.000000   1631413   1632096   1632628   1632945   1633024  
  7540.000000   1632892   1632590   1632177   1631717   1631295  
  7530.000000   1631010   1630966   1631249   1631898   1632884  
  7520.000000   1634114   1635449   1636739   1637857   1638735  
  7510.000000   1639356   1639759   1640000   1640152   1640279  
  7500.000000   1640452   1640739   1641209   1641915   1642889  
  7490.000000   1644123   1645568   1647141   1648738   1650264  
  7480.000000   1651643   1652832   1653830   1654656   1655364  
  7470.000000   1656011   1656668   1657383   1658193   1659088  
  7460.000000   1660038   1660983   1661875   1662694   1663471  
  7450.000000   1664284   1665230   1666392   1667807   1669447  
  7440.000000   1671230   1673043   1674797   1676441   1677974  
  7430.000000   1679425   1680833   1682219   1683584   1684914  
  7420.000000   1686209   1687493   1688816   1690222   1691734  
  7410.000000   1693319   1694897   1696364   1697638   1698691  
  7400.000000   1699575   1700397   1701284   1702335   1703593  
  7390.000000   1705038   1706609   1708246   1709909   1711603  
  7380.000000   1713348   1715168   1717053   1718967   1720854  
  7370.000000   1722662   1724366   1725967   1727493   1728957  
  7360.000000   1730351   1731634   1732749   1733652   1734337  
  7350.000000   1734860   1735324   1735868   1736610   1737632  
  7340.000000   1738942   1740491   1742179   1743893   1745523  
  7330.000000   1746985   1748230   1749244   1750057   1750725  
  7320.000000   1751324   1751929   1752607   1753396   1754318  
  7310.000000   1755369   1756539   1757812   1759172   1760603  
  7300.000000   1762078   1763566   1765033   1766452   1767818  
  7290.000000   1769147   1770474   1771829   1773220   1774622  
  7280.000000   1775985   1777243   1778352   1779300   1780121  
  7270.000000   1780876   1781634   1782443   1783324   1784264  
  7260.000000   1785246   1786249   1787278   1788339   1789448  
  7250.000000   1790599   1791779   1792959   1794135   1795320  
  7240.000000   1796574   1797957   1799530   1801302   1803248  
  7230.000000   1805291   1807367   1809422   1811459   1813505  
  7220.000000   1815614   1817814   1820118   1822498   1824942  
  7210.000000   1827442   1830039   1832779   1835718   1838854  
  7200.000000   1842140   1845469   1848734   1851855   1854830  
  7190.000000   1857725   1860665   1863758   1867073   1870579  
  7180.000000   1874178   1877717   1881069   1884149   1886962  
  7170.000000   1889568   1892086   1894637   1897344   1900288  
  7160.000000   1903530   1907085   1910949   1915081   1919424  
  7150.000000   1923900   1928436   1932964   1937459   1941908  
  7140.000000   1946341   1950766   1955202   1959624   1964022  
  7130.000000   1968370   1972688   1977004   1981385   1985884  
  7120.000000   1990555   1995409   2000449   2005654   2011017  
  7110.000000   2016524   2022172   2027928   2033752   2039570  
  7100.000000   2045324   2050964   2056498   2061962   2067428  
  7090.000000   2072948   2078546   2084191   2089830   2095406  
  7080.000000   2100895   2106321   2111749   2117259   2122902  
  7070.000000   2128680   2134539   2140387   2146129   2151691  
  7060.000000   2157044   2162195   2167178   2172041   2176834  
  7050.000000   2181611   2186431   2191354   2196424   2201659  
  7040.000000   2207030   2212472   2217893   2223206   2228354  
  7030.000000   2233330   2238167   2242921   2247640   2252350  
  7020.000000   2257041   2261698   2266297   2270845   2275358  
  7010.000000   2279869   2284386   2288900   2293364   2297729  
  7000.000000   2301943   2305992   2309879   2313641   2317306  
  6990.000000   2320902   2324428   2327882   2331248   2334535  
  6980.000000   2337748   2340909   2344023   2347096   2350110  
  6970.000000   2353064   2355953   2358806   2361645   2364503  
  6960.000000   2367378   2370250   2373058   2375746   2378257  
  6950.000000   2380574   2382705   2384690   2386570   2388386  
  6940.000000   2390156   2391896   2393604   2395293   2396966  
  6930.000000   2398640   2400311   2401978   2403619   2405221  
  6920.000000   2406764   2408246   2409662   2411012   2412286  
  6910.000000   2413478   2414580   2415605   2416579   2417548  
  6900.000000   2418555   2419629   2420765   2421934   2423085  
  6890.000000   2424175   2425179   2426108   2426991   2427864  
  6880.000000   2428748   2429643   2430527   2431376   2432173  
  6870.000000   2432922   2433644   2434365   2435104   2435862  
  6860.000000   2436627   2437381   2438113   2438827   2439535  
  6850.000000   2440257   2441000   2441766   2442546   2443338  
  6840.000000   2444145   2444990   2445887   2446845   2447840  
  6830.000000   2448820   2449712   2450445   2450969   2451272  
  6820.000000   2451379   2451347   2451243   2451137   2451082  
  6810.000000   2451121   2451273   2451544   2451913   2452342  
  6800.000000   2452767   2453126   2453364   2453461   2453430  
  6790.000000   2453322   2453200   2453119   2453107   2453158  
  6780.000000   2453242   2453320   2453362   2453358   2453310  
  6770.000000   2453228   2453115   2452967   2452778   2452552  
  6760.000000   2452308   2452080   2451909   2451821   2451818  
  6750.000000   2451871   2451940   2451977   2451961   2451893  
  6740.000000   2451802   2451729   2451718   2451802   2452004  
  6730.000000   2452337   2452805   2453398   2454087   2454817  
  6720.000000   2455510   2456081   2456463   2456630   2456606  
  6710.000000   2456462   2456289   2456163   2456121   2456158  
  6700.000000   2456228   2456284   2456288   2456241   2456160  
  6690.000000   2456081   2456015   2455957   2455869   2455708  
  6680.000000   2455436   2455043   2454536   2453946   2453297  
  6670.000000   2452611   2451891   2451144   2450369   2449584  
  6660.000000   2448802   2448047   2447325   2446641   2445981  
  6650.000000   2445336   2444693   2444047   2443381   2442672  
  6640.000000   2441881   2440971   2439911   2438703   2437378  
  6630.000000   2435999   2434635   2433339   2432123   2430965  
  6620.000000   2429804   2428577   2427230   2425747   2424136  
  6610.000000   2422433   2420679   2418919   2417189   2415528  
  6600.000000   2413965   2412524   2411208   2409995   2408833  
  6590.000000   2407658   2406405   2405040   2403562   2402007  
  6580.000000   2400427   2398867   2397346   2395855   2394367  
  6570.000000   2392858   2391321   2389775   2388254   2386790  
  6560.000000   2385391   2384038   2382689   2381302   2379847  
  6550.000000   2378324   2376758   2375187   2373644   2372146  
  6540.000000   2370689   2369258   2367829   2366385   2364910  
  6530.000000   2363394   2361831   2360222   2358580   2356935  
  6520.000000   2355330   2353809   2352400   2351104   2349888  
  6510.000000   2348697   2347473   2346183   2344826   2343439  
  6500.000000   2342074   2340776   2339566   2338433   2337343  
  6490.000000   2336258   2335153   2334019   2332858   2331669  
  6480.000000   2330437   2329133   2327725   2326200   2324571  
  6470.000000   2322889   2321217   2319617   2318125   2316742  
  6460.000000   2315440   2314184   2312940   2311695   2310450  
  6450.000000   2309209   2307974   2306732   2305471   2304181  
  6440.000000   2302880   2301590   2300355   2299195   2298117  
  6430.000000   2297097   2296103   2295105   2294104   2293129  
  6420.000000   2292232   2291464   2290855   2290392   2290035  
  6410.000000   2289723   2289403   2289039   2288627   2288176  
  6400.000000   2287706   2287229   2286751   2286268   2285783  
  6390.000000   2285299   2284825   2284364   2283913   2283460  
  6380.000000   2282989   2282494   2281983   2281482   2281023  
  6370.000000   2280628   2280300   2280014   2279729   2279406  
  6360.000000   2279020   2278577   2278101   2277630   2277192  
  6350.000000   2276794   2276424   2276056   2275659   2275214  
  6340.000000   2274709   2274146   2273525   2272853   2272135  
  6330.000000   2271384   2270619   2269867   2269152   2268490  
  6320.000000   2267874   2267284   2266682   2266034   2265314  
  6310.000000   2264517   2263646   2262717   2261737   2260716  
  6300.000000   2259654   2258560   2257442   2256318   2255196  
  6290.000000   2254081   2252960   2251822   2250649   2249445  
  6280.000000   2248225   2247020   2245852   2244731   2243637  
  6270.000000   2242535   2241378   2240134   2238798   2237387  
  6260.000000   2235934   2234469   2233002   2231524   2230015  
  6250.000000   2228460   2226862   2225253   2223674   2222171  
  6240.000000   2220766   2219463   2218240   2217068   2215920  
  6230.000000   2214777   2213626   2212450   2211231   2209944  
  6220.000000   2208569   2207106   2205578   2204033   2202527  
  6210.000000   2201107   2199795   2198583   2197443   2196335  
  6200.000000   2195231   2194115   2192985   2191836   2190663  
  6190.000000   2189452   2188199   2186913   2185634   2184420  
  6180.000000   2183336   2182425   2181693   2181101   2180580  
  6170.000000   2180047   2179440   2178725   2177909   2177018  
  6160.000000   2176089   2175151   2174226   2173319   2172441  
  6150.000000   2171595   2170786   2170010   2169250   2168479  
  6140.000000   2167671   2166814   2165922   2165030   2164187  
  6130.000000   2163434   2162789   2162237   2161745   2161271  
  6120.000000   2160791   2160300   2159820   2159373   2158979  
  6110.000000   2158628   2158305   2157977   2157636   2157283  
  6100.000000   2156952   2156677   2156494   2156410   2156421  
  6090.000000   2156501   2156633   2156806   2157031   2157317  
  6080.000000   2157679   2158108   2158587   2159080   2159568  
  6070.000000   2160031   2160486   2160946   2161448   2162006  
  6060.000000   2162641   2163348   2164133   2164988   2165923  
  6050.000000   2166935   2168035   2169215   2170482   2171833  
  6040.000000   2173287   2174856   2176567   2178426   2180434  
  6030.000000   2182556   2184760   2186993   2189230   2191449  
  6020.000000   2193665   2195889   2198147   2200442   2202780  
  6010.000000   2205148   2207544   2209963   2212417   2214909  
  6000.000000   2217447   2220017   2222606   2225191   2227768  
  5990.000000   2230335   2232914   2235521   2238178   2240883  
  5980.000000   2243633   2246411   2249216   2252053   2254953  
  5970.000000   2257942   2261051   2264280   2267624   2271044  
  5960.000000   2274513   2277995   2281480   2284959   2288443  
  5950.000000   2291933   2295442   2298974   2302550   2306195  
  5940.000000   2309942   2313823   2317856   2322036   2326326  
  5930.000000   2330676   2335012   2339273   2343399   2347352  
  5920.000000   2351101   2354631   2357930   2361002   2363859  
  5910.000000   2366534   2369062   2371492   2373860   2376205  
  5900.000000   2378541   2380891   2383261   2385677   2388147  
  5890.000000   2390688   2393282   2395907   2398512   2401048  
  5880.000000   2403467   2405746   2407880   2409884   2411779  
  5870.000000   2413581   2415299   2416932   2418479   2419945  
  5860.000000   2421348   2422718   2424089   2425496   2426969  
  5850.000000   2428531   2430199   2431986   2433899   2435934  
  5840.000000   2438082   2440314   2442605   2444922   2447250  
  5830.000000   2449579   2451920   2454278   2456665   2459070  
  5820.000000   2461484   2463883   2466254   2468587   2470886  
  5810.000000   2473162   2475425   2477690   2479958   2482249  
  5800.000000   2484567   2486947   2489396   2491942   2494555  
  5790.000000   2497215   2499834   2502339   2504607   2506548  
  5780.000000   2508044   2509020   2509390   2509125   2508209  
  5770.000000   2506701   2504689   2502328   2499764   2497165  
  5760.000000   2494633   2492251   2490026   2487963   2486030  
  5750.000000   2484225   2482531   2480959   2479493   2478119  
  5740.000000   2476799   2475496   2474180   2472835   2471473  
  5730.000000   2470107   2468766   2467458   2466194   2464964  
  5720.000000   2463766   2462593   2461447   2460322   2459217  
  5710.000000   2458116   2457010   2455892   2454775   2453681  
  5700.000000   2452645   2451699   2450858   2450120   2449460  
  5690.000000   2448855   2448282   2447740   2447230   2446766  
  5680.000000   2446339   2445931   2445490   2444962   2444279  
  5670.000000   2443392   2442259   2440862   2439189   2437250  
  5660.000000   2435063   2432672   2430136   2427537   2424950  
  5650.000000   2422443   2420047   2417769   2415583   2413461  
  5640.000000   2411382   2409347   2407375   2405491   2403717  
  5630.000000   2402051   2400482   2398981   2397533   2396130  
  5620.000000   2394792   2393536   2392388   2391347   2390403  
  5610.000000   2389522   2388676   2387837   2387000   2386166  
  5600.000000   2385353   2384570   2383829   2383127   2382463  
  5590.000000   2381826   2381208   2380596   2379976   2379330  
  5580.000000   2378647   2377925   2377177   2376428   2375706  
  5570.000000   2375033   2374410   2373821   2373229   2372598  
  5560.000000   2371898   2371124   2370290   2369424   2368555  
  5550.000000   2367707   2366886   2366089   2365304   2364519  
  5540.000000   2363723   2362913   2362082   2361229   2360354  
  5530.000000   2359470   2358592   2357746   2356951   2356218  
  5520.000000   2355536   2354879   2354210   2353499   2352723  
  5510.000000   2351884   2350993   2350069   2349119   2348146  
  5500.000000   2347139   2346092   2345005   2343891   2342764  
  5490.000000   2341639   2340508   2339352   2338139   2336847  
  5480.000000   2335467   2334021   2332542   2331073   2329640  
  5470.000000   2328250   2326884   2325514   2324110   2322658  
  5460.000000   2321152   2319597   2317995   2316341   2314632  
  5450.000000   2312867   2311064   2309255   2307486   2305796  
  5440.000000   2304210   2302727   2301331   2299995   2298703  
  5430.000000   2297446   2296232   2295058   2293923   2292801  
  5420.000000   2291680   2290543   2289416   2288333   2287365  
  5410.000000   2286561   2285957   2285540   2285283   2285131  
  5400.000000   2285060   2285043   2285099   2285232   2285468  
  5390.000000   2285796   2286221   2286720   2287314   2288012  
  5380.000000   2288871   2289916   2291186   2292663   2294340  
  5370.000000   2296161   2298115   2300168   2302346   2304640  
  5360.000000   2307094   2309693   2312477   2315433   2318627  
  5350.000000   2322076   2325877   2330047   2334661   2339685  
  5340.000000   2345144   2350971   2357202   2363793   2370818  
  5330.000000   2378245   2386141   2394447   2403204   2412344  
  5320.000000   2421941   2431977   2442589   2453792   2465728  
  5310.000000   2478373   2491807   2505938   2520806   2536316  
  5300.000000   2552536   2569426   2587109   2605591   2625006  
  5290.000000   2645332   2666631   2688779   2711722   2735263  
  5280.000000   2759323   2783773   2808653   2833983   2859909  
  5270.000000   2886485   2913765   2941645   2969962   2998477  
  5260.000000   3026985   3055356   3083556   3111643   3139666  
  5250.000000   3167657   3195510   3223089   3250134   3276497  
  5240.000000   3302005   3326699   3350590   3373863   3396570  
  5230.000000   3418848   3440633   3461928   3482555   3502474  
  5220.000000   3521533   3539782   3557182   3573882   3589898  
  5210.000000   3605375   3620264   3634608   3648258   3661203  
  5200.000000   3673305   3684629   3695145   3705011   3714240  
  5190.000000   3722964   3731134   3738798   3745850   3752320  
  5180.000000   3758134   3763371   3767999   3772106   3775645  
  5170.000000   3778674   3781128   3783069   3784468   3785422  
  5160.000000   3785927   3786067   3785807   3785184   3784137  
  5150.000000   3782700   3780842   3778633   3776071   3773222  
  5140.000000   3770062   3766618   3762849   3758783   3754414  
  5130.000000   3749808   3744997   3740053   3734996   3729869  
  5120.000000   3724663   3719406   3714095   3708764   3703419  
  5110.000000   3698081   3692740   3687395   3682026   3676638  
  5100.000000   3671234   3665845   3660492   3655200   3649972  
  5090.000000   3644802   3639672   3634570   3629484   3624420  
  5080.000000   3619374   3614347   3609315   3604251   3599114  
  5070.000000   3593879   3588525   3583060   3577494   3571854  
  5060.000000   3566148   3560391   3554570   3548686   3542722  
  5050.000000   3536685   3530569   3524385   3518127   3511804  
  5040.000000   3505408   3498947   3492420   3485843   3479223  
  5030.000000   3472576   3465903   3459209   3452495   3445767  
  5020.000000   3439039   3432335   3425683   3419106   3412625  
  5010.000000   3406243   3399960   3393761   3387648   3381609  
  5000.000000   3375663   3369814   3364090   3358495   3353052  
  4990.000000   3347751   3342611   3337614   3332785   3328113  
  4980.000000   3323631   3319332   3315253   3311384   3307765  
  4970.000000   3304385   3301289   3298463   3295950   3293731  
  4960.000000   3291840   3290244   3288971   3287986   3287325  
  4950.000000   3286959   3286939   3287247   3287938   3288992  
  4940.000000   3290455   3292291   3294532   3297126   3300100  
  4930.000000   3303399   3307056   3311030   3315365   3320032  
  4920.000000   3325079   3330477   3336257   3342382   3348867  
  4910.000000   3355670   3362800   3370225   3377949   3385940  
  4900.000000   3394184   3402637   3411256   3419984   3428762  
  4890.000000   3437538   3446250   3454858   3463297   3471540  
  4880.000000   3479517   3487206   3494532   3501477   3507956  
  4870.000000   3513950   3519366   3524191   3528347   3531851  
  4860.000000   3534662   3536841   3538382   3539368   3539806  
  4850.000000   3539777   3539291   3538429   3537208   3535716  
  4840.000000   3533978   3532073   3530023   3527891   3525693  
  4830.000000   3523482   3521282   3519141   3517086   3515149  
  4820.000000   3513340   3511661   3510101   3508644   3507283  
  4810.000000   3506008   3504836   3503771   3502841   3502050  
  4800.000000   3501422   3500951   3500654   3500523   3500577  
  4790.000000   3500806   3501220   3501796   3502529   3503382  
  4780.000000   3504342   3505379   3506492   3507670   3508927  
  4770.000000   3510258   3511670   3513147   3514680   3516243  
  4760.000000   3517821   3519396   3520964   3522518   3524066  
  4750.000000   3525610   3527155   3528699   3530241   3531774  
  4740.000000   3533289   3534780   3536245   3537682   3539100  
  4730.000000   3540503   3541906   3543313   3544733   3546164  
  4720.000000   3547615   3549085   3550592   3552148   3553787  
  4710.000000   3555527   3557403   3559425   3561617   3563974  
  4700.000000   3566510   3569217   3572111   3575189   3578466  
  4690.000000   3581937   3585609   3589461   3593484   3597641  
  4680.000000   3601906   3606225   3610566   3614870   3619110  
  4670.000000   3623244   3627273   3631194   3635048   3638874  
  4660.000000   3642741   3646704   3650829   3655160   3659733  
  4650.000000   3664561   3669645   3674966   3680491   3686178  
  4640.000000   3691974   3697832   3703694   3709521   3715264  
  4630.000000   3720893   3726362   3731645   3736695   3741489  
  4620.000000   3745982   3750160   3753986   3757462   3760564  
  4610.000000   3763319   3765721   3767822   3769639   3771242  
  4600.000000   3772654   3773944   3775118   3776219   3777223  
  4590.000000   3778143   3778931   3779579   3780033   3780285  
  4580.000000   3780289   3780049   3779542   3778792   3777798  
  4570.000000   3776602   3775220   3773697   3772050   3770317  
  4560.000000   3768505   3766643   3764728   3762778   3760785  
  4550.000000   3758758   3756685   3754571   3752407   3750197  
  4540.000000   3747940   3745647   3743324   3740979   3738616  
  4530.000000   3736235   3733833   3731400   3728937   3726439  
  4520.000000   3723928   3721411   3718932   3716502   3714174  
  4510.000000   3711952   3709885   3707969   3706263   3704767  
  4500.000000   3703561   3702659   3702162   3702088   3702545  
  4490.000000   3703541   3705181   3707456   3710454   3714147  
  4480.000000   3718602   3723764   3729680   3736282   3743611  
  4470.000000   3751595   3760274   3769573   3779521   3790029  
  4460.000000   3801101   3812637   3824624   3836964   3849646  
  4450.000000   3862596   3875816   3889259   3902933   3916801  
  4440.000000   3930853   3945041   3959320   3973633   3987912  
  4430.000000   4002110   4016164   4030059   4043741   4057211  
  4420.000000   4070405   4083305   4095817   4107901   4119444  
  4410.000000   4130410   4140702   4150312   4159183   4167352  
  4400.000000   4174807   4181629   4187849   4193588   4198910  
  4390.000000   4203958   4208812   4213607   4218402   4223287  
  4380.000000   4228266   4233365   4238543   4243789   4249059  
  4370.000000   4254351   4259654   4264989   4270360   4275782  
  4360.000000   4281243   4286741   4292237   4297732   4303170  
  4350.000000   4308571   4313864   4319089   4324175   4329188  
  4340.000000   4334079   4338909   4343581   4348010   4351882  
  4330.000000   4354823   4356281   4355743   4352757   4347150  
  4320.000000   4339043   4328929   4317536   4305751   4294388  
  4310.000000   4284113   4275295   4268066   4262317   4257843  
  4300.000000   4254396   4251771   4249836   4248497   4247729  
  4290.000000   4247474   4247727   4248415   4249537   4251026  
  4280.000000   4252880   4255043   4257484   4260140   4262950  
  4270.000000   4265864   4268819   4271759   4274569   4277093  
  4260.000000   4279081   4280247   4280275   4278931   4276082  
  4250.000000   4271792   4266271   4259897   4253079   4246260  
  4240.000000   4239762   4233834   4228553   4223925   4219844  
  4230.000000   4216194   4212826   4209617   4206464   4203287  
  4220.000000   4200061   4196768   4193469   4190211   4187117  
  4210.000000   4184264   4181780   4179718   4178151   4177073  
  4200.000000   4176484   4176321   4176534   4177028   4177750  
  4190.000000   4178610   4179582   4180609   4181701   4182824  
  4180.000000   4184003   4185207   4186460   4187736   4189081  
  4170.000000   4190510   4192112   4193943   4196112   4198659  
  4160.000000   4201652   4205067   4208909   4213107   4217651  
  4150.000000   4222481   4227625   4233058   4238843   4244969  
  4140.000000   4251501   4258416   4265766   4273509   4281687  
  4130.000000   4290248   4299227   4308575   4318328   4328451  
  4120.000000   4338997   4349952   4361390   4373316   4385806  
  4110.000000   4398861   4412528   4426774   4441588   4456880  
  4100.000000   4472580   4488563   4504741   4521011   4537323  
  4090.000000   4553638   4569950   4586261   4602564   4618861  
  4080.000000   4635114   4651315   4667405   4683374   4699141  
  4070.000000   4714680   4729867   4744646   4758871   4772501  
  4060.000000   4785426   4797671   4809189   4820063   4830279  
  4050.000000   4839943   4849044   4857692   4865871   4873673  
  4040.000000   4881049   4888053   4894594   4900701   4906284  
  4030.000000   4911389   4915955   4920045   4923612   4926700  
  4020.000000   4929239   4931277   4932810   4933910   4934556  
  4010.000000   4934849   4934839   4934507   4933643   4932263  
  4000.000000   4930621  
##END= 
