##TITLE= Sample 028 By ssteindl date Donnerstag, November 22 2018
##JCAMP-DX= 4.24
##DATA TYPE= INFRARED SPECTRUM
##ORIGIN= Exported PE Spectrum Data File
##OWNER= Sandra Steindl
##DATE= 18/11/22
##TIME= 11:17:37.00
##SPECTROMETER/DATA SYSTEM= PERKIN-ELMER Frontier FT-IR/NIR IR
##INSTRUMENT PARAMETERS=
  APODIZATION=stark
  DETECTOR=INGAAS
##RESOLUTION= 16.000000
##DELTAX= -2.000000
##XUNITS= 1/CM
##YUNITS= A
##XFACTOR= 1.00
##YFACTOR= 0.00000011920928955078
##FIRSTX= 10000.00
##LASTX= 4000.00
##NPOINTS= 3001
##FIRSTY= 0.263701
##MAXY= 0.614000
##MINY= 0.201123
##XYDATA= (X++(Y..Y))
 10000.000000   2212087   2210795   2210170   2210926   2212662  
  9990.000000   2214124   2214214   2212492   2209135   2204725  
  9980.000000   2200026   2195557   2191357   2187090   2182446  
  9970.000000   2177448   2172561   2168565   2166171   2165681  
  9960.000000   2166797   2168766   2170700   2171980   2172476  
  9950.000000   2172477   2172473   2172758   2173316   2173773  
  9940.000000   2173706   2172849   2171318   2169536   2168033  
  9930.000000   2167192   2167036   2167332   2167676   2167865  
  9920.000000   2167885   2168006   2168461   2169307   2170259  
  9910.000000   2170751   2170172   2168051   2164308   2159148  
  9900.000000   2153014   2146270   2139160   2131786   2124298  
  9890.000000   2117107   2110894   2106575   2104927   2106347  
  9880.000000   2110595   2116838   2123892   2130520   2135820  
  9870.000000   2139263   2140798   2140551   2138808   2135823  
  9860.000000   2131963   2127738   2123888   2121259   2120593  
  9850.000000   2122269   2126105   2131379   2136974   2141702  
  9840.000000   2144616   2145228   2143626   2140325   2136138  
  9830.000000   2131909   2128364   2126052   2125251   2126088  
  9820.000000   2128430   2132078   2136642   2141749   2146935  
  9810.000000   2151768   2155771   2158449   2159322   2157936  
  9800.000000   2154047   2147644   2139122   2129234   2119017  
  9790.000000   2109610   2101959   2096708   2093976   2093535  
  9780.000000   2094763   2096973   2099408   2101486   2102786  
  9770.000000   2103101   2102430   2100866   2098628   2095870  
  9760.000000   2092745   2089240   2085321   2080887   2075993  
  9750.000000   2070871   2066006   2062013   2059427   2058494  
  9740.000000   2059021   2060437   2061983   2063015   2063231  
  9730.000000   2062761   2062073   2061746   2062236   2063686  
  9720.000000   2065923   2068511   2070950   2072806   2073821  
  9710.000000   2073875   2072944   2071025   2068173   2064542  
  9700.000000   2060480   2056459   2053021   2050542   2049124  
  9690.000000   2048535   2048277   2047857   2046911   2045486  
  9680.000000   2043943   2042945   2043154   2045039   2048681  
  9670.000000   2053696   2059319   2064497   2068160   2069357  
  9660.000000   2067568   2062782   2055622   2047223   2038995  
  9650.000000   2032289   2028025   2026488   2027294   2029600  
  9640.000000   2032427   2034980   2036806   2037820   2038110  
  9630.000000   2037804   2036939   2035526   2033704   2031856  
  9620.000000   2030627   2030730   2032642   2036325   2041092  
  9610.000000   2045789   2049145   2050238   2048796   2045233  
  9600.000000   2040441   2035370   2030709   2026680   2023138  
  9590.000000   2019812   2016566   2013570   2011164   2009730  
  9580.000000   2009373   2009942   2011027   2012254   2013409  
  9570.000000   2014518   2015723   2017050   2018263   2018829  
  9560.000000   2018130   2015739   2011704   2006603   2001400  
  9550.000000   1997049   1994148   1992681   1992066   1991447  
  9540.000000   1990018   1987385   1983610   1979165   1974692  
  9530.000000   1970795   1967947   1966426   1966355   1967638  
  9520.000000   1969915   1972512   1974518   1975023   1973464  
  9510.000000   1969915   1965215   1960730   1957933   1957765  
  9500.000000   1960272   1964426   1968538   1970813   1970100  
  9490.000000   1966304   1960419   1954119   1949087   1946469  
  9480.000000   1946568   1948946   1952739   1957034   1961143  
  9470.000000   1964657   1967378   1969170   1969880   1969396  
  9460.000000   1967773   1965334   1962666   1960413   1959068  
  9450.000000   1958737   1959152   1959818   1960252   1960247  
  9440.000000   1959870   1959420   1959155   1959161   1959264  
  9430.000000   1959174   1958671   1957766   1956731   1955960  
  9420.000000   1955764   1956176   1956897   1957438   1957334  
  9410.000000   1956410   1954824   1953031   1951511   1950595  
  9400.000000   1950297   1950371   1950450   1950232   1949605  
  9390.000000   1948611   1947364   1945870   1944003   1941541  
  9380.000000   1938332   1934431   1930168   1926096   1922830  
  9370.000000   1920849   1920349   1921215   1923077   1925468  
  9360.000000   1927899   1929955   1931309   1931740   1931212  
  9350.000000   1929871   1928097   1926360   1925130   1924637  
  9340.000000   1924805   1925195   1925196   1924259   1922188  
  9330.000000   1919293   1916302   1914108   1913371   1914316  
  9320.000000   1916620   1919619   1922524   1924779   1926190  
  9310.000000   1926935   1927368   1927783   1928274   1928682  
  9300.000000   1928712   1928038   1926449   1923893   1920478  
  9290.000000   1916444   1912073   1907746   1903866   1900943  
  9280.000000   1899406   1899517   1901139   1903713   1906344  
  9270.000000   1908042   1908046   1906013   1902163   1897119  
  9260.000000   1891744   1886770   1882675   1879588   1877449  
  9250.000000   1876134   1875556   1875716   1876595   1878139  
  9240.000000   1880118   1882236   1884177   1885762   1887007  
  9230.000000   1888032   1888972   1889754   1890126   1889649  
  9220.000000   1887952   1884853   1880545   1875558   1870636  
  9210.000000   1866496   1863587   1862034   1861629   1862042  
  9200.000000   1862909   1864021   1865295   1866752   1868382  
  9190.000000   1870092   1871690   1872917   1873555   1873455  
  9180.000000   1872631   1871177   1869274   1867106   1864850  
  9170.000000   1862677   1860723   1859125   1857959   1857270  
  9160.000000   1857004   1857043   1857184   1857224   1856974  
  9150.000000   1856313   1855200   1853680   1851901   1850053  
  9140.000000   1848344   1846926   1845878   1845170   1844687  
  9130.000000   1844269   1843790   1843203   1842568   1842010  
  9120.000000   1841665   1841582   1841707   1841871   1841898  
  9110.000000   1841660   1841163   1840541   1840000   1839729  
  9100.000000   1839799   1840173   1840728   1841362   1842032  
  9090.000000   1842783   1843684   1844753   1845851   1846694  
  9080.000000   1846911   1846209   1844500   1841968   1839028  
  9070.000000   1836181   1833848   1832224   1831233   1830595  
  9060.000000   1829960   1829051   1827754   1826135   1824388  
  9050.000000   1822748   1821405   1820483   1820024   1820032  
  9040.000000   1820475   1821305   1822473   1823886   1825444  
  9030.000000   1827006   1828449   1829594   1830238   1830144  
  9020.000000   1829136   1827138   1824273   1820919   1817693  
  9010.000000   1815308   1814324   1815007   1817192   1820333  
  9000.000000   1823620   1826275   1827787   1828034   1827245  
  8990.000000   1825847   1824307   1822929   1821825   1820925  
  8980.000000   1820135   1819396   1818740   1818245   1817978  
  8970.000000   1817946   1818060   1818214   1818331   1818431  
  8960.000000   1818605   1818950   1819495   1820157   1820770  
  8950.000000   1821163   1821257   1821121   1820957   1821002  
  8940.000000   1821413   1822160   1823035   1823711   1823868  
  8930.000000   1823322   1822066   1820274   1818213   1816194  
  8920.000000   1814502   1813370   1812931   1813238   1814193  
  8910.000000   1815566   1816963   1817934   1818100   1817295  
  8900.000000   1815670   1813629   1811719   1810351   1809659  
  8890.000000   1809379   1808998   1807969   1806002   1803246  
  8880.000000   1800276   1797922   1796939   1797759   1800298  
  8870.000000   1804023   1808126   1811803   1814491   1815964  
  8860.000000   1816330   1815865   1814910   1813720   1812484  
  8850.000000   1811291   1810197   1809216   1808336   1807521  
  8840.000000   1806705   1805885   1805122   1804621   1804636  
  8830.000000   1805409   1807023   1809308   1811858   1814097  
  8820.000000   1815503   1815738   1814792   1812957   1810730  
  8810.000000   1808652   1807146   1806469   1806675   1807713  
  8800.000000   1809427   1811632   1814076   1816455   1818399  
  8790.000000   1819552   1819649   1818603   1816548   1813796  
  8780.000000   1810759   1807817   1805249   1803183   1801633  
  8770.000000   1800574   1799973   1799820   1800065   1800606  
  8760.000000   1801251   1801762   1801937   1801678   1801072  
  8750.000000   1800332   1799751   1799547   1799817   1800478  
  8740.000000   1801346   1802207   1802928   1803485   1803968  
  8730.000000   1804490   1805136   1805892   1806673   1807348  
  8720.000000   1807824   1808067   1808130   1808114   1808145  
  8710.000000   1808335   1808774   1809532   1810642   1812104  
  8700.000000   1813835   1815698   1817488   1819016   1820149  
  8690.000000   1820873   1821318   1821683   1822169   1822843  
  8680.000000   1823605   1824187   1824268   1823609   1822184  
  8670.000000   1820227   1818190   1816611   1815953   1816464  
  8660.000000   1818088   1820506   1823211   1825684   1827513  
  8650.000000   1828508   1828721   1828416   1827995   1827872  
  8640.000000   1828370   1829601   1831444   1833542   1835424  
  8630.000000   1836629   1836874   1836136   1834666   1832925  
  8620.000000   1831442   1830664   1830814   1831861   1833556  
  8610.000000   1835557   1837537   1839291   1840744   1841944  
  8600.000000   1842979   1843930   1844833   1845670   1846407  
  8590.000000   1846990   1847397   1847593   1847577   1847341  
  8580.000000   1846911   1846344   1845743   1845247   1844993  
  8570.000000   1845103   1845626   1846565   1847861   1849461  
  8560.000000   1851302   1853355   1855576   1857882   1860132  
  8550.000000   1862110   1863599   1864387   1864379   1863569  
  8540.000000   1862091   1860148   1857992   1855881   1854064  
  8530.000000   1852780   1852224   1852563   1853854   1856034  
  8520.000000   1858868   1862001   1865027   1867587   1869471  
  8510.000000   1870641   1871255   1871543   1871753   1872034  
  8500.000000   1872440   1872930   1873434   1873913   1874389  
  8490.000000   1874946   1875658   1876569   1877628   1878726  
  8480.000000   1879714   1880469   1880949   1881178   1881251  
  8470.000000   1881255   1881264   1881293   1881330   1881356  
  8460.000000   1881385   1881494   1881800   1882451   1883553  
  8450.000000   1885162   1887232   1889649   1892208   1894685  
  8440.000000   1896853   1898539   1899649   1900187   1900258  
  8430.000000   1900022   1899662   1899309   1899008   1898707  
  8420.000000   1898270   1897563   1896494   1895112   1893576  
  8410.000000   1892167   1891171   1890807   1891134   1892033  
  8400.000000   1893228   1894348   1895035   1895030   1894266  
  8390.000000   1892854   1891067   1889264   1887820   1887021  
  8380.000000   1887008   1887733   1888993   1890473   1891818  
  8370.000000   1892734   1893055   1892795   1892114   1891276  
  8360.000000   1890548   1890138   1890133   1890485   1891033  
  8350.000000   1891570   1891899   1891883   1891441   1890575  
  8340.000000   1889335   1887827   1886178   1884535   1883043  
  8330.000000   1881821   1880924   1880313   1879860   1879382  
  8320.000000   1878704   1877724   1876454   1875033   1873684  
  8310.000000   1872632   1872026   1871877   1872074   1872421  
  8300.000000   1872726   1872860   1872799   1872610   1872396  
  8290.000000   1872242   1872159   1872093   1871950   1871654  
  8280.000000   1871188   1870599   1869970   1869380   1868844  
  8270.000000   1868314   1867677   1866823   1865688   1864297  
  8260.000000   1862754   1861211   1859798   1858590   1857574  
  8250.000000   1856678   1855800   1854869   1853864   1852831  
  8240.000000   1851840   1850961   1850226   1849613   1849068  
  8230.000000   1848514   1847889   1847146   1846263   1845229  
  8220.000000   1844040   1842705   1841246   1839727   1838247  
  8210.000000   1836939   1835925   1835277   1834973   1834891  
  8200.000000   1834830   1834568   1833917   1832789   1831217  
  8190.000000   1829346   1827387   1825554   1824000   1822780  
  8180.000000   1821855   1821108   1820395   1819591   1818609  
  8170.000000   1817433   1816091   1814667   1813251   1811946  
  8160.000000   1810828   1809944   1809296   1808830   1808448  
  8150.000000   1808005   1807346   1806333   1804884   1803000  
  8140.000000   1800778   1798398   1796089   1794086   1792565  
  8130.000000   1791621   1791229   1791265   1791524   1791770  
  8120.000000   1791781   1791385   1790507   1789154   1787429  
  8110.000000   1785473   1783457   1781516   1779754   1778222  
  8100.000000   1776939   1775912   1775151   1774680   1774513  
  8090.000000   1774638   1774983   1775413   1775751   1775808  
  8080.000000   1775459   1774659   1773478   1772060   1770586  
  8070.000000   1769221   1768071   1767177   1766531   1766105  
  8060.000000   1765872   1765804   1765845   1765897   1765801  
  8050.000000   1765386   1764517   1763176   1761496   1759746  
  8040.000000   1758254   1757294   1756971   1757180   1757626  
  8030.000000   1757938   1757801   1757072   1755826   1754302  
  8020.000000   1752790   1751509   1750525   1749748   1749009  
  8010.000000   1748160   1747175   1746157   1745305   1744801  
  8000.000000   1744716   1744963   1745316   1745493   1745277  
  7990.000000   1744581   1743499   1742241   1741064   1740171  
  7980.000000   1739652   1739486   1739566   1739766   1739989  
  7970.000000   1740178   1740316   1740394   1740390   1740268  
  7960.000000   1739988   1739539   1738946   1738275   1737614  
  7950.000000   1737040   1736603   1736299   1736086   1735887  
  7940.000000   1735615   1735189   1734555   1733696   1732648  
  7930.000000   1731500   1730392   1729487   1728931   1728809  
  7920.000000   1729114   1729741   1730514   1731237   1731755  
  7910.000000   1731989   1731952   1731722   1731402   1731072  
  7900.000000   1730777   1730525   1730313   1730151   1730071  
  7890.000000   1730118   1730308   1730620   1730967   1731232  
  7880.000000   1731298   1731097   1730640   1730005   1729313  
  7870.000000   1728669   1728132   1727685   1727271   1726818  
  7860.000000   1726291   1725710   1725153   1724723   1724507  
  7850.000000   1724541   1724794   1725186   1725611   1725982  
  7840.000000   1726257   1726450   1726619   1726839   1727174  
  7830.000000   1727647   1728223   1728818   1729310   1729571  
  7820.000000   1729499   1729049   1728244   1727178   1725990  
  7810.000000   1724839   1723852   1723108   1722609   1722299  
  7800.000000   1722076   1721835   1721484   1720984   1720336  
  7790.000000   1719598   1718844   1718163   1717627   1717275  
  7780.000000   1717108   1717067   1717064   1716968   1716659  
  7770.000000   1716036   1715068   1713792   1712324   1710832  
  7760.000000   1709497   1708476   1707863   1707683   1707881  
  7750.000000   1708356   1708975   1709610   1710150   1710512  
  7740.000000   1710649   1710535   1710179   1709593   1708820  
  7730.000000   1707894   1706865   1705773   1704663   1703582  
  7720.000000   1702583   1701735   1701106   1700767   1700750  
  7710.000000   1701057   1701623   1702335   1703045   1703592  
  7700.000000   1703848   1703731   1703235   1702412   1701370  
  7690.000000   1700232   1699116   1698111   1697266   1696601  
  7680.000000   1696111   1695791   1695630   1695627   1695763  
  7670.000000   1696008   1696299   1696558   1696701   1696664  
  7660.000000   1696427   1696008   1695475   1694897   1694338  
  7650.000000   1693815   1693312   1692779   1692169   1691461  
  7640.000000   1690679   1689890   1689183   1688641   1688317  
  7630.000000   1688225   1688340   1688615   1689001   1689452  
  7620.000000   1689926   1690374   1690737   1690945   1690943  
  7610.000000   1690699   1690243   1689656   1689062   1688583  
  7600.000000   1688310   1688263   1688393   1688600   1688765  
  7590.000000   1688796   1688649   1688345   1687954   1687569  
  7580.000000   1687278   1687139   1687177   1687378   1687709  
  7570.000000   1688125   1688580   1689041   1689486   1689911  
  7560.000000   1690329   1690759   1691225   1691730   1692264  
  7550.000000   1692780   1693221   1693518   1693635   1693571  
  7540.000000   1693385   1693173   1693055   1693139   1693494  
  7530.000000   1694131   1695003   1696024   1697097   1698144  
  7520.000000   1699124   1700031   1700893   1701730   1702550  
  7510.000000   1703323   1704004   1704528   1704867   1705023  
  7500.000000   1705063   1705087   1705219   1705560   1706165  
  7490.000000   1707028   1708098   1709295   1710544   1711797  
  7480.000000   1713045   1714305   1715606   1716961   1718367  
  7470.000000   1719785   1721170   1722465   1723635   1724655  
  7460.000000   1725524   1726251   1726869   1727425   1727991  
  7450.000000   1728651   1729490   1730569   1731911   1733476  
  7440.000000   1735172   1736885   1738514   1740012   1741399  
  7430.000000   1742758   1744205   1745839   1747705   1749772  
  7420.000000   1751948   1754105   1756129   1757949   1759554  
  7410.000000   1760992   1762335   1763661   1765024   1766447  
  7400.000000   1767925   1769430   1770929   1772392   1773796  
  7390.000000   1775128   1776387   1777588   1778753   1779920  
  7380.000000   1781127   1782407   1783781   1785247   1786788  
  7370.000000   1788376   1789978   1791567   1793127   1794655  
  7360.000000   1796160   1797657   1799169   1800713   1802298  
  7350.000000   1803917   1805541   1807137   1808666   1810112  
  7340.000000   1811484   1812830   1814211   1815686   1817279  
  7330.000000   1818966   1820675   1822299   1823738   1824927  
  7320.000000   1825860   1826590   1827213   1827842   1828578  
  7310.000000   1829497   1830636   1832001   1833567   1835290  
  7300.000000   1837104   1838925   1840661   1842229   1843581  
  7290.000000   1844714   1845689   1846598   1847553   1848635  
  7280.000000   1849881   1851272   1852751   1854254   1855729  
  7270.000000   1857161   1858559   1859945   1861332   1862709  
  7260.000000   1864051   1865319   1866492   1867564   1868562  
  7250.000000   1869511   1870445   1871375   1872311   1873255  
  7240.000000   1874233   1875284   1876474   1877859   1879488  
  7230.000000   1881367   1883481   1885780   1888222   1890758  
  7220.000000   1893364   1896001   1898653   1901277   1903857  
  7210.000000   1906369   1908840   1911311   1913856   1916537  
  7200.000000   1919401   1922449   1925654   1928961   1932327  
  7190.000000   1935717   1939134   1942574   1946046   1949523  
  7180.000000   1952968   1956318   1959538   1962610   1965581  
  7170.000000   1968524   1971553   1974764   1978239   1981993  
  7160.000000   1985998   1990169   1994411   1998622   2002746  
  7150.000000   2006760   2010714   2014692   2018820   2023198  
  7140.000000   2027898   2032897   2038118   2043408   2048635  
  7130.000000   2053677   2058510   2063159   2067731   2072336  
  7120.000000   2077087   2082036   2087211   2092588   2098151  
  7110.000000   2103880   2109781   2115848   2122079   2128434  
  7100.000000   2134865   2141304   2147708   2154047   2160324  
  7090.000000   2166550   2172741   2178899   2185026   2191119  
  7080.000000   2197197   2203286   2209424   2215625   2221872  
  7070.000000   2228103   2234234   2240189   2245934   2251498  
  7060.000000   2256970   2262465   2268085   2273886   2279857  
  7050.000000   2285927   2291996   2297975   2303807   2309491  
  7040.000000   2315061   2320586   2326129   2331749   2337472  
  7030.000000   2343306   2349220   2355163   2361055   2366814  
  7020.000000   2372365   2377668   2382719   2387562   2392255  
  7010.000000   2396869   2401441   2405991   2410504   2414973  
  7000.000000   2419391   2423789   2428193   2432641   2437121  
  6990.000000   2441601   2445995   2450229   2454231   2457991  
  6980.000000   2461533   2464930   2468251   2471563   2474888  
  6970.000000   2478229   2481556   2484843   2488048   2491147  
  6960.000000   2494107   2496915   2499560   2502072   2504493  
  6950.000000   2506904   2509369   2511950   2514647   2517428  
  6940.000000   2520211   2522920   2525477   2527850   2530020  
  6930.000000   2531993   2533761   2535316   2536644   2537757  
  6920.000000   2538700   2539563   2540451   2541470   2542664  
  6910.000000   2544032   2545501   2546987   2548406   2549723  
  6900.000000   2550939   2552096   2553236   2554387   2555547  
  6890.000000   2556699   2557823   2558914   2559980   2561032  
  6880.000000   2562068   2563064   2563983   2564792   2565485  
  6870.000000   2566101   2566711   2567398   2568215   2569170  
  6860.000000   2570218   2571283   2572292   2573200   2574007  
  6850.000000   2574740   2575434   2576102   2576725   2577269  
  6840.000000   2577704   2578034   2578307   2578608   2579023  
  6830.000000   2579616   2580394   2581320   2582314   2583294  
  6820.000000   2584194   2584976   2585629   2586157   2586566  
  6810.000000   2586863   2587056   2587171   2587243   2587327  
  6800.000000   2587471   2587709   2588041   2588440   2588848  
  6790.000000   2589204   2589448   2589549   2589490   2589288  
  6780.000000   2588976   2588608   2588246   2587951   2587766  
  6770.000000   2587703   2587730   2587785   2587785   2587660  
  6760.000000   2587375   2586946   2586436   2585935   2585529  
  6750.000000   2585275   2585187   2585240   2585383   2585562  
  6740.000000   2585731   2585859   2585927   2585928   2585862  
  6730.000000   2585740   2585588   2585450   2585376   2585414  
  6720.000000   2585587   2585885   2586262   2586658   2587003  
  6710.000000   2587256   2587395   2587431   2587381   2587271  
  6700.000000   2587110   2586902   2586641   2586322   2585942  
  6690.000000   2585508   2585017   2584474   2583874   2583226  
  6680.000000   2582538   2581845   2581175   2580562   2580017  
  6670.000000   2579533   2579078   2578614   2578102   2577523  
  6660.000000   2576868   2576148   2575365   2574523   2573616  
  6650.000000   2572642   2571605   2570527   2569434   2568356  
  6640.000000   2567302   2566266   2565213   2564112   2562936  
  6630.000000   2561689   2560391   2559087   2557809   2556581  
  6620.000000   2555393   2554220   2553020   2551762   2550421  
  6610.000000   2548992   2547474   2545878   2544214   2542500  
  6600.000000   2540762   2539040   2537376   2535808   2534351  
  6590.000000   2532997   2531705   2530425   2529105   2527709  
  6580.000000   2526226   2524665   2523044   2521385   2519704  
  6570.000000   2518010   2516313   2514625   2512963   2511343  
  6560.000000   2509777   2508261   2506781   2505316   2503846  
  6550.000000   2502368   2500887   2499424   2497995   2496613  
  6540.000000   2495278   2493977   2492694   2491409   2490109  
  6530.000000   2488782   2487417   2485999   2484517   2482963  
  6520.000000   2481347   2479695   2478048   2476458   2474967  
  6510.000000   2473605   2472376   2471266   2470240   2469260  
  6500.000000   2468289   2467295   2466254   2465147   2463963  
  6490.000000   2462697   2461360   2459969   2458559   2457168  
  6480.000000   2455833   2454579   2453411   2452315   2451255  
  6470.000000   2450184   2449058   2447845   2446536   2445148  
  6460.000000   2443721   2442305   2440947   2439674   2438490  
  6450.000000   2437370   2436280   2435187   2434076   2432956  
  6440.000000   2431857   2430815   2429858   2428984   2428172  
  6430.000000   2427372   2426542   2425645   2424679   2423657  
  6420.000000   2422620   2421605   2420652   2419783   2419019  
  6410.000000   2418367   2417835   2417416   2417091   2416824  
  6400.000000   2416569   2416282   2415938   2415537   2415112  
  6390.000000   2414703   2414352   2414072   2413850   2413651  
  6380.000000   2413433   2413171   2412866   2412549   2412256  
  6370.000000   2412018   2411837   2411692   2411541   2411348  
  6360.000000   2411091   2410777   2410422   2410049   2409662  
  6350.000000   2409250   2408787   2408252   2407638   2406961  
  6340.000000   2406247   2405531   2404831   2404155   2403490  
  6330.000000   2402828   2402160   2401492   2400831   2400182  
  6320.000000   2399533   2398859   2398126   2397306   2396390  
  6310.000000   2395394   2394348   2393292   2392254   2391250  
  6300.000000   2390275   2389328   2388404   2387510   2386651  
  6290.000000   2385828   2385020   2384195   2383309   2382327  
  6280.000000   2381230   2380028   2378750   2377433   2376105  
  6270.000000   2374780   2373451   2372107   2370735   2369336  
  6260.000000   2367918   2366498   2365084   2363683   2362290  
  6250.000000   2360906   2359531   2358179   2356857   2355570  
  6240.000000   2354307   2353043   2351745   2350384   2348947  
  6230.000000   2347439   2345881   2344297   2342707   2341122  
  6220.000000   2339548   2337991   2336464   2334989   2333585  
  6210.000000   2332263   2331011   2329798   2328581   2327319  
  6200.000000   2325997   2324620   2323221   2321841   2320517  
  6190.000000   2319267   2318095   2316987   2315932   2314921  
  6180.000000   2313955   2313032   2312152   2311303   2310469  
  6170.000000   2309635   2308798   2307963   2307149   2306372  
  6160.000000   2305644   2304958   2304296   2303632   2302944  
  6150.000000   2302216   2301442   2300623   2299761   2298859  
  6140.000000   2297923   2296964   2296005   2295076   2294208  
  6130.000000   2293423   2292725   2292099   2291521   2290965  
  6120.000000   2290419   2289884   2289381   2288926   2288539  
  6110.000000   2288213   2287939   2287689   2287445   2287191  
  6100.000000   2286928   2286661   2286410   2286187   2286019  
  6090.000000   2285923   2285930   2286055   2286313   2286690  
  6080.000000   2287158   2287662   2288158   2288600   2288987  
  6070.000000   2289335   2289695   2290114   2290642   2291290  
  6060.000000   2292064   2292934   2293888   2294903   2295981  
  6050.000000   2297116   2298319   2299577   2300889   2302237  
  6040.000000   2303627   2305066   2306583   2308199   2309942  
  6030.000000   2311812   2313802   2315881   2318026   2320204  
  6020.000000   2322403   2324603   2326800   2328977   2331130  
  6010.000000   2333250   2335348   2337441   2339565   2341749  
  6000.000000   2344022   2346387   2348840   2351349   2353893  
  5990.000000   2356442   2358989   2361528   2364071   2366624  
  5980.000000   2369210   2371840   2374542   2377334   2380241  
  5970.000000   2383268   2386416   2389651   2392939   2396232  
  5960.000000   2399498   2402715   2405891   2409036   2412178  
  5950.000000   2415330   2418509   2421717   2424961   2428252  
  5940.000000   2431610   2435059   2438617   2442296   2446083  
  5930.000000   2449956   2453871   2457784   2461642   2465396  
  5920.000000   2468998   2472408   2475589   2478526   2481213  
  5910.000000   2483671   2485931   2488039   2490034   2491958  
  5900.000000   2493837   2495706   2497582   2499501   2501481  
  5890.000000   2503549   2505706   2507951   2510257   2512598  
  5880.000000   2514936   2517240   2519479   2521621   2523639  
  5870.000000   2525505   2527205   2528739   2530137   2531446  
  5860.000000   2532733   2534061   2535481   2537018   2538678  
  5850.000000   2540448   2542316   2544276   2546332   2548492  
  5840.000000   2550765   2553145   2555625   2558178   2560788  
  5830.000000   2563433   2566104   2568787   2571474   2574141  
  5820.000000   2576774   2579346   2581854   2584298   2586696  
  5810.000000   2589072   2591444   2593832   2596234   2598666  
  5800.000000   2601123   2603642   2606230   2608925   2611708  
  5790.000000   2614567   2617410   2620148   2622629   2624725  
  5780.000000   2626284   2627210   2627420   2626910   2625710  
  5770.000000   2623935   2621725   2619270   2616730   2614267  
  5760.000000   2611959   2609863   2607960   2606236   2604643  
  5750.000000   2603171   2601795   2600516   2599315   2598172  
  5740.000000   2597053   2595929   2594781   2593601   2592398  
  5730.000000   2591178   2589949   2588700   2587424   2586109  
  5720.000000   2584761   2583399   2582058   2580768   2579550  
  5710.000000   2578405   2577323   2576286   2575291   2574345  
  5700.000000   2573474   2572702   2572041   2571483   2570999  
  5690.000000   2570557   2570123   2569689   2569256   2568850  
  5680.000000   2568478   2568145   2567820   2567459   2566993  
  5670.000000   2566361   2565498   2564361   2562919   2561167  
  5660.000000   2559121   2556831   2554365   2551817   2549273  
  5650.000000   2546812   2544475   2542278   2540204   2538232  
  5640.000000   2536340   2534526   2532797   2531165   2529640  
  5630.000000   2528215   2526877   2525604   2524385   2523210  
  5620.000000   2522088   2521014   2519991   2518994   2518004  
  5610.000000   2516990   2515946   2514875   2513810   2512785  
  5600.000000   2511837   2510986   2510241   2509591   2509018  
  5590.000000   2508503   2508025   2507564   2507101   2506614  
  5580.000000   2506089   2505520   2504919   2504305   2503704  
  5570.000000   2503131   2502582   2502031   2501442   2500776  
  5560.000000   2500012   2499154   2498223   2497261   2496300  
  5550.000000   2495368   2494469   2493602   2492756   2491923  
  5540.000000   2491097   2490275   2489449   2488611   2487750  
  5530.000000   2486866   2485968   2485079   2484223   2483419  
  5520.000000   2482667   2481950   2481232   2480478   2479660  
  5510.000000   2478771   2477815   2476809   2475767   2474700  
  5500.000000   2473611   2472506   2471394   2470294   2469218  
  5490.000000   2468175   2467149   2466113   2465026   2463862  
  5480.000000   2462609   2461285   2459919   2458553   2457207  
  5470.000000   2455887   2454573   2453244   2451879   2450475  
  5460.000000   2449037   2447578   2446099   2444596   2443051  
  5450.000000   2441454   2439806   2438129   2436457   2434827  
  5440.000000   2433258   2431749   2430287   2428850   2427431  
  5430.000000   2426028   2424661   2423334   2422049   2420786  
  5420.000000   2419531   2418271   2417034   2415863   2414830  
  5410.000000   2413981   2413343   2412884   2412561   2412303  
  5400.000000   2412084   2411889   2411762   2411735   2411864  
  5390.000000   2412151   2412600   2413174   2413871   2414678  
  5380.000000   2415636   2416766   2418110   2419653   2421388  
  5370.000000   2423252   2425224   2427254   2429363   2431542  
  5360.000000   2433848   2436282   2438908   2441725   2444808  
  5350.000000   2448172   2451907   2456025   2460601   2465602  
  5340.000000   2471067   2476936   2483256   2489982   2497182  
  5330.000000   2504813   2512927   2521449   2530411   2539740  
  5320.000000   2549513   2559717   2570500   2581883   2594017  
  5310.000000   2606878   2620550   2634940   2650093   2665919  
  5300.000000   2682496   2699795   2717947   2736958   2756955  
  5290.000000   2777901   2799839   2822627   2846200   2870359  
  5280.000000   2895034   2920104   2945622   2971612   2998220  
  5270.000000   3025495   3053486   3082083   3111129   3140394  
  5260.000000   3169683   3198879   3227951   3256956   3285930  
  5250.000000   3314891   3343714   3372249   3400228   3427498  
  5240.000000   3453882   3479424   3504134   3528196   3551655  
  5230.000000   3574649   3597103   3619018   3640205   3660620  
  5220.000000   3680107   3698725   3716443   3733437   3749745  
  5210.000000   3765537   3780773   3795496   3809533   3822843  
  5200.000000   3835252   3846805   3857459   3867384   3876610  
  5190.000000   3885298   3893418   3901033   3908034   3914445  
  5180.000000   3920171   3925281   3929733   3933623   3936918  
  5170.000000   3939694   3941914   3943660   3944920   3945796  
  5160.000000   3946283   3946454   3946257   3945707   3944720  
  5150.000000   3943311   3941433   3939148   3936459   3933448  
  5140.000000   3930117   3926528   3922673   3918604   3914320  
  5130.000000   3909874   3905261   3900510   3895590   3890503  
  5120.000000   3885221   3879769   3874162   3868466   3862721  
  5110.000000   3856984   3851269   3845592   3839939   3834310  
  5100.000000   3828698   3823118   3817569   3812062   3806584  
  5090.000000   3801130   3795689   3790269   3784880   3779545  
  5080.000000   3774273   3769062   3763879   3758684   3753429  
  5070.000000   3748086   3742639   3737108   3731509   3725873  
  5060.000000   3720203   3714498   3708732   3702893   3696958  
  5050.000000   3690934   3684816   3678616   3672326   3665942  
  5040.000000   3659441   3652820   3646072   3639220   3632287  
  5030.000000   3625313   3618328   3611365   3604441   3597573  
  5020.000000   3590771   3584044   3577398   3570831   3564341  
  5010.000000   3557915   3551550   3545236   3538986   3532805  
  5000.000000   3526724   3520752   3514921   3509228   3503694  
  4990.000000   3498307   3493091   3488039   3483184   3478520  
  4980.000000   3474081   3469850   3465853   3462068   3458524  
  4970.000000   3455205   3452156   3449364   3446878   3444677  
  4960.000000   3442800   3441217   3439965   3439016   3438414  
  4950.000000   3438139   3438238   3438683   3439515   3440691  
  4940.000000   3442244   3444128   3446375   3448946   3451876  
  4930.000000   3455127   3458735   3462664   3466953   3471573  
  4920.000000   3476568   3481914   3487651   3493748   3500228  
  4910.000000   3507046   3514206   3521656   3529384   3537337  
  4900.000000   3545495   3553811   3562261   3570811   3579438  
  4890.000000   3588116   3596809   3605486   3614081   3622549  
  4880.000000   3630805   3638806   3646472   3653781   3660660  
  4870.000000   3667100   3673026   3678431   3683244   3687474  
  4860.000000   3691082   3694114   3696567   3698514   3699964  
  4850.000000   3700991   3701603   3701875   3701822   3701527  
  4840.000000   3701020   3700380   3699631   3698829   3697982  
  4830.000000   3697123   3696257   3695412   3694607   3693870  
  4820.000000   3693224   3692685   3692267   3691970   3691798  
  4810.000000   3691745   3691818   3692011   3692333   3692774  
  4800.000000   3693340   3694018   3694815   3695722   3696748  
  4790.000000   3697889   3699152   3700527   3702010   3703581  
  4780.000000   3705230   3706930   3708672   3710433   3712205  
  4770.000000   3713973   3715733   3717476   3719209   3720935  
  4760.000000   3722664   3724402   3726149   3727902   3729647  
  4750.000000   3731369   3733051   3734684   3736262   3737790  
  4740.000000   3739272   3740722   3742147   3743553   3744941  
  4730.000000   3746306   3747643   3748938   3750188   3751382  
  4720.000000   3752528   3753630   3754717   3755814   3756965  
  4710.000000   3758203   3759576   3761110   3762838   3764771  
  4700.000000   3766922   3769286   3771862   3774630   3777582  
  4690.000000   3780694   3783955   3787341   3790841   3794426  
  4680.000000   3798074   3801737   3805380   3808946   3812407  
  4670.000000   3815730   3818925   3822007   3825030   3828038  
  4660.000000   3831097   3834251   3837547   3841012   3844675  
  4650.000000   3848546   3852634   3856931   3861414   3866049  
  4640.000000   3870785   3875572   3880356   3885102   3889777  
  4630.000000   3894367   3898853   3903224   3907448   3911500  
  4620.000000   3915327   3918893   3922145   3925062   3927614  
  4610.000000   3929820   3931687   3933277   3934627   3935818  
  4600.000000   3936883   3937886   3938827   3939735   3940576  
  4590.000000   3941355   3942024   3942578   3942968   3943181  
  4580.000000   3943167   3942913   3942380   3941574   3940492  
  4570.000000   3939174   3937647   3935968   3934166   3932280  
  4560.000000   3930316   3928294   3926206   3924070   3921889  
  4550.000000   3919687   3917472   3915263   3913056   3910855  
  4540.000000   3908648   3906434   3904206   3901962   3899705  
  4530.000000   3897430   3895138   3892821   3890487   3888133  
  4520.000000   3885788   3883459   3881192   3878990   3876900  
  4510.000000   3874919   3873099   3871445   3870039   3868910  
  4500.000000   3868163   3867826   3867995   3868662   3869895  
  4490.000000   3871660   3874019   3876945   3880522   3884733  
  4480.000000   3889666   3895287   3901657   3908709   3916476  
  4470.000000   3924874   3933922   3943537   3953732   3964419  
  4460.000000   3975600   3987185   3999166   4011460   4024058  
  4450.000000   4036889   4049943   4063158   4076522   4089988  
  4440.000000   4103540   4117153   4130807   4144488   4158162  
  4430.000000   4171806   4185363   4198803   4212050   4225080  
  4420.000000   4237815   4250241   4262280   4273918   4285065  
  4410.000000   4295697   4305715   4315100   4323775   4331758  
  4400.000000   4339030   4345667   4351710   4357283   4362456  
  4390.000000   4367363   4372072   4376695   4381276   4385888  
  4380.000000   4390539   4395263   4400044   4404898   4409814  
  4370.000000   4414818   4419919   4425144   4430495   4435973  
  4360.000000   4441546   4447182   4452817   4458420   4463914  
  4350.000000   4469293   4474476   4479493   4484288   4488942  
  4340.000000   4493449   4497911   4502287   4506541   4510407  
  4330.000000   4513541   4515410   4515503   4513359   4508778  
  4320.000000   4501847   4493011   4482950   4472494   4462407  
  4310.000000   4453311   4445543   4439220   4434233   4430396  
  4300.000000   4427482   4425317   4423786   4422808   4422351  
  4290.000000   4422336   4422729   4423431   4424417   4425623  
  4280.000000   4427063   4428721   4430617   4432745   4435092  
  4270.000000   4437644   4440351   4443159   4445935   4448509  
  4260.000000   4450608   4451935   4452165   4451056   4448471  
  4250.000000   4444465   4439243   4433173   4426662   4420148  
  4240.000000   4413954   4408327   4403342   4399004   4395200  
  4230.000000   4391814   4388697   4385732   4382824   4379902  
  4220.000000   4376948   4373947   4370956   4368015   4365238  
  4210.000000   4362690   4360488   4358670   4357295   4356343  
  4200.000000   4355804   4355606   4355707   4356030   4356543  
  4190.000000   4357186   4357960   4358824   4359797   4360843  
  4180.000000   4361981   4363173   4364442   4365761   4367177  
  4170.000000   4368699   4370414   4372363   4374647   4377303  
  4160.000000   4380402   4383935   4387928   4392323   4397123  
  4150.000000   4402260   4407749   4413541   4419680   4426139  
  4140.000000   4432983   4440192   4447833   4455877   4464375  
  4130.000000   4473283   4482644   4492413   4502639   4513296  
  4120.000000   4524445   4536073   4548236   4560914   4574139  
  4110.000000   4587872   4602124   4616841   4632012   4647564  
  4100.000000   4663457   4679602   4695941   4712396   4728930  
  4090.000000   4745510   4762129   4778790   4795483   4812210  
  4080.000000   4828932   4845636   4862259   4878783   4895126  
  4070.000000   4911259   4927071   4942521   4957486   4971940  
  4060.000000   4985784   4999032   5011615   5023578   5034867  
  4050.000000   5045554   5055608   5065142   5074152   5082759  
  4040.000000   5090932   5098739   5106083   5112977   5119303  
  4030.000000   5125087   5130248   5134842   5138819   5142229  
  4020.000000   5145002   5147189   5148785   5149873   5150438  
  4010.000000   5150609   5150451   5149973   5148983   5147504  
  4000.000000   5145772  
##END= 
