##TITLE= Sample 008 By ssteindl date Donnerstag, November 22 2018
##JCAMP-DX= 4.24
##DATA TYPE= INFRARED SPECTRUM
##ORIGIN= Exported PE Spectrum Data File
##OWNER= Sandra Steindl
##DATE= 18/11/22
##TIME= 10:16:34.00
##SPECTROMETER/DATA SYSTEM= PERKIN-ELMER Frontier FT-IR/NIR IR
##INSTRUMENT PARAMETERS=
  APODIZATION=stark
  DETECTOR=INGAAS
##RESOLUTION= 16.000000
##DELTAX= -2.000000
##XUNITS= 1/CM
##YUNITS= A
##XFACTOR= 1.00
##YFACTOR= 0.00000011920928955078
##FIRSTX= 10000.00
##LASTX= 4000.00
##NPOINTS= 3001
##FIRSTY= 0.268492
##MAXY= 0.604044
##MINY= 0.188844
##XYDATA= (X++(Y..Y))
 10000.000000   2252270   2256628   2260701   2264000   2266209  
  9990.000000   2267230   2267075   2265824   2263609   2260606  
  9980.000000   2256889   2252597   2247954   2243495   2239919  
  9970.000000   2238074   2238577   2241641   2246786   2252957  
  9960.000000   2258683   2262551   2263584   2261533   2256923  
  9950.000000   2250820   2244518   2239115   2235283   2233158  
  9940.000000   2232398   2232393   2232413   2231856   2230325  
  9930.000000   2227743   2224353   2220646   2217236   2214619  
  9920.000000   2212980   2212053   2211204   2209670   2206941  
  9910.000000   2203086   2198850   2195502   2194321   2196110  
  9900.000000   2200734   2207086   2213400   2217823   2219088  
  9890.000000   2216831   2211708   2204975   2198055   2191994  
  9880.000000   2187290   2183892   2181485   2179763   2178570  
  9870.000000   2177941   2177889   2178379   2179191   2180142  
  9860.000000   2181128   2182283   2183836   2185930   2188421  
  9850.000000   2190753   2192160   2191884   2189580   2185451  
  9840.000000   2180248   2174946   2170360   2166820   2164105  
  9830.000000   2161671   2159004   2155975   2152913   2150474  
  9820.000000   2149257   2149515   2150975   2152972   2154739  
  9810.000000   2155734   2155842   2155323   2154618   2154062  
  9800.000000   2153738   2153476   2153018   2152219   2151144  
  9790.000000   2150010   2149016   2148138   2147091   2145420  
  9780.000000   2142750   2139008   2134506   2129831   2125608  
  9770.000000   2122243   2119812   2118112   2116845   2115848  
  9760.000000   2115168   2115043   2115680   2117085   2118961  
  9750.000000   2120792   2122100   2122631   2122515   2122108  
  9740.000000   2121775   2121622   2121378   2120557   2118700  
  9730.000000   2115738   2112104   2108658   2106353   2105798  
  9720.000000   2106972   2109131   2111058   2111469   2109477  
  9710.000000   2104897   2098315   2090891   2084023   2078991  
  9700.000000   2076674   2077405   2080908   2086385   2092648  
  9690.000000   2098374   2102392   2103951   2102950   2099938  
  9680.000000   2095989   2092294   2089814   2088886   2089248  
  9670.000000   2090140   2090739   2090491   2089317   2087650  
  9660.000000   2086112   2085325   2085546   2086701   2088410  
  9650.000000   2090244   2091908   2093299   2094464   2095405  
  9640.000000   2095970   2095832   2094604   2092090   2088403  
  9630.000000   2084050   2079735   2076166   2073779   2072651  
  9620.000000   2072498   2072840   2073134   2072944   2071935  
  9610.000000   2069927   2066835   2062738   2057894   2052791  
  9600.000000   2048095   2044500   2042526   2042278   2043362  
  9590.000000   2044932   2045938   2045472   2043076   2038904  
  9580.000000   2033655   2028312   2023826   2020825   2019504  
  9570.000000   2019626   2020680   2022040   2023151   2023608  
  9560.000000   2023225   2022002   2020103   2017794   2015403  
  9550.000000   2013224   2011497   2010285   2009542   2009091  
  9540.000000   2008761   2008456   2008176   2008036   2008116  
  9530.000000   2008460   2008998   2009613   2010228   2010836  
  9520.000000   2011531   2012372   2013299   2014024   2014066  
  9510.000000   2012909   2010245   2006204   2001425   1996928  
  9500.000000   1993761   1992648   1993653   1996172   1999087  
  9490.000000   2001210   2001696   2000342   1997611   1994382  
  9480.000000   1991546   1989664   1988779   1988483   1988169  
  9470.000000   1987316   1985771   1983758   1981771   1980282  
  9460.000000   1979492   1979237   1979055   1978424   1977020  
  9450.000000   1974872   1972388   1970192   1968873   1968779  
  9440.000000   1969843   1971679   1973693   1975374   1976414  
  9430.000000   1976803   1976696   1976306   1975724   1974881  
  9420.000000   1973561   1971508   1968574   1964773   1960327  
  9410.000000   1955531   1950674   1945931   1941367   1936995  
  9400.000000   1932852   1929069   1925845   1923413   1921933  
  9390.000000   1921439   1921828   1922876   1924364   1926077  
  9380.000000   1927905   1929721   1931422   1932793   1933623  
  9370.000000   1933714   1933073   1931916   1930700   1929957  
  9360.000000   1930153   1931524   1933969   1937112   1940359  
  9350.000000   1943175   1945151   1946210   1946468   1946252  
  9340.000000   1945888   1945675   1945759   1946125   1946554  
  9330.000000   1946648   1945907   1943820   1940039   1934487  
  9320.000000   1927463   1919645   1911935   1905276   1900334  
  9310.000000   1897389   1896257   1896474   1897498   1898925  
  9300.000000   1900581   1902456   1904547   1906665   1908396  
  9290.000000   1909167   1908537   1906373   1903074   1899448  
  9280.000000   1896530   1895147   1895610   1897598   1900274  
  9270.000000   1902657   1903931   1903732   1902180   1899780  
  9260.000000   1897158   1894810   1892947   1891504   1890287  
  9250.000000   1889108   1887893   1886666   1885505   1884459  
  9240.000000   1883504   1882578   1881621   1880651   1879773  
  9230.000000   1879132   1878852   1878946   1879307   1879749  
  9220.000000   1880073   1880168   1880010   1879696   1879347  
  9210.000000   1879081   1878925   1878855   1878768   1878557  
  9200.000000   1878077   1877187   1875752   1873662   1870890  
  9190.000000   1867485   1863603   1859449   1855242   1851149  
  9180.000000   1847260   1843598   1840183   1837123   1834637  
  9170.000000   1833024   1832536   1833257   1835020   1837387  
  9160.000000   1839772   1841588   1842475   1842357   1841478  
  9150.000000   1840238   1839077   1838306   1838052   1838244  
  9140.000000   1838692   1839177   1839532   1839649   1839455  
  9130.000000   1838892   1837911   1836498   1834692   1832607  
  9120.000000   1830420   1828334   1826532   1825128   1824138  
  9110.000000   1823543   1823268   1823277   1823513   1823947  
  9100.000000   1824546   1825263   1826043   1826762   1827267  
  9090.000000   1827335   1826763   1825336   1822938   1819617  
  9080.000000   1815679   1811670   1808250   1806081   1805597  
  9070.000000   1806889   1809595   1813047   1816461   1819168  
  9060.000000   1820753   1821106   1820377   1818836   1816759  
  9050.000000   1814349   1811773   1809196   1806838   1804941  
  9040.000000   1803687   1803112   1803028   1803076   1802818  
  9030.000000   1801923   1800296   1798089   1795651   1793343  
  9020.000000   1791444   1790020   1788972   1788140   1787426  
  9010.000000   1786887   1786681   1787031   1788081   1789826  
  9000.000000   1792072   1794493   1796749   1798506   1799501  
  8990.000000   1799510   1798408   1796135   1792790   1788666  
  8980.000000   1784307   1780403   1777607   1776378   1776786  
  8970.000000   1778533   1780962   1783363   1785144   1786067  
  8960.000000   1786215   1785909   1785516   1785252   1785107  
  8950.000000   1784829   1784099   1782640   1780392   1777494  
  8940.000000   1774270   1771106   1768364   1766310   1765061  
  8930.000000   1764607   1764803   1765421   1766177   1766800  
  8920.000000   1767099   1767029   1766719   1766435   1766499  
  8910.000000   1767135   1768382   1770031   1771719   1773019  
  8900.000000   1773617   1773401   1772500   1771197   1769806  
  8890.000000   1768559   1767545   1766733   1766026   1765350  
  8880.000000   1764709   1764175   1763842   1763762   1763895  
  8870.000000   1764136   1764329   1764366   1764200   1763884  
  8860.000000   1763544   1763329   1763382   1763762   1764437  
  8850.000000   1765255   1765977   1766306   1765961   1764765  
  8840.000000   1762738   1760152   1757490   1755336   1754190  
  8830.000000   1754314   1755618   1757677   1759863   1761539  
  8820.000000   1762281   1761984   1760861   1759311   1757762  
  8810.000000   1756510   1755677   1755223   1755060   1755113  
  8800.000000   1755386   1755916   1756711   1757695   1758670  
  8790.000000   1759401   1759687   1759473   1758874   1758135  
  8780.000000   1757547   1757317   1757510   1758012   1758590  
  8770.000000   1758980   1758984   1758523   1757661   1756563  
  8760.000000   1755453   1754553   1754033   1753989   1754416  
  8750.000000   1755226   1756259   1757337   1758320   1759154  
  8740.000000   1759884   1760629   1761507   1762557   1763696  
  8730.000000   1764709   1765343   1765383   1764788   1763687  
  8720.000000   1762366   1761148   1760279   1759850   1759784  
  8710.000000   1759918   1760103   1760306   1760619   1761225  
  8700.000000   1762262   1763758   1765551   1767358   1768850  
  8690.000000   1769803   1770175   1770105   1769852   1769647  
  8680.000000   1769609   1769663   1769585   1769086   1767959  
  8670.000000   1766157   1763849   1761372   1759137   1757518  
  8660.000000   1756733   1756818   1757627   1758914   1760434  
  8650.000000   1762003   1763562   1765134   1766799   1768591  
  8640.000000   1770467   1772278   1773839   1774987   1775685  
  8630.000000   1776051   1776350   1776902   1777952   1779571  
  8620.000000   1781600   1783695   1785451   1786537   1786818  
  8610.000000   1786375   1785461   1784393   1783435   1782747  
  8600.000000   1782363   1782270   1782457   1782976   1783916  
  8590.000000   1785358   1787278   1789521   1791784   1793730  
  8580.000000   1795074   1795698   1795678   1795246   1794713  
  8570.000000   1794349   1794309   1794589   1795060   1795530  
  8560.000000   1795809   1795767   1795349   1794587   1793577  
  8550.000000   1792474   1791449   1790687   1790330   1790458  
  8540.000000   1791050   1791997   1793135   1794281   1795290  
  8530.000000   1796076   1796634   1796980   1797154   1797160  
  8520.000000   1797012   1796710   1796298   1795854   1795500  
  8510.000000   1795371   1795567   1796151   1797135   1798500  
  8500.000000   1800205   1802186   1804358   1806574   1808624  
  8490.000000   1810260   1811269   1811554   1811189   1810451  
  8480.000000   1809752   1809521   1810055   1811424   1813442  
  8470.000000   1815714   1817752   1819128   1819598   1819148  
  8460.000000   1817970   1816395   1814803   1813531   1812816  
  8450.000000   1812771   1813400   1814613   1816243   1818090  
  8440.000000   1819950   1821671   1823142   1824340   1825295  
  8430.000000   1826084   1826773   1827404   1827985   1828500  
  8420.000000   1828920   1829228   1829401   1829429   1829279  
  8410.000000   1828912   1828273   1827332   1826101   1824644  
  8400.000000   1823058   1821447   1819891   1818433   1817083  
  8390.000000   1815845   1814745   1813850   1813246   1813011  
  8380.000000   1813169   1813674   1814410   1815228   1815994  
  8370.000000   1816631   1817136   1817557   1817961   1818390  
  8360.000000   1818848   1819297   1819676   1819916   1819956  
  8350.000000   1819744   1819239   1818415   1817276   1815877  
  8340.000000   1814326   1812783   1811397   1810287   1809464  
  8330.000000   1808866   1808357   1807816   1807182   1806479  
  8320.000000   1805804   1805249   1804848   1804504   1804024  
  8310.000000   1803175   1801810   1799937   1797761   1795633  
  8300.000000   1793944   1793008   1792945   1793661   1794870  
  8290.000000   1796211   1797345   1798045   1798228   1797932  
  8280.000000   1797277   1796394   1795388   1794313   1793187  
  8270.000000   1792009   1790792   1789568   1788389   1787321  
  8260.000000   1786408   1785671   1785068   1784521   1783913  
  8250.000000   1783144   1782161   1780993   1779742   1778563  
  8240.000000   1777590   1776894   1776443   1776114   1775733  
  8230.000000   1775150   1774286   1773168   1771887   1770562  
  8220.000000   1769259   1767979   1766653   1765192   1763556  
  8210.000000   1761767   1759921   1758121   1756427   1754817  
  8200.000000   1753187   1751428   1749479   1747414   1745425  
  8190.000000   1743797   1742787   1742538   1742997   1743926  
  8180.000000   1744957   1745698   1745831   1745171   1743691  
  8170.000000   1741488   1738758   1735735   1732675   1729805  
  8160.000000   1727303   1725266   1723682   1722452   1721393  
  8150.000000   1720332   1719141   1717816   1716458   1715236  
  8140.000000   1714296   1713675   1713281   1712892   1712264  
  8130.000000   1711190   1709608   1707599   1705372   1703179  
  8120.000000   1701249   1699723   1698644   1697969   1697601  
  8110.000000   1697424   1697315   1697164   1696872   1696381  
  8100.000000   1695685   1694846   1693984   1693233   1692685  
  8090.000000   1692340   1692087   1691738   1691104   1690075  
  8080.000000   1688674   1687047   1685406   1683933   1682708  
  8070.000000   1681676   1680685   1679559   1678192   1676602  
  8060.000000   1674926   1673378   1672154   1671376   1671045  
  8050.000000   1671061   1671272   1671520   1671686   1671691  
  8040.000000   1671492   1671059   1670375   1669444   1668302  
  8030.000000   1667028   1665730   1664521   1663480   1662633  
  8020.000000   1661943   1661341   1660740   1660078   1659310  
  8010.000000   1658414   1657372   1656168   1654798   1653281  
  8000.000000   1651688   1650124   1648717   1647560   1646689  
  7990.000000   1646050   1645535   1645019   1644428   1643767  
  7980.000000   1643128   1642639   1642411   1642468   1642742  
  7970.000000   1643084   1643342   1643409   1643277   1643022  
  7960.000000   1642767   1642619   1642616   1642713   1642803  
  7950.000000   1642769   1642532   1642083   1641479   1640809  
  7940.000000   1640153   1639549   1638980   1638393   1637732  
  7930.000000   1636970   1636127   1635271   1634496   1633896  
  7920.000000   1633534   1633432   1633561   1633855   1634222  
  7910.000000   1634565   1634807   1634903   1634853   1634693  
  7900.000000   1634489   1634302   1634179   1634127   1634121  
  7890.000000   1634113   1634051   1633911   1633696   1633457  
  7880.000000   1633257   1633178   1633278   1633595   1634121  
  7870.000000   1634810   1635572   1636281   1636792   1636958  
  7860.000000   1636667   1635870   1634608   1633016   1631303  
  7850.000000   1629707   1628440   1627631   1627301   1627365  
  7840.000000   1627654   1627987   1628202   1628221   1628040  
  7830.000000   1627734   1627414   1627195   1627159   1627338  
  7820.000000   1627710   1628201   1628711   1629121   1629328  
  7810.000000   1629255   1628867   1628182   1627263   1626208  
  7800.000000   1625132   1624137   1623298   1622646   1622166  
  7790.000000   1621809   1621505   1621193   1620828   1620403  
  7780.000000   1619942   1619495   1619109   1618815   1618609  
  7770.000000   1618450   1618277   1618027   1617667   1617206  
  7760.000000   1616692   1616193   1615762   1615411   1615094  
  7750.000000   1614724   1614200   1613456   1612492   1611381  
  7740.000000   1610248   1609232   1608430   1607878   1607532  
  7730.000000   1607297   1607061   1606735   1606270   1605668  
  7720.000000   1604964   1604206   1603441   1602707   1602031  
  7710.000000   1601430   1600914   1600469   1600070   1599669  
  7700.000000   1599225   1598707   1598127   1597528   1596975  
  7690.000000   1596528   1596207   1595988   1595807   1595604  
  7680.000000   1595355   1595097   1594921   1594922   1595149  
  7670.000000   1595548   1595968   1596184   1595989   1595259  
  7660.000000   1594024   1592460   1590853   1589498   1588618  
  7650.000000   1588307   1588513   1589088   1589841   1590605  
  7640.000000   1591273   1591797   1592171   1592404   1592496  
  7630.000000   1592447   1592265   1591981   1591659   1591374  
  7620.000000   1591198   1591155   1591218   1591300   1591273  
  7610.000000   1591016   1590441   1589537   1588377   1587102  
  7600.000000   1585893   1584925   1584325   1584139   1584324  
  7590.000000   1584753   1585258   1585676   1585901   1585911  
  7580.000000   1585776   1585618   1585571   1585717   1586071  
  7570.000000   1586557   1587059   1587449   1587651   1587661  
  7560.000000   1587545   1587418   1587396   1587570   1587975  
  7550.000000   1588598   1589382   1590247   1591105   1591873  
  7540.000000   1592485   1592889   1593075   1593059   1592906  
  7530.000000   1592699   1592532   1592471   1592548   1592743  
  7520.000000   1593019   1593338   1593694   1594130   1594721  
  7510.000000   1595551   1596667   1598057   1599649   1601316  
  7500.000000   1602922   1604346   1605528   1606453   1607164  
  7490.000000   1607714   1608175   1608601   1609043   1609538  
  7480.000000   1610122   1610819   1611641   1612587   1613640  
  7470.000000   1614774   1615956   1617161   1618370   1619569  
  7460.000000   1620750   1621903   1623028   1624133   1625245  
  7450.000000   1626397   1627630   1628965   1630402   1631902  
  7440.000000   1633408   1634848   1636181   1637387   1638493  
  7430.000000   1639543   1640602   1641719   1642932   1644261  
  7420.000000   1645718   1647319   1649083   1651029   1653161  
  7410.000000   1655461   1657885   1660369   1662837   1665215  
  7400.000000   1667447   1669491   1671325   1672941   1674355  
  7390.000000   1675600   1676735   1677834   1678974   1680222  
  7380.000000   1681613   1683146   1684779   1686451   1688099  
  7370.000000   1689674   1691148   1692514   1693776   1694949  
  7360.000000   1696052   1697123   1698216   1699404   1700759  
  7350.000000   1702337   1704148   1706144   1708224   1710258  
  7340.000000   1712129   1713763   1715145   1716314   1717341  
  7330.000000   1718304   1719269   1720281   1721369   1722552  
  7320.000000   1723841   1725245   1726755   1728343   1729959  
  7310.000000   1731537   1733019   1734369   1735587   1736696  
  7300.000000   1737744   1738771   1739809   1740871   1741965  
  7290.000000   1743104   1744310   1745621   1747068   1748669  
  7280.000000   1750409   1752242   1754094   1755883   1757538  
  7270.000000   1759011   1760293   1761396   1762361   1763233  
  7260.000000   1764063   1764890   1765751   1766674   1767686  
  7250.000000   1768811   1770075   1771500   1773106   1774892  
  7240.000000   1776844   1778913   1781043   1783158   1785209  
  7230.000000   1787165   1789052   1790911   1792822   1794832  
  7220.000000   1796977   1799242   1801601   1804009   1806454  
  7210.000000   1808946   1811536   1814278   1817223   1820377  
  7200.000000   1823714   1827167   1830673   1834173   1837647  
  7190.000000   1841081   1844484   1847840   1851127   1854292  
  7180.000000   1857301   1860127   1862800   1865377   1867957  
  7170.000000   1870636   1873504   1876603   1879946   1883497  
  7160.000000   1887205   1890999   1894826   1898641   1902441  
  7150.000000   1906235   1910073   1914001   1918082   1922336  
  7140.000000   1926772   1931342   1936006   1940708   1945441  
  7130.000000   1950216   1955090   1960112   1965328   1970724  
  7120.000000   1976269   1981883   1987509   1993095   1998642  
  7110.000000   2004160   2009684   2015218   2020762   2026289  
  7100.000000   2031799   2037303   2042855   2048520   2054359  
  7090.000000   2060395   2066599   2072900   2079213   2085463  
  7080.000000   2091611   2097650   2103597   2109458   2115228  
  7070.000000   2120876   2126375   2131718   2136939   2142103  
  7060.000000   2147299   2152589   2158001   2163515   2169078  
  7050.000000   2174635   2180154   2185647   2191154   2196740  
  7040.000000   2202450   2208305   2214291   2220369   2226486  
  7030.000000   2232590   2238626   2244543   2250284   2255798  
  7020.000000   2261046   2266024   2270755   2275298   2279714  
  7010.000000   2284067   2288384   2292679   2296937   2301165  
  7000.000000   2305364   2309570   2313797   2318066   2322346  
  6990.000000   2326600   2330761   2334785   2338642   2342340  
  6980.000000   2345891   2349313   2352601   2355742   2358719  
  6970.000000   2361547   2364265   2366956   2369692   2372535  
  6960.000000   2375482   2378498   2381498   2384417   2387208  
  6950.000000   2389881   2392463   2395000   2397499   2399944  
  6940.000000   2402275   2404443   2406412   2408195   2409834  
  6930.000000   2411401   2412946   2414508   2416083   2417665  
  6920.000000   2419235   2420795   2422343   2423884   2425400  
  6910.000000   2426867   2428248   2429530   2430722   2431873  
  6900.000000   2433044   2434292   2435640   2437069   2438523  
  6890.000000   2439939   2441265   2442484   2443605   2444654  
  6880.000000   2445647   2446590   2447471   2448289   2449061  
  6870.000000   2449834   2450670   2451624   2452713   2453908  
  6860.000000   2455137   2456316   2457374   2458289   2459081  
  6850.000000   2459807   2460522   2461260   2462019   2462771  
  6840.000000   2463477   2464113   2464678   2465199   2465709  
  6830.000000   2466243   2466814   2467421   2468046   2468671  
  6820.000000   2469272   2469831   2470323   2470725   2471015  
  6810.000000   2471184   2471237   2471205   2471130   2471060  
  6800.000000   2471027   2471050   2471126   2471247   2471400  
  6790.000000   2471588   2471815   2472087   2472400   2472734  
  6780.000000   2473058   2473341   2473559   2473705   2473789  
  6770.000000   2473832   2473856   2473880   2473924   2473999  
  6760.000000   2474123   2474305   2474544   2474822   2475100  
  6750.000000   2475332   2475483   2475543   2475545   2475554  
  6740.000000   2475646   2475878   2476266   2476773   2477323  
  6730.000000   2477828   2478221   2478480   2478633   2478740  
  6720.000000   2478874   2479090   2479409   2479820   2480285  
  6710.000000   2480758   2481199   2481584   2481901   2482156  
  6700.000000   2482362   2482541   2482706   2482872   2483029  
  6690.000000   2483158   2483219   2483177   2483005   2482706  
  6680.000000   2482305   2481853   2481392   2480952   2480518  
  6670.000000   2480060   2479524   2478880   2478119   2477274  
  6660.000000   2476391   2475523   2474691   2473894   2473098  
  6650.000000   2472270   2471387   2470456   2469498   2468547  
  6640.000000   2467617   2466703   2465772   2464785   2463710  
  6630.000000   2462536   2461275   2459956   2458604   2457244  
  6620.000000   2455882   2454525   2453174   2451843   2450540  
  6610.000000   2449277   2448044   2446825   2445586   2444305  
  6600.000000   2442965   2441572   2440144   2438701   2437254  
  6590.000000   2435802   2434329   2432824   2431280   2429707  
  6580.000000   2428117   2426530   2424952   2423386   2421824  
  6570.000000   2420268   2418727   2417219   2415757   2414338  
  6560.000000   2412934   2411496   2409971   2408326   2406562  
  6550.000000   2404728   2402898   2401152   2399545   2398092  
  6540.000000   2396764   2395510   2394271   2393008   2391705  
  6530.000000   2390363   2388990   2387590   2386156   2384680  
  6520.000000   2383162   2381618   2380079   2378583   2377158  
  6510.000000   2375814   2374536   2373298   2372065   2370821  
  6500.000000   2369562   2368305   2367071   2365879   2364733  
  6490.000000   2363624   2362528   2361414   2360254   2359020  
  6480.000000   2357692   2356262   2354732   2353120   2351459  
  6470.000000   2349792   2348161   2346602   2345132   2343750  
  6460.000000   2342438   2341168   2339913   2338647   2337350  
  6450.000000   2336001   2334585   2333088   2331509   2329862  
  6440.000000   2328187   2326534   2324970   2323547   2322304  
  6430.000000   2321250   2320373   2319636   2319001   2318420  
  6420.000000   2317858   2317277   2316662   2315999   2315301  
  6410.000000   2314590   2313915   2313319   2312843   2312502  
  6400.000000   2312290   2312167   2312088   2312006   2311889  
  6390.000000   2311724   2311516   2311278   2311021   2310753  
  6380.000000   2310479   2310205   2309940   2309697   2309482  
  6370.000000   2309293   2309109   2308898   2308623   2308260  
  6360.000000   2307802   2307265   2306681   2306089   2305518  
  6350.000000   2304987   2304498   2304046   2303618   2303200  
  6340.000000   2302765   2302288   2301731   2301067   2300279  
  6330.000000   2299380   2298404   2297405   2296436   2295531  
  6320.000000   2294688   2293875   2293038   2292129   2291117  
  6310.000000   2290012   2288844   2287667   2286522   2285439  
  6300.000000   2284418   2283445   2282492   2281535   2280550  
  6290.000000   2279522   2278435   2277280   2276048   2274743  
  6280.000000   2273377   2271972   2270550   2269131   2267717  
  6270.000000   2266304   2264875   2263421   2261940   2260446  
  6260.000000   2258955   2257484   2256033   2254589   2253125  
  6250.000000   2251611   2250025   2248366   2246649   2244906  
  6240.000000   2243174   2241491   2239887   2238378   2236970  
  6230.000000   2235647   2234378   2233119   2231820   2230442  
  6220.000000   2228971   2227421   2225842   2224298   2222851  
  6210.000000   2221534   2220342   2219229   2218123   2216952  
  6200.000000   2215668   2214258   2212753   2211207   2209685  
  6190.000000   2208244   2206916   2205710   2204613   2203596  
  6180.000000   2202625   2201666   2200695   2199695   2198667  
  6170.000000   2197619   2196568   2195526   2194503   2193494  
  6160.000000   2192491   2191479   2190457   2189434   2188432  
  6150.000000   2187478   2186590   2185768   2184996   2184243  
  6140.000000   2183478   2182683   2181857   2181014   2180170  
  6130.000000   2179334   2178505   2177663   2176799   2175907  
  6120.000000   2175006   2174124   2173301   2172560   2171914  
  6110.000000   2171346   2170837   2170364   2169924   2169522  
  6100.000000   2169182   2168918   2168741   2168638   2168594  
  6090.000000   2168580   2168585   2168600   2168634   2168685  
  6080.000000   2168760   2168843   2168929   2169004   2169082  
  6070.000000   2169173   2169318   2169539   2169868   2170312  
  6060.000000   2170877   2171549   2172331   2173207   2174185  
  6050.000000   2175251   2176408   2177641   2178952   2180339  
  6040.000000   2181824   2183421   2185161   2187047   2189080  
  6030.000000   2191227   2193461   2195736   2198033   2200328  
  6020.000000   2202626   2204920   2207216   2209501   2211775  
  6010.000000   2214028   2216277   2218531   2220824   2223175  
  6000.000000   2225607   2228119   2230715   2233384   2236133  
  5990.000000   2238961   2241888   2244913   2248043   2251257  
  5980.000000   2254545   2257879   2261255   2264668   2268139  
  5970.000000   2271677   2275305   2279021   2282830   2286719  
  5960.000000   2290688   2294726   2298841   2303018   2307262  
  5950.000000   2311552   2315885   2320252   2324666   2329144  
  5940.000000   2333715   2338404   2343221   2348164   2353209  
  5930.000000   2358323   2363459   2368574   2373616   2378530  
  5920.000000   2383257   2387741   2391933   2395813   2399390  
  5910.000000   2402710   2405838   2408856   2411830   2414820  
  5900.000000   2417850   2420945   2424104   2427343   2430652  
  5890.000000   2434040   2437479   2440948   2444401   2447799  
  5880.000000   2451096   2454264   2457269   2460083   2462674  
  5870.000000   2465012   2467080   2468888   2470479   2471935  
  5860.000000   2473356   2474844   2476468   2478267   2480225  
  5850.000000   2482308   2484461   2486646   2488836   2491021  
  5840.000000   2493201   2495375   2497537   2499674   2501784  
  5830.000000   2503863   2505925   2507982   2510052   2512138  
  5820.000000   2514244   2516363   2518496   2520646   2522825  
  5810.000000   2525044   2527304   2529606   2531930   2534273  
  5800.000000   2536622   2539005   2541430   2543943   2546536  
  5790.000000   2549208   2551882   2554478   2556847   2558857  
  5780.000000   2560338   2561168   2561231   2560493   2558964  
  5770.000000   2556752   2554007   2550943   2547752   2544620  
  5760.000000   2541643   2538879   2536299   2533874   2531553  
  5750.000000   2529333   2527219   2525252   2523460   2521861  
  5740.000000   2520449   2519193   2518057   2516993   2515971  
  5730.000000   2514948   2513901   2512795   2511617   2510357  
  5720.000000   2509040   2507703   2506406   2505196   2504111  
  5710.000000   2503149   2502291   2501497   2500735   2499980  
  5700.000000   2499231   2498495   2497781   2497090   2496413  
  5690.000000   2495739   2495054   2494367   2493684   2493026  
  5680.000000   2492394   2491784   2491158   2490475   2489669  
  5670.000000   2488688   2487475   2485994   2484211   2482120  
  5660.000000   2479727   2477076   2474227   2471271   2468293  
  5650.000000   2465373   2462554   2459852   2457251   2454729  
  5640.000000   2452265   2449860   2447526   2445288   2443166  
  5630.000000   2441167   2439289   2437516   2435840   2434248  
  5620.000000   2432747   2431328   2429995   2428729   2427520  
  5610.000000   2426350   2425223   2424141   2423128   2422192  
  5600.000000   2421343   2420565   2419838   2419134   2418433  
  5590.000000   2417726   2417014   2416299   2415581   2414849  
  5580.000000   2414088   2413288   2412447   2411580   2410711  
  5570.000000   2409862   2409043   2408247   2407449   2406625  
  5560.000000   2405751   2404823   2403848   2402843   2401823  
  5550.000000   2400798   2399768   2398733   2397695   2396665  
  5540.000000   2395655   2394677   2393731   2392803   2391873  
  5530.000000   2390922   2389941   2388939   2387936   2386955  
  5520.000000   2386007   2385093   2384193   2383288   2382357  
  5510.000000   2381396   2380405   2379393   2378357   2377294  
  5500.000000   2376188   2375029   2373813   2372556   2371281  
  5490.000000   2370012   2368757   2367511   2366247   2364940  
  5480.000000   2363565   2362119   2360611   2359062   2357487  
  5470.000000   2355899   2354293   2352664   2351005   2349321  
  5460.000000   2347616   2345902   2344179   2342445   2340692  
  5450.000000   2338916   2337122   2335326   2333551   2331815  
  5440.000000   2330130   2328493   2326902   2325357   2323873  
  5430.000000   2322469   2321167   2319961   2318834   2317737  
  5420.000000   2316630   2315481   2314304   2313135   2312052  
  5410.000000   2311109   2310354   2309773   2309343   2309011  
  5400.000000   2308756   2308560   2308452   2308445   2308569  
  5390.000000   2308811   2309168   2309608   2310141   2310772  
  5380.000000   2311556   2312521   2313715   2315120   2316732  
  5370.000000   2318492   2320384   2322367   2324465   2326666  
  5360.000000   2329018   2331504   2334168   2336995   2340050  
  5350.000000   2343351   2347002   2351030   2355527   2360472  
  5340.000000   2365901   2371743   2378021   2384668   2391734  
  5330.000000   2399172   2407043   2415297   2423997   2433097  
  5320.000000   2442690   2452767   2463462   2474778   2486846  
  5310.000000   2499634   2513225   2527539   2542631   2558416  
  5300.000000   2574966   2592228   2610309   2629185   2648973  
  5290.000000   2669638   2691244   2713683   2736920   2760783  
  5280.000000   2785212   2810088   2835452   2861315   2887805  
  5270.000000   2914951   2942781   2971161   2999910   3028781  
  5260.000000   3057576   3086187   3114613   3142943   3171254  
  5250.000000   3199598   3227874   3255941   3283528   3310472  
  5240.000000   3336584   3361898   3386414   3410310   3433629  
  5230.000000   3456499   3478842   3500650   3521739   3542066  
  5220.000000   3561488   3580070   3597792   3614832   3631229  
  5210.000000   3647152   3662556   3677481   3691754   3705329  
  5200.000000   3718032   3729901   3740886   3751145   3760704  
  5190.000000   3769718   3778155   3786080   3793390   3800116  
  5180.000000   3806169   3811620   3816424   3820668   3824303  
  5170.000000   3827389   3829866   3831801   3833167   3834062  
  5160.000000   3834480   3834506   3834103   3833312   3832076  
  5150.000000   3830444   3828397   3826023   3823333   3820404  
  5140.000000   3817211   3813778   3810052   3806052   3801761  
  5130.000000   3797240   3792511   3787645   3782648   3777550  
  5120.000000   3772327   3766991   3761530   3755977   3750348  
  5110.000000   3744679   3738977   3733258   3727511   3721750  
  5100.000000   3715985   3710251   3704576   3698992   3693501  
  5090.000000   3688093   3682732   3677386   3672018   3666619  
  5080.000000   3661178   3655707   3650207   3644689   3639147  
  5070.000000   3633585   3627995   3622378   3616720   3611012  
  5060.000000   3605220   3599324   3593288   3587104   3580767  
  5050.000000   3574305   3567742   3561121   3554464   3547792  
  5040.000000   3541104   3534400   3527669   3520911   3514122  
  5030.000000   3507310   3500479   3493640   3486805   3479988  
  5020.000000   3473210   3466488   3459844   3453284   3446824  
  5010.000000   3440462   3434211   3428072   3422072   3416220  
  5000.000000   3410547   3405052   3399749   3394612   3389642  
  4990.000000   3384806   3380116   3375557   3371163   3366934  
  4980.000000   3362914   3359099   3355532   3352202   3349154  
  4970.000000   3346375   3343909   3341734   3339883   3338319  
  4960.000000   3337068   3336097   3335450   3335114   3335153  
  4950.000000   3335558   3336382   3337585   3339188   3341120  
  4940.000000   3343394   3345951   3348831   3352009   3355554  
  4930.000000   3359457   3363786   3368520   3373707   3379310  
  4920.000000   3385356   3391792   3398628   3405801   3413312  
  4910.000000   3421108   3429200   3437561   3446215   3455148  
  4900.000000   3464367   3473837   3483521   3493356   3503275  
  4890.000000   3513217   3523108   3532906   3542537   3551965  
  4880.000000   3561102   3569911   3578291   3586211   3593570  
  4870.000000   3600353   3606464   3611905   3616594   3620557  
  4860.000000   3623740   3626200   3627913   3628961   3629340  
  4850.000000   3629141   3628380   3627161   3625519   3623569  
  4840.000000   3621357   3618986   3616486   3613929   3611322  
  4830.000000   3608712   3606103   3603535   3601023   3598601  
  4820.000000   3596286   3594090   3592024   3590082   3588273  
  4810.000000   3586593   3585060   3583673   3582452   3581388  
  4800.000000   3580494   3579753   3579176   3578747   3578486  
  4790.000000   3578382   3578453   3578684   3579081   3579622  
  4780.000000   3580309   3581121   3582063   3583114   3584273  
  4770.000000   3585510   3586810   3588140   3589486   3590830  
  4760.000000   3592178   3593531   3594907   3596309   3597745  
  4750.000000   3599209   3600697   3602199   3603714   3605239  
  4740.000000   3606779   3608337   3609917   3611521   3613153  
  4730.000000   3614812   3616501   3618212   3619941   3621667  
  4720.000000   3623385   3625074   3626745   3628401   3630086  
  4710.000000   3631825   3633672   3635649   3637792   3640100  
  4700.000000   3642592   3645264   3648142   3651239   3654596  
  4690.000000   3658233   3662174   3666412   3670935   3675689  
  4680.000000   3680625   3685657   3690724   3695738   3700653  
  4670.000000   3705413   3710014   3714451   3718771   3723017  
  4660.000000   3727265   3731580   3736036   3740685   3745567  
  4650.000000   3750702   3756086   3761699   3767498   3773434  
  4640.000000   3779445   3785481   3791486   3797431   3803274  
  4630.000000   3808999   3814565   3819954   3825114   3830021  
  4620.000000   3834622   3838898   3842800   3846320   3849417  
  4610.000000   3852099   3854345   3856200   3857688   3858902  
  4600.000000   3859898   3860786   3861605   3862420   3863208  
  4590.000000   3863966   3864618   3865127   3865413   3865453  
  4580.000000   3865202   3864669   3863849   3862779   3861481  
  4570.000000   3860009   3858396   3856698   3854940   3853159  
  4560.000000   3851357   3849548   3847712   3845848   3843929  
  4550.000000   3841953   3839896   3837758   3835521   3833189  
  4540.000000   3830756   3828237   3825641   3822993   3820308  
  4530.000000   3817602   3814880   3812138   3809370   3806563  
  4520.000000   3803719   3800828   3797912   3794970   3792043  
  4510.000000   3789140   3786327   3783629   3781147   3778925  
  4500.000000   3777080   3775647   3774732   3774330   3774518  
  4490.000000   3775266   3776647   3778632   3781317   3784683  
  4480.000000   3788832   3793731   3799461   3805961   3813289  
  4470.000000   3821367   3830240   3839825   3850161   3861159  
  4460.000000   3872845   3885127   3898020   3911430   3925362  
  4450.000000   3939727   3954515   3969644   3985095   4000797  
  4440.000000   4016725   4032824   4049055   4065368   4081706  
  4430.000000   4098021   4114239   4130324   4146195   4161822  
  4420.000000   4177107   4192013   4206415   4220256   4233400  
  4410.000000   4245800   4257345   4268032   4277806   4286729  
  4400.000000   4294809   4302164   4308849   4315017   4320748  
  4390.000000   4326206   4331473   4336692   4341919   4347245  
  4380.000000   4352670   4358221   4363857   4369572   4375331  
  4370.000000   4381146   4387021   4392990   4399073   4405295  
  4360.000000   4411644   4418117   4424660   4431257   4437821  
  4350.000000   4444347   4450726   4456975   4462989   4468817  
  4340.000000   4474379   4479722   4484714   4489245   4492966  
  4330.000000   4495481   4496216   4494664   4490396   4483292  
  4320.000000   4473537   4461705   4448601   4435179   4422300  
  4310.000000   4410658   4400635   4392362   4385728   4380522  
  4300.000000   4376496   4373443   4371232   4369765   4369015  
  4290.000000   4368906   4369424   4370473   4372039   4374038  
  4280.000000   4376455   4379216   4382274   4385542   4388936  
  4270.000000   4392375   4395768   4399034   4402038   4404609  
  4260.000000   4406484   4407379   4406979   4405068   4401538  
  4250.000000   4396495   4390190   4383053   4375532   4368099  
  4240.000000   4361081   4354723   4349071   4344105   4339682  
  4230.000000   4335665   4331886   4328217   4324555   4320825  
  4220.000000   4317013   4313112   4309202   4305342   4301679  
  4210.000000   4298301   4295341   4292843   4290868   4289385  
  4200.000000   4288380   4287777   4287536   4287578   4287873  
  4190.000000   4288354   4289012   4289790   4290695   4291679  
  4180.000000   4292761   4293901   4295133   4296434   4297856  
  4170.000000   4299405   4301157   4303140   4305439   4308077  
  4160.000000   4311123   4314572   4318469   4322784   4327547  
  4150.000000   4332715   4338307   4344268   4350611   4357273  
  4140.000000   4364277   4371577   4379223   4387189   4395537  
  4130.000000   4404231   4413314   4422725   4432489   4442558  
  4120.000000   4452992   4463797   4475085   4486905   4499373  
  4110.000000   4512513   4526378   4540919   4556104   4571821  
  4100.000000   4587985   4604464   4621168   4637991   4654871  
  4090.000000   4671753   4688609   4705424   4722189   4738916  
  4080.000000   4755594   4772242   4788828   4805355   4821737  
  4070.000000   4837931   4853794   4869255   4884158   4898470  
  4060.000000   4912092   4925057   4937317   4948943   4959894  
  4050.000000   4970246   4979962   4989135   4997742   5005884  
  4040.000000   5013516   5020701   5027351   5033494   5039038  
  4030.000000   5044036   5048440   5052334   5055699   5058609  
  4020.000000   5061013   5062977   5064505   5065668   5066432  
  4010.000000   5066892   5067092   5066992   5066353   5065168  
  4000.000000   5063705  
##END= 
