##TITLE= Sample 004 By ssteindl date Donnerstag, November 22 2018
##JCAMP-DX= 4.24
##DATA TYPE= INFRARED SPECTRUM
##ORIGIN= Exported PE Spectrum Data File
##OWNER= Sandra Steindl
##DATE= 18/11/22
##TIME= 10:12:21.00
##SPECTROMETER/DATA SYSTEM= PERKIN-ELMER Frontier FT-IR/NIR IR
##INSTRUMENT PARAMETERS=
  APODIZATION=stark
  DETECTOR=INGAAS
##RESOLUTION= 16.000000
##DELTAX= -2.000000
##XUNITS= 1/CM
##YUNITS= A
##XFACTOR= 1.00
##YFACTOR= 0.00000011920928955078
##FIRSTX= 10000.00
##LASTX= 4000.00
##NPOINTS= 3001
##FIRSTY= 0.220961
##MAXY= 0.581525
##MINY= 0.176074
##XYDATA= (X++(Y..Y))
 10000.000000   1853557   1854685   1854004   1849358   1841108  
  9990.000000   1831429   1822267   1814810   1810072   1808694  
  9980.000000   1810304   1813689   1817468   1820490   1821999  
  9970.000000   1821812   1820350   1818406   1816793   1816121  
  9960.000000   1816628   1818171   1820420   1822941   1825419  
  9950.000000   1827586   1829246   1830164   1830050   1828661  
  9940.000000   1825855   1821810   1816980   1812128   1808083  
  9930.000000   1805584   1805038   1806445   1809348   1812956  
  9920.000000   1816248   1818202   1817973   1815088   1809611  
  9910.000000   1802131   1793780   1785880   1779761   1776245  
  9900.000000   1775534   1777032   1779630   1782064   1783320  
  9890.000000   1783061   1781574   1779825   1778958   1780072  
  9880.000000   1783808   1790204   1798711   1808225   1817380  
  9870.000000   1824615   1828544   1828052   1822708   1812847  
  9860.000000   1799746   1785393   1772108   1762006   1756384  
  9850.000000   1755540   1758646   1764308   1770907   1777281  
  9840.000000   1782819   1787537   1791688   1795411   1798503  
  9830.000000   1800340   1800257   1797733   1792873   1786308  
  9820.000000   1779166   1772647   1767657   1764631   1763379  
  9810.000000   1763425   1764101   1764941   1765657   1766193  
  9800.000000   1766549   1766672   1766420   1765551   1763874  
  9790.000000   1761264   1757787   1753626   1749096   1744568  
  9780.000000   1740464   1737225   1735282   1734974   1736416  
  9770.000000   1739398   1743308   1747234   1750141   1751190  
  9760.000000   1750029   1746925   1742786   1738815   1736225  
  9750.000000   1735743   1737418   1740557   1743928   1746224  
  9740.000000   1746433   1744316   1740426   1736066   1732789  
  9730.000000   1731926   1734060   1738768   1744719   1750002  
  9720.000000   1752762   1751693   1746489   1737898   1727517  
  9710.000000   1717334   1709158   1704183   1702754   1704413  
  9700.000000   1708158   1712762   1717089   1720304   1721952  
  9690.000000   1721987   1720723   1718735   1716778   1715541  
  9680.000000   1715557   1716949   1719464   1722491   1725273  
  9670.000000   1727181   1727875   1727511   1726584   1725836  
  9660.000000   1725866   1726967   1728918   1731130   1732778  
  9650.000000   1733146   1731794   1728723   1724313   1719195  
  9640.000000   1714031   1709322   1705292   1701836   1698615  
  9630.000000   1695167   1691101   1686243   1680724   1675022  
  9620.000000   1669835   1665955   1663995   1664240   1666520  
  9610.000000   1670235   1674549   1678548   1681547   1683128  
  9600.000000   1683289   1682240   1680380   1678039   1675504  
  9590.000000   1672939   1670508   1668395   1666823   1666032  
  9580.000000   1666157   1667244   1669164   1671715   1674609  
  9570.000000   1677556   1680256   1682420   1683779   1684091  
  9560.000000   1683192   1681042   1677805   1673875   1669883  
  9550.000000   1666521   1664394   1663779   1664535   1666120  
  9540.000000   1667712   1668487   1667808   1665496   1661856  
  9530.000000   1657687   1654048   1651990   1652239   1654949  
  9520.000000   1659617   1665152   1670160   1673301   1673683  
  9510.000000   1671099   1666101   1659816   1653629   1648777  
  9500.000000   1646027   1645498   1646689   1648724   1650635  
  9490.000000   1651713   1651652   1650617   1649084   1647641  
  9480.000000   1646763   1646634   1647144   1647885   1648369  
  9470.000000   1648147   1647007   1645049   1642629   1640338  
  9460.000000   1638740   1638333   1639311   1641589   1644766  
  9450.000000   1648230   1651292   1653277   1653656   1652061  
  9440.000000   1648399   1642845   1635932   1628458   1621405  
  9430.000000   1615699   1612002   1610558   1611109   1613029  
  9420.000000   1615491   1617786   1619516   1620692   1621629  
  9410.000000   1622693   1624102   1625739   1627266   1628213  
  9400.000000   1628289   1627470   1626102   1624754   1624000  
  9390.000000   1624197   1625316   1627025   1628807   1630227  
  9380.000000   1631023   1631173   1630781   1630003   1628938  
  9370.000000   1627651   1626180   1624625   1623130   1621871  
  9360.000000   1620942   1620295   1619712   1618895   1617593  
  9350.000000   1615739   1613490   1611150   1609032   1607299  
  9340.000000   1605923   1604714   1603453   1602029   1600505  
  9330.000000   1599135   1598196   1597905   1598250   1599052  
  9320.000000   1600037   1600991   1601844   1602586   1603215  
  9310.000000   1603517   1603139   1601589   1598534   1593909  
  9300.000000   1588102   1581885   1576245   1572116   1570064  
  9290.000000   1570240   1572320   1575791   1580040   1584599  
  9280.000000   1589107   1593293   1596879   1599507   1600831  
  9270.000000   1600552   1598625   1595209   1590727   1585670  
  9260.000000   1580532   1575709   1571462   1568002   1565461  
  9250.000000   1563999   1563673   1564444   1566054   1568072  
  9240.000000   1569954   1571173   1571390   1570493   1568687  
  9230.000000   1566330   1563911   1561827   1560391   1559751  
  9220.000000   1559935   1560860   1562332   1564130   1566013  
  9210.000000   1567829   1569509   1571123   1572795   1574638  
  9200.000000   1576624   1578510   1579884   1580266   1579332  
  9190.000000   1577033   1573672   1569827   1566138   1563115  
  9180.000000   1560928   1559452   1558363   1557362   1556310  
  9170.000000   1555277   1554467   1554047   1554006   1554077  
  9160.000000   1553856   1552984   1551394   1549354   1547436  
  9150.000000   1546280   1546386   1547900   1550558   1553809  
  9140.000000   1556999   1559614   1561384   1562325   1562656  
  9130.000000   1562663   1562581   1562505   1562417   1562181  
  9120.000000   1561640   1560633   1559056   1556897   1554239  
  9110.000000   1551322   1548462   1546094   1544584   1544201  
  9100.000000   1544965   1546678   1548946   1551257   1553100  
  9090.000000   1554047   1553851   1552420   1549835   1546315  
  9080.000000   1542252   1538126   1534465   1531725   1530233  
  9070.000000   1530059   1530979   1532540   1534171   1535386  
  9060.000000   1535861   1535572   1534739   1533752   1533022  
  9050.000000   1532858   1533418   1534646   1536312   1538051  
  9040.000000   1539456   1540147   1539858   1538519   1536308  
  9030.000000   1533616   1530939   1528727   1527241   1526460  
  9020.000000   1526110   1525771   1525093   1523942   1522471  
  9010.000000   1521049   1520071   1519806   1520256   1521192  
  9000.000000   1522264   1523195   1523928   1524623   1525572  
  8990.000000   1526980   1528837   1530849   1532547   1533452  
  8980.000000   1533295   1532111   1530252   1528220   1526492  
  8970.000000   1525374   1524930   1525054   1525520   1526161  
  8960.000000   1526861   1527616   1528415   1529247   1530053  
  8950.000000   1530750   1531263   1531515   1531464   1530998  
  8940.000000   1529979   1528215   1525607   1522210   1518305  
  8930.000000   1514410   1511155   1509147   1508741   1509979  
  8920.000000   1512561   1515965   1519587   1522889   1525497  
  8910.000000   1527203   1527967   1527828   1526936   1525499  
  8900.000000   1523835   1522298   1521229   1520872   1521290  
  8890.000000   1522370   1523825   1525354   1526699   1527753  
  8880.000000   1528486   1528921   1529035   1528734   1527880  
  8870.000000   1526374   1524277   1521825   1519417   1517454  
  8860.000000   1516202   1515682   1515659   1515761   1515624  
  8850.000000   1515055   1514106   1513032   1512204   1511912  
  8840.000000   1512289   1513226   1514481   1515722   1516692  
  8830.000000   1517232   1517362   1517219   1517047   1517121  
  8820.000000   1517703   1518981   1521022   1523745   1526917  
  8810.000000   1530195   1533204   1535636   1537332   1538319  
  8800.000000   1538777   1538959   1539086   1539275   1539517  
  8790.000000   1539719   1539769   1539628   1539336   1539028  
  8780.000000   1538837   1538875   1539149   1539597   1540083  
  8770.000000   1540474   1540660   1540582   1540231   1539637  
  8760.000000   1538872   1538032   1537243   1536634   1536301  
  8750.000000   1536271   1536482   1536798   1537066   1537180  
  8740.000000   1537141   1537067   1537140   1537527   1538277  
  8730.000000   1539290   1540343   1541169   1541591   1541560  
  8720.000000   1541212   1540748   1540376   1540171   1540063  
  8710.000000   1539863   1539387   1538566   1537538   1536621  
  8700.000000   1536235   1536734   1538271   1540721   1543704  
  8690.000000   1546707   1549239   1550974   1551855   1552076  
  8680.000000   1552036   1552182   1552883   1554300   1556357  
  8670.000000   1558762   1561112   1563011   1564193   1564595  
  8660.000000   1564373   1563852   1563414   1563384   1563926  
  8650.000000   1565008   1566428   1567915   1569211   1570178  
  8640.000000   1570809   1571242   1571679   1572327   1573318  
  8630.000000   1574661   1576261   1577904   1579353   1580363  
  8620.000000   1580777   1580548   1579772   1578693   1577655  
  8610.000000   1577052   1577218   1578365   1580516   1583504  
  8600.000000   1586988   1590551   1593768   1596313   1598002  
  8590.000000   1598822   1598932   1598600   1598171   1597944  
  8580.000000   1598131   1598764   1599707   1600680   1601345  
  8570.000000   1601451   1600918   1599935   1598901   1598330  
  8560.000000   1598657   1600095   1602526   1605524   1608477  
  8550.000000   1610784   1612048   1612190   1611458   1610314  
  8540.000000   1609286   1608786   1609015   1609911   1611220  
  8530.000000   1612591   1613695   1614328   1614438   1614145  
  8520.000000   1613678   1613331   1613366   1613956   1615124  
  8510.000000   1616733   1618530   1620204   1621484   1622216  
  8500.000000   1622400   1622192   1621822   1621540   1621526  
  8490.000000   1621853   1622492   1623345   1624315   1625290  
  8480.000000   1626183   1626884   1627298   1627324   1626914  
  8470.000000   1626120   1625133   1624268   1623873   1624261  
  8460.000000   1625616   1627944   1631062   1634659   1638379  
  8450.000000   1641879   1644865   1647097   1648416   1648742  
  8440.000000   1648130   1646772   1645022   1643334   1642156  
  8430.000000   1641816   1642396   1643752   1645523   1647330  
  8420.000000   1648842   1649955   1650736   1651398   1652135  
  8410.000000   1653023   1653968   1654717   1655001   1654599  
  8400.000000   1653475   1651739   1649635   1647435   1645373  
  8390.000000   1643618   1642258   1641370   1641015   1641268  
  8380.000000   1642147   1643602   1645463   1647480   1649350  
  8370.000000   1650817   1651730   1652071   1651945   1651511  
  8360.000000   1650947   1650376   1649863   1649396   1648920  
  8350.000000   1648360   1647646   1646735   1645606   1644303  
  8340.000000   1642910   1641577   1640450   1639664   1639277  
  8330.000000   1639265   1639514   1639861   1640138   1640227  
  8320.000000   1640079   1639705   1639156   1638483   1637740  
  8310.000000   1636964   1636199   1635486   1634876   1634389  
  8300.000000   1633995   1633605   1633092   1632356   1631375  
  8290.000000   1630248   1629168   1628373   1628048   1628254  
  8280.000000   1628891   1629728   1630492   1630964   1631047  
  8270.000000   1630780   1630288   1629709   1629116   1628513  
  8260.000000   1627840   1627051   1626151   1625223   1624389  
  8250.000000   1623754   1623331   1623018   1622614   1621912  
  8240.000000   1620763   1619160   1617221   1615167   1613230  
  8230.000000   1611600   1610364   1609515   1608969   1608610  
  8220.000000   1608312   1607965   1607460   1606698   1605597  
  8210.000000   1604124   1602327   1600329   1598317   1596470  
  8200.000000   1594915   1593671   1592650   1591692   1590626  
  8190.000000   1589367   1587932   1586469   1585178   1584241  
  8180.000000   1583751   1583659   1583802   1583926   1583787  
  8170.000000   1583185   1582039   1580381   1578357   1576184  
  8160.000000   1574106   1572351   1571084   1570391   1570255  
  8150.000000   1570567   1571137   1571741   1572153   1572208  
  8140.000000   1571811   1570962   1569732   1568244   1566639  
  8130.000000   1565042   1563552   1562221   1561061   1560043  
  8120.000000   1559103   1558149   1557070   1555762   1554158  
  8110.000000   1552256   1550139   1547962   1545931   1544245  
  8100.000000   1543049   1542385   1542184   1542283   1542472  
  8090.000000   1542568   1542467   1542171   1541782   1541440  
  8080.000000   1541265   1541291   1541447   1541562   1541432  
  8070.000000   1540878   1539825   1538324   1536547   1534732  
  8060.000000   1533112   1531847   1530980   1530433   1530044  
  8050.000000   1529624   1529020   1528164   1527077   1525867  
  8040.000000   1524676   1523655   1522908   1522486   1522375  
  8030.000000   1522510   1522788   1523096   1523318   1523358  
  8020.000000   1523144   1522639   1521845   1520796   1519562  
  8010.000000   1518217   1516844   1515494   1514195   1512946  
  8000.000000   1511731   1510544   1509401   1508352   1507478  
  7990.000000   1506864   1506576   1506624   1506959   1507464  
  7980.000000   1507999   1508419   1508637   1508628   1508450  
  7970.000000   1508202   1508005   1507943   1508052   1508307  
  7960.000000   1508646   1508996   1509305   1509545   1509713  
  7950.000000   1509814   1509832   1509735   1509476   1509022  
  7940.000000   1508387   1507640   1506906   1506329   1506028  
  7930.000000   1506064   1506404   1506943   1507525   1507993  
  7920.000000   1508235   1508201   1507918   1507458   1506918  
  7910.000000   1506388   1505934   1505591   1505372   1505271  
  7900.000000   1505276   1505371   1505534   1505741   1505961  
  7890.000000   1506160   1506306   1506376   1506362   1506267  
  7880.000000   1506116   1505941   1505782   1505667   1505609  
  7870.000000   1505598   1505593   1505551   1505430   1505226  
  7860.000000   1504977   1504765   1504688   1504822   1505184  
  7850.000000   1505702   1506233   1506589   1506611   1506213  
  7840.000000   1505436   1504420   1503375   1502510   1501965  
  7830.000000   1501786   1501917   1502256   1502689   1503155  
  7820.000000   1503639   1504176   1504792   1505476   1506153  
  7810.000000   1506695   1506961   1506830   1506256   1505263  
  7800.000000   1503954   1502460   1500922   1499465   1498186  
  7790.000000   1497164   1496453   1496089   1496065   1496338  
  7780.000000   1496807   1497349   1497834   1498175   1498343  
  7770.000000   1498372   1498338   1498310   1498317   1498323  
  7760.000000   1498244   1497980   1497469   1496718   1495811  
  7750.000000   1494888   1494085   1493491   1493111   1492874  
  7740.000000   1492657   1492341   1491854   1491185   1490387  
  7730.000000   1489541   1488722   1487978   1487325   1486766  
  7720.000000   1486312   1485995   1485865   1485963   1486289  
  7710.000000   1486786   1487332   1487783   1488005   1487931  
  7700.000000   1487583   1487058   1486506   1486055   1485776  
  7690.000000   1485642   1485551   1485357   1484943   1484261  
  7680.000000   1483363   1482376   1481462   1480752   1480308  
  7670.000000   1480105   1480056   1480048   1479998   1479869  
  7660.000000   1479683   1479498   1479374   1479349   1479435  
  7650.000000   1479622   1479899   1480267   1480737   1481310  
  7640.000000   1481958   1482598   1483111   1483368   1483274  
  7630.000000   1482818   1482086   1481241   1480474   1479940  
  7620.000000   1479706   1479745   1479943   1480161   1480278  
  7610.000000   1480233   1480036   1479737   1479404   1479076  
  7600.000000   1478763   1478443   1478101   1477735   1477386  
  7590.000000   1477119   1477014   1477136   1477518   1478159  
  7580.000000   1479021   1480046   1481165   1482303   1483384  
  7570.000000   1484334   1485097   1485640   1485970   1486128  
  7560.000000   1486185   1486210   1486256   1486336   1486434  
  7550.000000   1486506   1486512   1486428   1486258   1486034  
  7540.000000   1485794   1485578   1485422   1485360   1485433  
  7530.000000   1485691   1486186   1486949   1487976   1489208  
  7520.000000   1490547   1491870   1493070   1494074   1494876  
  7510.000000   1495511   1496045   1496539   1497041   1497577  
  7500.000000   1498177   1498869   1499699   1500706   1501901  
  7490.000000   1503246   1504646   1505964   1507067   1507865  
  7480.000000   1508361   1508647   1508885   1509262   1509934  
  7470.000000   1510990   1512431   1514180   1516113   1518089  
  7460.000000   1519983   1521696   1523172   1524394   1525392  
  7450.000000   1526228   1526996   1527788   1528692   1529744  
  7440.000000   1530941   1532224   1533520   1534759   1535909  
  7430.000000   1536984   1538045   1539174   1540451   1541927  
  7420.000000   1543617   1545508   1547563   1549735   1551973  
  7410.000000   1554219   1556414   1558492   1560401   1562108  
  7400.000000   1563620   1564979   1566251   1567501   1568774  
  7390.000000   1570087   1571423   1572761   1574090   1575431  
  7380.000000   1576825   1578322   1579945   1581677   1583453  
  7370.000000   1585183   1586779   1588193   1589438   1590578  
  7360.000000   1591711   1592932   1594299   1595822   1597463  
  7350.000000   1599153   1600819   1602402   1603877   1605238  
  7340.000000   1606502   1607682   1608794   1609843   1610841  
  7330.000000   1611801   1612754   1613739   1614801   1615980  
  7320.000000   1617300   1618772   1620382   1622104   1623894  
  7310.000000   1625706   1627500   1629241   1630916   1632516  
  7300.000000   1634049   1635512   1636900   1638195   1639378  
  7290.000000   1640437   1641378   1642239   1643082   1643992  
  7280.000000   1645050   1646327   1647849   1649602   1651515  
  7270.000000   1653475   1655348   1657002   1658342   1659322  
  7260.000000   1659970   1660366   1660646   1660946   1661396  
  7250.000000   1662072   1663004   1664172   1665533   1667049  
  7240.000000   1668707   1670522   1672536   1674775   1677240  
  7230.000000   1679869   1682565   1685184   1687616   1689767  
  7220.000000   1691634   1693258   1694752   1696237   1697850  
  7210.000000   1699689   1701829   1704293   1707076   1710141  
  7200.000000   1713436   1716896   1720460   1724065   1727666  
  7190.000000   1731220   1734710   1738108   1741414   1744607  
  7180.000000   1747689   1750650   1753515   1756311   1759104  
  7170.000000   1761959   1764953   1768130   1771511   1775065  
  7160.000000   1778739   1782455   1786163   1789835   1793497  
  7150.000000   1797199   1801026   1805036   1809279   1813741  
  7140.000000   1818384   1823124   1827900   1832653   1837385  
  7130.000000   1842110   1846885   1851746   1856730   1861829  
  7120.000000   1867027   1872283   1877576   1882889   1888236  
  7110.000000   1893629   1899084   1904590   1910121   1915627  
  7100.000000   1921073   1926434   1931730   1937000   1942304  
  7090.000000   1947689   1953176   1958744   1964346   1969916  
  7080.000000   1975400   1980772   1986044   1991259   1996480  
  7070.000000   2001768   2007167   2012689   2018314   2023997  
  7060.000000   2029680   2035304   2040822   2046207   2051452  
  7050.000000   2056573   2061599   2066563   2071494   2076414  
  7040.000000   2081338   2086274   2091232   2096219   2101236  
  7030.000000   2106275   2111306   2116296   2121200   2125998  
  7020.000000   2130689   2135314   2139925   2144582   2149308  
  7010.000000   2154087   2158851   2163512   2167978   2172197  
  7000.000000   2176164   2179930   2183566   2187162   2190772  
  6990.000000   2194439   2198162   2201942   2205755   2209585  
  6980.000000   2213385   2217106   2220665   2223996   2227039  
  6970.000000   2229800   2232322   2234709   2237060   2239462  
  6960.000000   2241936   2244456   2246942   2249324   2251546  
  6950.000000   2253618   2255578   2257499   2259432   2261406  
  6940.000000   2263402   2265388   2267319   2269176   2270954  
  6930.000000   2272674   2274351   2275998   2277610   2279183  
  6920.000000   2280709   2282203   2283684   2285176   2286688  
  6910.000000   2288209   2289702   2291131   2292458   2293676  
  6900.000000   2294798   2295861   2296902   2297948   2299005  
  6890.000000   2300064   2301099   2302091   2303030   2303920  
  6880.000000   2304776   2305620   2306472   2307349   2308259  
  6870.000000   2309201   2310165   2311133   2312083   2312999  
  6860.000000   2313873   2314718   2315560   2316437   2317381  
  6850.000000   2318410   2319514   2320665   2321815   2322918  
  6840.000000   2323934   2324843   2325634   2326317   2326904  
  6830.000000   2327429   2327928   2328457   2329063   2329785  
  6820.000000   2330621   2331534   2332437   2333230   2333818  
  6810.000000   2334150   2334229   2334114   2333892   2333654  
  6800.000000   2333458   2333330   2333261   2333235   2333242  
  6790.000000   2333298   2333424   2333649   2333977   2334387  
  6780.000000   2334832   2335258   2335624   2335903   2336097  
  6770.000000   2336211   2336259   2336241   2336156   2336007  
  6760.000000   2335817   2335631   2335508   2335513   2335689  
  6750.000000   2336048   2336568   2337197   2337867   2338510  
  6740.000000   2339069   2339501   2339788   2339928   2339950  
  6730.000000   2339901   2339848   2339857   2339979   2340230  
  6720.000000   2340586   2340991   2341375   2341679   2341873  
  6710.000000   2341968   2341995   2342003   2342030   2342105  
  6700.000000   2342237   2342431   2342688   2343006   2343369  
  6690.000000   2343739   2344052   2344233   2344212   2343961  
  6680.000000   2343498   2342898   2342257   2341672   2341198  
  6670.000000   2340841   2340556   2340283   2339965   2339580  
  6660.000000   2339132   2338652   2338157   2337653   2337117  
  6650.000000   2336522   2335845   2335089   2334272   2333429  
  6640.000000   2332579   2331725   2330840   2329898   2328872  
  6630.000000   2327773   2326629   2325492   2324403   2323385  
  6620.000000   2322422   2321477   2320496   2319443   2318295  
  6610.000000   2317059   2315752   2314401   2313020   2311623  
  6600.000000   2310215   2308808   2307410   2306038   2304693  
  6590.000000   2303375   2302066   2300748   2299403   2298025  
  6580.000000   2296616   2295184   2293736   2292274   2290791  
  6570.000000   2289286   2287764   2286244   2284756   2283332  
  6560.000000   2281991   2280734   2279536   2278359   2277158  
  6550.000000   2275897   2274558   2273139   2271653   2270118  
  6540.000000   2268556   2266988   2265440   2263936   2262502  
  6530.000000   2261158   2259913   2258758   2257671   2256618  
  6520.000000   2255562   2254470   2253324   2252117   2250859  
  6510.000000   2249567   2248267   2246981   2245724   2244505  
  6500.000000   2243316   2242146   2240976   2239795   2238602  
  6490.000000   2237411   2236242   2235117   2234038   2232988  
  6480.000000   2231928   2230810   2229596   2228273   2226859  
  6470.000000   2225396   2223933   2222506   2221128   2219784  
  6460.000000   2218446   2217086   2215691   2214270   2212844  
  6450.000000   2211437   2210065   2208734   2207445   2206197  
  6440.000000   2205007   2203891   2202873   2201952   2201114  
  6430.000000   2200315   2199513   2198667   2197776   2196859  
  6420.000000   2195970   2195157   2194456   2193871   2193382  
  6410.000000   2192953   2192560   2192190   2191860   2191588  
  6400.000000   2191393   2191271   2191199   2191135   2191039  
  6390.000000   2190880   2190647   2190345   2189992   2189610  
  6380.000000   2189220   2188842   2188495   2188197   2187961  
  6370.000000   2187795   2187687   2187619   2187557   2187477  
  6360.000000   2187358   2187198   2186997   2186760   2186479  
  6350.000000   2186135   2185703   2185168   2184533   2183830  
  6340.000000   2183110   2182431   2181831   2181321   2180875  
  6330.000000   2180450   2179992   2179467   2178860   2178185  
  6320.000000   2177465   2176728   2175983   2175227   2174442  
  6310.000000   2173615   2172736   2171814   2170864   2169912  
  6300.000000   2168972   2168055   2167150   2166241   2165302  
  6290.000000   2164311   2163249   2162113   2160903   2159639  
  6280.000000   2158339   2157034   2155743   2154484   2153262  
  6270.000000   2152074   2150907   2149745   2148570   2147364  
  6260.000000   2146112   2144802   2143427   2141989   2140501  
  6250.000000   2138990   2137491   2136044   2134681   2133421  
  6240.000000   2132266   2131198   2130190   2129211   2128232  
  6230.000000   2127230   2126188   2125089   2123923   2122678  
  6220.000000   2121356   2119964   2118527   2117075   2115646  
  6210.000000   2114269   2112966   2111750   2110623   2109582  
  6200.000000   2108622   2107734   2106904   2106108   2105320  
  6190.000000   2104509   2103657   2102758   2101828   2100895  
  6180.000000   2099994   2099150   2098375   2097662   2096990  
  6170.000000   2096334   2095672   2094992   2094291   2093572  
  6160.000000   2092843   2092110   2091377   2090644   2089913  
  6150.000000   2089177   2088426   2087645   2086821   2085948  
  6140.000000   2085033   2084103   2083198   2082364   2081636  
  6130.000000   2081025   2080514   2080059   2079607   2079106  
  6120.000000   2078530   2077870   2077151   2076405   2075679  
  6110.000000   2075008   2074424   2073941   2073572   2073309  
  6100.000000   2073142   2073047   2072998   2072964   2072928  
  6090.000000   2072880   2072831   2072793   2072792   2072836  
  6080.000000   2072935   2073077   2073261   2073477   2073738  
  6070.000000   2074053   2074446   2074925   2075502   2076162  
  6060.000000   2076900   2077692   2078537   2079423   2080359  
  6050.000000   2081339   2082378   2083469   2084630   2085865  
  6040.000000   2087205   2088667   2090281   2092051   2093982  
  6030.000000   2096048   2098227   2100482   2102792   2105129  
  6020.000000   2107486   2109844   2112205   2114557   2116911  
  6010.000000   2119274   2121672   2124119   2126640   2129228  
  6000.000000   2131880   2134565   2137267   2139966   2142673  
  5990.000000   2145400   2148183   2151044   2154006   2157069  
  5980.000000   2160234   2163485   2166823   2170240   2173741  
  5970.000000   2177311   2180942   2184602   2188271   2191921  
  5960.000000   2195552   2199165   2202784   2206422   2210101  
  5950.000000   2213820   2217588   2221408   2225296   2229279  
  5940.000000   2233383   2237630   2242021   2246536   2251133  
  5930.000000   2255761   2260366   2264909   2269354   2273676  
  5920.000000   2277846   2281831   2285592   2289098   2292324  
  5910.000000   2295277   2297977   2300475   2302821   2305084  
  5900.000000   2307313   2309570   2311888   2314310   2316844  
  5890.000000   2319496   2322232   2325015   2327779   2330473  
  5880.000000   2333045   2335471   2337735   2339842   2341796  
  5870.000000   2343608   2345291   2346859   2348341   2349769  
  5860.000000   2351181   2352607   2354068   2355572   2357117  
  5850.000000   2358707   2360353   2362077   2363910   2365875  
  5840.000000   2367984   2370223   2372566   2374972   2377409  
  5830.000000   2379848   2382284   2384707   2387122   2389520  
  5820.000000   2391902   2394260   2396603   2398944   2401304  
  5810.000000   2403698   2406127   2408585   2411042   2413485  
  5800.000000   2415893   2418293   2420697   2423152   2425658  
  5790.000000   2428223   2430777   2433254   2435526   2437486  
  5780.000000   2439001   2439984   2440347   2440069   2439148  
  5770.000000   2437657   2435691   2433404   2430934   2428432  
  5760.000000   2425989   2423682   2421521   2419522   2417666  
  5750.000000   2415963   2414404   2412997   2411719   2410542  
  5740.000000   2409416   2408293   2407134   2405918   2404649  
  5730.000000   2403338   2402004   2400651   2399283   2397891  
  5720.000000   2396478   2395050   2393630   2392238   2390893  
  5710.000000   2389604   2388366   2387173   2386020   2384911  
  5700.000000   2383855   2382867   2381948   2381094   2380284  
  5690.000000   2379496   2378710   2377922   2377133   2376360  
  5680.000000   2375603   2374865   2374121   2373343   2372485  
  5670.000000   2371507   2370362   2369014   2367426   2365581  
  5660.000000   2363472   2361129   2358604   2355981   2353347  
  5650.000000   2350785   2348345   2346049   2343880   2341808  
  5640.000000   2339797   2337824   2335882   2333979   2332133  
  5630.000000   2330356   2328662   2327053   2325534   2324100  
  5620.000000   2322759   2321498   2320315   2319190   2318112  
  5610.000000   2317065   2316048   2315061   2314117   2313220  
  5600.000000   2312378   2311584   2310834   2310118   2309439  
  5590.000000   2308797   2308193   2307622   2307069   2306512  
  5580.000000   2305931   2305315   2304669   2304013   2303370  
  5570.000000   2302758   2302176   2301604   2301007   2300353  
  5560.000000   2299619   2298804   2297923   2297001   2296059  
  5550.000000   2295114   2294170   2293232   2292305   2291406  
  5540.000000   2290549   2289749   2289007   2288310   2287635  
  5530.000000   2286954   2286246   2285503   2284722   2283912  
  5520.000000   2283075   2282213   2281323   2280408   2279476  
  5510.000000   2278542   2277617   2276710   2275811   2274902  
  5500.000000   2273958   2272966   2271926   2270859   2269789  
  5490.000000   2268739   2267707   2266675   2265605   2264463  
  5480.000000   2263228   2261910   2260532   2259134   2257743  
  5470.000000   2256377   2255026   2253676   2252303   2250894  
  5460.000000   2249439   2247932   2246368   2244739   2243041  
  5450.000000   2241284   2239494   2237717   2236002   2234392  
  5440.000000   2232903   2231522   2230219   2228952   2227697  
  5430.000000   2226438   2225184   2223936   2222701   2221464  
  5420.000000   2220224   2218974   2217749   2216590   2215569  
  5410.000000   2214732   2214110   2213681   2213409   2213232  
  5400.000000   2213119   2213044   2213026   2213076   2213230  
  5390.000000   2213490   2213873   2214368   2214997   2215766  
  5380.000000   2216720   2217866   2219224   2220760   2222455  
  5370.000000   2224248   2226131   2228073   2230109   2232239  
  5360.000000   2234516   2236932   2239532   2242305   2245315  
  5350.000000   2248574   2252173   2256130   2260520   2265318  
  5340.000000   2270560   2276186   2282234   2288656   2295514  
  5330.000000   2302767   2310473   2318574   2327121   2336060  
  5320.000000   2345483   2355380   2365890   2377018   2388894  
  5310.000000   2401477   2414837   2428877   2443638   2459032  
  5300.000000   2475131   2491895   2509446   2527782   2547032  
  5290.000000   2567167   2588245   2610143   2632804   2656033  
  5280.000000   2679751   2703831   2728315   2753227   2778712  
  5270.000000   2804826   2831614   2858965   2886703   2914583  
  5260.000000   2942400   2970036   2997479   3024811   3052106  
  5250.000000   3079412   3106630   3133617   3160102   3185919  
  5240.000000   3210889   3235051   3258426   3281212   3303477  
  5230.000000   3325364   3346808   3367794   3388127   3407739  
  5220.000000   3426468   3444358   3461384   3477715   3493395  
  5210.000000   3508592   3523272   3537476   3551047   3563952  
  5200.000000   3576039   3587357   3597874   3607746   3616993  
  5190.000000   3625746   3633954   3641657   3648742   3655237  
  5180.000000   3661070   3666331   3671000   3675175   3678810  
  5170.000000   3681952   3684521   3686560   3688027   3689016  
  5160.000000   3689532   3689676   3689427   3688833   3687832  
  5150.000000   3686448   3684639   3682463   3679916   3677071  
  5140.000000   3673919   3670507   3666811   3662873   3658691  
  5130.000000   3654329   3649806   3645184   3640461   3635664  
  5120.000000   3630767   3625784   3620705   3615558   3610355  
  5110.000000   3605121   3599853   3594555   3589209   3583822  
  5100.000000   3578402   3572985   3567602   3562290   3557060  
  5090.000000   3551908   3546808   3541734   3536661   3531580  
  5080.000000   3526486   3521388   3516283   3511173   3506045  
  5070.000000   3500895   3495712   3490504   3485264   3480001  
  5060.000000   3474698   3469345   3463914   3458390   3452753  
  5050.000000   3447006   3441148   3435195   3429146   3423011  
  5040.000000   3416781   3410462   3404049   3397558   3391001  
  5030.000000   3384401   3377775   3371143   3364518   3357914  
  5020.000000   3351342   3344817   3338354   3331966   3325668  
  5010.000000   3319469   3313385   3307419   3301589   3295895  
  5000.000000   3290350   3284941   3279675   3274530   3269514  
  4990.000000   3264614   3259859   3255248   3250823   3246580  
  4980.000000   3242549   3238710   3235082   3231639   3228415  
  4970.000000   3225399   3222644   3220146   3217952   3216041  
  4960.000000   3214443   3213120   3212105   3211372   3210975  
  4950.000000   3210907   3211228   3211919   3213020   3214483  
  4940.000000   3216328   3218498   3221021   3223854   3227041  
  4930.000000   3230551   3234433   3238654   3243253   3248194  
  4920.000000   3253511   3259168   3265198   3271567   3278302  
  4910.000000   3285372   3292796   3300542   3308610   3316957  
  4900.000000   3325559   3334356   3343302   3352342   3361425  
  4890.000000   3370516   3379570   3388561   3397427   3406130  
  4880.000000   3414578   3422723   3430465   3437769   3444544  
  4870.000000   3450780   3456395   3461394   3465702   3469339  
  4860.000000   3472253   3474494   3476043   3476978   3477305  
  4850.000000   3477115   3476423   3475322   3473836   3472059  
  4840.000000   3470024   3467822   3465488   3463101   3460687  
  4830.000000   3458304   3455969   3453717   3451555   3449495  
  4820.000000   3447537   3445677   3443916   3442249   3440694  
  4810.000000   3439253   3437956   3436808   3435837   3435037  
  4800.000000   3434426   3433990   3433744   3433676   3433802  
  4790.000000   3434107   3434597   3435243   3436037   3436945  
  4780.000000   3437958   3439055   3440236   3441491   3442821  
  4770.000000   3444207   3445637   3447081   3448521   3449936  
  4760.000000   3451323   3452678   3454014   3455337   3456659  
  4750.000000   3457982   3459314   3460659   3462029   3463431  
  4740.000000   3464877   3466367   3467903   3469468   3471052  
  4730.000000   3472631   3474196   3475731   3477244   3478733  
  4720.000000   3480220   3481712   3483243   3484826   3486498  
  4710.000000   3488276   3490198   3492277   3494547   3497016  
  4700.000000   3499712   3502641   3505824   3509260   3512960  
  4690.000000   3516907   3521095   3525488   3530063   3534770  
  4680.000000   3539575   3544416   3549258   3554040   3558738  
  4670.000000   3563312   3567771   3572117   3576398   3580653  
  4660.000000   3584950   3589341   3593884   3598621   3603584  
  4650.000000   3608791   3614245   3619935   3625831   3631896  
  4640.000000   3638073   3644309   3650541   3656729   3662823  
  4630.000000   3668804   3674636   3680308   3685785   3691051  
  4620.000000   3696055   3700769   3705135   3709127   3712697  
  4610.000000   3715853   3718580   3720939   3722959   3724734  
  4600.000000   3726305   3727759   3729106   3730390   3731578  
  4590.000000   3732675   3733623   3734411   3734978   3735314  
  4580.000000   3735367   3735137   3734596   3733766   3732652  
  4570.000000   3731304   3729749   3728047   3726218   3724303  
  4560.000000   3722304   3720242   3718108   3715922   3713678  
  4550.000000   3711401   3709089   3706761   3704413   3702057  
  4540.000000   3699693   3697331   3694975   3692632   3690301  
  4530.000000   3687973   3685631   3683251   3680818   3678313  
  4520.000000   3675747   3673123   3670484   3667847   3665269  
  4510.000000   3662767   3660409   3658212   3656264   3654591  
  4500.000000   3653299   3652415   3652044   3652190   3652939  
  4490.000000   3654271   3656260   3658874   3662186   3666156  
  4480.000000   3670848   3676209   3682289   3689020   3696445  
  4470.000000   3704496   3713214   3722528   3732469   3742953  
  4460.000000   3753989   3765481   3777422   3789722   3802374  
  4450.000000   3815310   3828534   3841999   3855710   3869631  
  4440.000000   3883750   3898023   3912411   3926859   3941303  
  4430.000000   3955692   3969954   3984056   3997933   4011569  
  4420.000000   4024900   4037920   4050560   4062809   4074590  
  4410.000000   4085885   4096607   4106734   4116181   4124942  
  4400.000000   4132970   4140317   4147006   4153162   4158875  
  4390.000000   4164312   4169581   4174831   4180126   4185550  
  4380.000000   4191099   4196788   4202562   4208409   4214276  
  4370.000000   4220162   4226044   4231938   4237835   4243741  
  4360.000000   4249625   4255476   4261235   4266893   4272379  
  4350.000000   4277710   4282813   4287737   4292425   4296963  
  4340.000000   4301319   4305571   4309635   4313438   4316680  
  4330.000000   4319010   4319900   4318872   4315503   4309648  
  4320.000000   4301433   4291343   4280081   4268489   4257335  
  4310.000000   4247237   4238526   4231308   4225467   4220797  
  4300.000000   4217071   4214105   4211797   4210080   4208959  
  4290.000000   4208395   4208403   4208923   4209962   4211460  
  4280.000000   4213415   4215764   4218459   4221411   4224526  
  4270.000000   4227716   4230881   4233940   4236765   4239205  
  4260.000000   4241028   4241980   4241780   4240223   4237202  
  4250.000000   4232795   4227213   4220827   4214035   4207260  
  4240.000000   4200805   4194902   4189612   4184933   4180757  
  4230.000000   4176974   4173451   4170084   4166792   4163518  
  4220.000000   4160251   4156982   4153771   4150658   4147751  
  4210.000000   4145109   4142838   4140970   4139558   4138578  
  4200.000000   4138019   4137808   4137903   4138217   4138712  
  4190.000000   4139324   4140051   4140863   4141790   4142816  
  4180.000000   4143973   4145228   4146592   4148016   4149511  
  4170.000000   4151051   4152690   4154448   4156420   4158648  
  4160.000000   4161223   4164163   4167525   4171289   4175486  
  4150.000000   4180082   4185104   4190512   4196338   4202535  
  4140.000000   4209136   4216093   4223444   4231144   4239237  
  4130.000000   4247679   4256513   4265694   4275267   4285199  
  4120.000000   4295553   4306322   4317586   4329356   4341706  
  4110.000000   4354637   4368186   4382311   4396993   4412138  
  4100.000000   4427673   4443478   4459470   4475552   4491676  
  4090.000000   4507802   4523912   4539998   4556042   4572036  
  4080.000000   4587946   4603774   4619481   4635086   4650531  
  4070.000000   4665807   4680800   4695449   4709594   4723177  
  4060.000000   4736071   4748288   4759776   4770616   4780792  
  4050.000000   4790406   4799443   4808001   4816054   4823688  
  4040.000000   4830849   4837590   4843822   4849571   4854746  
  4030.000000   4859392   4863452   4866995   4869993   4872510  
  4020.000000   4874502   4876039   4877129   4877848   4878171  
  4010.000000   4878188   4877933   4877381   4876333   4874801  
  4000.000000   4873022  
##END= 
