##TITLE= Sample 038 By ssteindl date Donnerstag, November 22 2018
##JCAMP-DX= 4.24
##DATA TYPE= INFRARED SPECTRUM
##ORIGIN= Exported PE Spectrum Data File
##OWNER= Sandra Steindl
##DATE= 18/11/22
##TIME= 12:15:43.00
##SPECTROMETER/DATA SYSTEM= PERKIN-ELMER Frontier FT-IR/NIR IR
##INSTRUMENT PARAMETERS=
  APODIZATION=stark
  DETECTOR=INGAAS
##RESOLUTION= 16.000000
##DELTAX= -2.000000
##XUNITS= 1/CM
##YUNITS= A
##XFACTOR= 1.00
##YFACTOR= 0.00000011920928955078
##FIRSTX= 10000.00
##LASTX= 4000.00
##NPOINTS= 3001
##FIRSTY= 0.333698
##MAXY= 0.643537
##MINY= 0.246310
##XYDATA= (X++(Y..Y))
 10000.000000   2799264   2794586   2789848   2785034   2780251  
  9990.000000   2775760   2771908   2769385   2769181   2772276  
  9980.000000   2778924   2788294   2798449   2806817   2810983  
  9970.000000   2809467   2802335   2791018   2777874   2765134  
  9960.000000   2754404   2746121   2739917   2734916   2730332  
  9950.000000   2725743   2721094   2716680   2712827   2710009  
  9940.000000   2708717   2709640   2713498   2720794   2731466  
  9930.000000   2744488   2757993   2769502   2776783   2778464  
  9920.000000   2774639   2766757   2757158   2748201   2741579  
  9910.000000   2737908   2736851   2737509   2738884   2740245  
  9900.000000   2741105   2741207   2740254   2738036   2734475  
  9890.000000   2729938   2725277   2721691   2720338   2721833  
  9880.000000   2725960   2731649   2737338   2741548   2743405  
  9870.000000   2742909   2740830   2738214   2735954   2734331  
  9860.000000   2733136   2731782   2729791   2726971   2723518  
  9850.000000   2719897   2716582   2714039   2712560   2712533  
  9840.000000   2714273   2718160   2724233   2732118   2740802  
  9830.000000   2748795   2754518   2756691   2754893   2749514  
  9820.000000   2741712   2732761   2723658   2714777   2705988  
  9810.000000   2697064   2688115   2679925   2673806   2671206  
  9800.000000   2673026   2679165   2688317   2698299   2706693  
  9790.000000   2711577   2712184   2709010   2703667   2698232  
  9780.000000   2694636   2694126   2697008   2702701   2710019  
  9770.000000   2717532   2723959   2728357   2730224   2729452  
  9760.000000   2726196   2720831   2713857   2705928   2697823  
  9750.000000   2690433   2684657   2681270   2680687   2682861  
  9740.000000   2687147   2692475   2697528   2701118   2702455  
  9730.000000   2701332   2698118   2693573   2688613   2684060  
  9720.000000   2680553   2678470   2678014   2679194   2681813  
  9710.000000   2685421   2689221   2692218   2693355   2691931  
  9700.000000   2687842   2681779   2675064   2669250   2665587  
  9690.000000   2664573   2665769   2668005   2669772   2669817  
  9680.000000   2667509   2663039   2657257   2651287   2646149  
  9670.000000   2642358   2639927   2638350   2636961   2635085  
  9660.000000   2632352   2628728   2624572   2620553   2617491  
  9650.000000   2616231   2617375   2621148   2627224   2634775  
  9640.000000   2642621   2649526   2654528   2657160   2657543  
  9630.000000   2656235   2654000   2651462   2648948   2646391  
  9620.000000   2643516   2640004   2635733   2630841   2625700  
  9610.000000   2620802   2616573   2613334   2611158   2610018  
  9600.000000   2609722   2610103   2610989   2612299   2614041  
  9590.000000   2616280   2619115   2622514   2626277   2629869  
  9580.000000   2632566   2633497   2632039   2627983   2621784  
  9570.000000   2614482   2607457   2602076   2599244   2599239  
  9560.000000   2601623   2605541   2609990   2614169   2617600  
  9550.000000   2620098   2621630   2622139   2621540   2619749  
  9540.000000   2616878   2613285   2609597   2606538   2604697  
  9530.000000   2604389   2605489   2607626   2610210   2612783  
  9520.000000   2614981   2616654   2617682   2617906   2617102  
  9510.000000   2614997   2611463   2606535   2600519   2593823  
  9500.000000   2586884   2580029   2573492   2567500   2562376  
  9490.000000   2558585   2556606   2556753   2558933   2562584  
  9480.000000   2566746   2570359   2572617   2573234   2572575  
  9470.000000   2571437   2570783   2571269   2573087   2575846  
  9460.000000   2578830   2581218   2582398   2582099   2580404  
  9450.000000   2577685   2574426   2571179   2568415   2566565  
  9440.000000   2565874   2566400   2567894   2569849   2571576  
  9430.000000   2572429   2571982   2570202   2567405   2564150  
  9420.000000   2560962   2558156   2555728   2553466   2551145  
  9410.000000   2548713   2546358   2544389   2543052   2542323  
  9400.000000   2541878   2541137   2539520   2536650   2532559  
  9390.000000   2527679   2522739   2518510   2515616   2514398  
  9380.000000   2514924   2517032   2520398   2524552   2528914  
  9370.000000   2532805   2535612   2536894   2536583   2535001  
  9360.000000   2532806   2530770   2529520   2529335   2530076  
  9350.000000   2531339   2532668   2533808   2534748   2535669  
  9340.000000   2536695   2537737   2538394   2538082   2536295  
  9330.000000   2532883   2528227   2523125   2518526   2515192  
  9320.000000   2513451   2513171   2513855   2514935   2515963  
  9310.000000   2516770   2517384   2517888   2518294   2518463  
  9300.000000   2518233   2517487   2516305   2514907   2513592  
  9290.000000   2512574   2511879   2511376   2510867   2510311  
  9280.000000   2509874   2509952   2510907   2512887   2515572  
  9270.000000   2518276   2520097   2520288   2518535   2515104  
  9260.000000   2510771   2506438   2502829   2500166   2498195  
  9250.000000   2496274   2493686   2489958   2485084   2479588  
  9240.000000   2474299   2470147   2467821   2467710   2469748  
  9230.000000   2473511   2478267   2483140   2487323   2490151  
  9220.000000   2491286   2490630   2488420   2485031   2480965  
  9210.000000   2476630   2472358   2468344   2464774   2461885  
  9200.000000   2459983   2459409   2460358   2462833   2466494  
  9190.000000   2470759   2474869   2478165   2480257   2481124  
  9180.000000   2481064   2480534   2479991   2479725   2479814  
  9170.000000   2480115   2480361   2480275   2479638   2478326  
  9160.000000   2476257   2473445   2469978   2466078   2462062  
  9150.000000   2458310   2455181   2452882   2451397   2450478  
  9140.000000   2449738   2448802   2447433   2445652   2443720  
  9130.000000   2442066   2441118   2441154   2442229   2444144  
  9120.000000   2446541   2448956   2450937   2452109   2452255  
  9110.000000   2451324   2449467   2447009   2444430   2442241  
  9100.000000   2440829   2440346   2440610   2441202   2441544  
  9090.000000   2441191   2439958   2438061   2436001   2434376  
  9080.000000   2433615   2433764   2434445   2434914   2434375  
  9070.000000   2432223   2428373   2423255   2417755   2412901  
  9060.000000   2409575   2408266   2408931   2411102   2414047  
  9050.000000   2417068   2419681   2421742   2423395   2424947  
  9040.000000   2426681   2428683   2430801   2432626   2433687  
  9030.000000   2433541   2431986   2429094   2425238   2420999  
  9020.000000   2416994   2413788   2411708   2410882   2411154  
  9010.000000   2412228   2413686   2415140   2416261   2416844  
  9000.000000   2416801   2416144   2414980   2413413   2411563  
  8990.000000   2409492   2407279   2404981   2402695   2400563  
  8980.000000   2398776   2397555   2397050   2397339   2398360  
  8970.000000   2399936   2401787   2403604   2405145   2406229  
  8960.000000   2406784   2406785   2406288   2405352   2404068  
  8950.000000   2402550   2400968   2399531   2398445   2397899  
  8940.000000   2397992   2398735   2399981   2401526   2403092  
  8930.000000   2404437   2405339   2405659   2405349   2404438  
  8920.000000   2403032   2401268   2399314   2397297   2395273  
  8910.000000   2393219   2391048   2388684   2386100   2383424  
  8900.000000   2380901   2378878   2377639   2377326   2377842  
  8890.000000   2378849   2379861   2380377   2380078   2378881  
  8880.000000   2376991   2374749   2372544   2370650   2369205  
  8870.000000   2368190   2367528   2367146   2367031   2367233  
  8860.000000   2367783   2368672   2369788   2370966   2372021  
  8850.000000   2372819   2373329   2373577   2373638   2373510  
  8840.000000   2373152   2372438   2371288   2369687   2367775  
  8830.000000   2365807   2364090   2362895   2362352   2362472  
  8820.000000   2363146   2364257   2365710   2367487   2369593  
  8810.000000   2371992   2374522   2376887   2378709   2379650  
  8800.000000   2379541   2378449   2376676   2374664   2372841  
  8790.000000   2371493   2370665   2370196   2369792   2369170  
  8780.000000   2368151   2366713   2364952   2363020   2361042  
  8770.000000   2359085   2357174   2355332   2353652   2352300  
  8760.000000   2351504   2351457   2352221   2353684   2355546  
  8750.000000   2357429   2358974   2359962   2360385   2360407  
  8740.000000   2360305   2360301   2360503   2360812   2361006  
  8730.000000   2360783   2359927   2358364   2356227   2353809  
  8720.000000   2351476   2349590   2348399   2348032   2348475  
  8710.000000   2349613   2351267   2353222   2355263   2357173  
  8700.000000   2358761   2359863   2360381   2360300   2359705  
  8690.000000   2358783   2357791   2357017   2356712   2357050  
  8680.000000   2358060   2359634   2361502   2363304   2364651  
  8670.000000   2365202   2364769   2363333   2361090   2358350  
  8660.000000   2355484   2352806   2350537   2348799   2347642  
  8650.000000   2347118   2347301   2348311   2350219   2352987  
  8640.000000   2356361   2359900   2363049   2365275   2366257  
  8630.000000   2365949   2364661   2362879   2361149   2359854  
  8620.000000   2359147   2358932   2358963   2358988   2358858  
  8610.000000   2358609   2358386   2358401   2358789   2359578  
  8600.000000   2360661   2361860   2362996   2363938   2364626  
  8590.000000   2365048   2365216   2365144   2364864   2364441  
  8580.000000   2364000   2363701   2363691   2364029   2364634  
  8570.000000   2365286   2365678   2365550   2364776   2363461  
  8560.000000   2361883   2360449   2359513   2359290   2359759  
  8550.000000   2360707   2361813   2362738   2363242   2363188  
  8540.000000   2362584   2361468   2359900   2357911   2355572  
  8530.000000   2352999   2350402   2348090   2346440   2345807  
  8520.000000   2346409   2348285   2351255   2354965   2358928  
  8510.000000   2362638   2365677   2367764   2368802   2368858  
  8500.000000   2368168   2367038   2365806   2364758   2364105  
  8490.000000   2363936   2364203   2364757   2365372   2365842  
  8480.000000   2365985   2365739   2365133   2364306   2363428  
  8470.000000   2362666   2362125   2361825   2361701   2361638  
  8460.000000   2361526   2361298   2360960   2360576   2360230  
  8450.000000   2359976   2359792   2359588   2359241   2358658  
  8440.000000   2357842   2356909   2356077   2355580   2355580  
  8430.000000   2356100   2356995   2358014   2358875   2359394  
  8420.000000   2359533   2359419   2359250   2359223   2359419  
  8410.000000   2359789   2360163   2360337   2360164   2359601  
  8400.000000   2358725   2357647   2356458   2355162   2353689  
  8390.000000   2351949   2349910   2347671   2345470   2343648  
  8380.000000   2342513   2342267   2342898   2344219   2345894  
  8370.000000   2347576   2348981   2349950   2350460   2350545  
  8360.000000   2350277   2349672   2348734   2347430   2345774  
  8350.000000   2343828   2341725   2339643   2337764   2336261  
  8340.000000   2335249   2334817   2334978   2335708   2336903  
  8330.000000   2338388   2339904   2341151   2341851   2341817  
  8320.000000   2341027   2339615   2337865   2336109   2334641  
  8310.000000   2333621   2333044   2332776   2332621   2332410  
  8300.000000   2332053   2331559   2330992   2330442   2329940  
  8290.000000   2329472   2328971   2328389   2327729   2327075  
  8280.000000   2326577   2326374   2326535   2327000   2327579  
  8270.000000   2328002   2327980   2327314   2325960   2324053  
  8260.000000   2321869   2319744   2317974   2316746   2316086  
  8250.000000   2315874   2315871   2315817   2315490   2314798  
  8240.000000   2313760   2312525   2311273   2310193   2309384  
  8230.000000   2308851   2308494   2308140   2307615   2306769  
  8220.000000   2305535   2303911   2301942   2299692   2297209  
  8210.000000   2294546   2291768   2288991   2286391   2284184  
  8200.000000   2282576   2281686   2281494   2281813   2282318  
  8190.000000   2282629   2282420   2281510   2279924   2277875  
  8180.000000   2275703   2273768   2272364   2271636   2271578  
  8170.000000   2272036   2272759   2273454   2273841   2273710  
  8160.000000   2272949   2271576   2269726   2267631   2265568  
  8150.000000   2263791   2262462   2261604   2261092   2260699  
  8140.000000   2260163   2259282   2257957   2256228   2254225  
  8130.000000   2252132   2250108   2248252   2246590   2245094  
  8120.000000   2243716   2242422   2241206   2240084   2239069  
  8110.000000   2238161   2237321   2236488   2235590   2234566  
  8100.000000   2233387   2232054   2230610   2229117   2227657  
  8090.000000   2226299   2225092   2224045   2223125   2222267  
  8080.000000   2221398   2220463   2219459   2218423   2217425  
  8070.000000   2216525   2215742   2215028   2214287   2213413  
  8060.000000   2212354   2211147   2209927   2208884   2208184  
  8050.000000   2207897   2207948   2208139   2208214   2207962  
  8040.000000   2207296   2206281   2205109   2204004   2203138  
  8030.000000   2202560   2202190   2201865   2201418   2200753  
  8020.000000   2199874   2198874   2197876   2196982   2196220  
  8010.000000   2195556   2194913   2194213   2193415   2192512  
  8000.000000   2191533   2190510   2189473   2188442   2187442  
  7990.000000   2186512   2185703   2185067   2184630   2184371  
  7980.000000   2184217   2184063   2183806   2183383   2182786  
  7970.000000   2182065   2181297   2180551   2179865   2179236  
  7960.000000   2178634   2178021   2177378   2176704   2176013  
  7950.000000   2175316   2174607   2173865   2173061   2172184  
  7940.000000   2171250   2170314   2169457   2168767   2168306  
  7930.000000   2168092   2168090   2168209   2168331   2168324  
  7920.000000   2168086   2167563   2166770   2165792   2164762  
  7910.000000   2163826   2163095   2162614   2162346   2162188  
  7900.000000   2162013   2161723   2161275   2160698   2160059  
  7890.000000   2159425   2158819   2158206   2157509   2156653  
  7880.000000   2155615   2154444   2153259   2152204   2151388  
  7870.000000   2150844   2150511   2150267   2149978   2149562  
  7860.000000   2149016   2148412   2147863   2147462   2147251  
  7850.000000   2147198   2147226   2147240   2147171   2146992  
  7840.000000   2146715   2146378   2146016   2145661   2145331  
  7830.000000   2145045   2144823   2144679   2144605   2144555  
  7820.000000   2144439   2144151   2143590   2142721   2141584  
  7810.000000   2140306   2139055   2137994   2137216   2136717  
  7800.000000   2136395   2136088   2135634   2134924   2133938  
  7790.000000   2132755   2131510   2130360   2129424   2128762  
  7780.000000   2128362   2128165   2128089   2128053   2128004  
  7770.000000   2127907   2127735   2127458   2127033   2126418  
  7760.000000   2125585   2124551   2123392   2122232   2121214  
  7750.000000   2120461   2120019   2119840   2119786   2119670  
  7740.000000   2119318   2118623   2117580   2116280   2114867  
  7730.000000   2113484   2112228   2111132   2110179   2109348  
  7720.000000   2108637   2108092   2107776   2107737   2107956  
  7710.000000   2108330   2108687   2108822   2108574   2107858  
  7700.000000   2106704   2105232   2103616   2102037   2100641  
  7690.000000   2099527   2098741   2098292   2098150   2098255  
  7680.000000   2098501   2098756   2098864   2098694   2098166  
  7670.000000   2097278   2096107   2094780   2093440   2092191  
  7660.000000   2091094   2090141   2089303   2088530   2087791  
  7650.000000   2087066   2086343   2085608   2084844   2084041  
  7640.000000   2083218   2082435   2081794   2081415   2081395  
  7630.000000   2081768   2082475   2083378   2084289   2085020  
  7620.000000   2085437   2085475   2085150   2084530   2083717  
  7610.000000   2082809   2081894   2081027   2080236   2079516  
  7600.000000   2078840   2078163   2077439   2076650   2075810  
  7590.000000   2074992   2074294   2073827   2073659   2073796  
  7580.000000   2074165   2074635   2075065   2075338   2075398  
  7570.000000   2075249   2074939   2074520   2074031   2073482  
  7560.000000   2072873   2072214   2071542   2070919   2070408  
  7550.000000   2070042   2069801   2069614   2069382   2069025  
  7540.000000   2068520   2067906   2067282   2066750   2066391  
  7530.000000   2066220   2066195   2066235   2066273   2066274  
  7520.000000   2066265   2066301   2066452   2066751   2067193  
  7510.000000   2067719   2068261   2068749   2069153   2069467  
  7500.000000   2069717   2069937   2070159   2070411   2070720  
  7490.000000   2071121   2071653   2072351   2073223   2074224  
  7480.000000   2075262   2076203   2076919   2077312   2077367  
  7470.000000   2077146   2076789   2076459   2076306   2076416  
  7460.000000   2076806   2077424   2078184   2079002   2079823  
  7450.000000   2080637   2081464   2082333   2083260   2084233  
  7440.000000   2085214   2086154   2087022   2087805   2088526  
  7430.000000   2089214   2089900   2090589   2091260   2091872  
  7420.000000   2092392   2092811   2093162   2093507   2093920  
  7410.000000   2094456   2095128   2095906   2096726   2097526  
  7400.000000   2098276   2098988   2099715   2100518   2101437  
  7390.000000   2102466   2103546   2104590   2105520   2106299  
  7380.000000   2106955   2107572   2108255   2109093   2110117  
  7370.000000   2111300   2112557   2113789   2114911   2115875  
  7360.000000   2116679   2117348   2117914   2118394   2118790  
  7350.000000   2119089   2119288   2119409   2119504   2119646  
  7340.000000   2119904   2120327   2120927   2121684   2122556  
  7330.000000   2123501   2124487   2125501   2126542   2127607  
  7320.000000   2128691   2129767   2130805   2131769   2132641  
  7310.000000   2133423   2134144   2134849   2135584   2136379  
  7300.000000   2137238   2138141   2139043   2139898   2140670  
  7290.000000   2141347   2141940   2142483   2143016   2143570  
  7280.000000   2144160   2144778   2145401   2146003   2146566  
  7270.000000   2147090   2147599   2148130   2148723   2149405  
  7260.000000   2150180   2151018   2151875   2152690   2153420  
  7250.000000   2154040   2154573   2155063   2155589   2156224  
  7240.000000   2157033   2158039   2159243   2160600   2162070  
  7230.000000   2163601   2165174   2166769   2168398   2170060  
  7220.000000   2171767   2173512   2175306   2177152   2179093  
  7210.000000   2181165   2183429   2185918   2188647   2191579  
  7200.000000   2194656   2197788   2200909   2203964   2206953  
  7190.000000   2209892   2212828   2215788   2218792   2221818  
  7180.000000   2224838   2227808   2230713   2233550   2236355  
  7170.000000   2239170   2242054   2245043   2248164   2251409  
  7160.000000   2254766   2258196   2261678   2265186   2268728  
  7150.000000   2272316   2275999   2279819   2283836   2288072  
  7140.000000   2292540   2297197   2301995   2306854   2311728  
  7130.000000   2316573   2321403   2326234   2331122   2336098  
  7120.000000   2341199   2346418   2351753   2357170   2362654  
  7110.000000   2368180   2373754   2379382   2385099   2390934  
  7100.000000   2396935   2403125   2409512   2416055   2422677  
  7090.000000   2429265   2435711   2441930   2447909   2453697  
  7080.000000   2459411   2465177   2471101   2477211   2483465  
  7070.000000   2489755   2495966   2502016   2507891   2513648  
  7060.000000   2519372   2525145   2531002   2536924   2542850  
  7050.000000   2548714   2554473   2560129   2565716   2571282  
  7040.000000   2576855   2582436   2587999   2593515   2598966  
  7030.000000   2604368   2609745   2615127   2620513   2625877  
  7020.000000   2631169   2636352   2641413   2646385   2651323  
  7010.000000   2656285   2661290   2666311   2671268   2676079  
  7000.000000   2680672   2685043   2689233   2693334   2697429  
  6990.000000   2701586   2705804   2710048   2714238   2718303  
  6980.000000   2722179   2725844   2729294   2732559   2735671  
  6970.000000   2738682   2741627   2744557   2747491   2750447  
  6960.000000   2753409   2756361   2759267   2762117   2764903  
  6950.000000   2767645   2770345   2773009   2775603   2778085  
  6940.000000   2780401   2782533   2784487   2786321   2788097  
  6930.000000   2789884   2791696   2793518   2795281   2796924  
  6920.000000   2798391   2799682   2800822   2801872   2802873  
  6910.000000   2803854   2804801   2805692   2806494   2807203  
  6900.000000   2807832   2808429   2809040   2809714   2810475  
  6890.000000   2811332   2812265   2813242   2814208   2815106  
  6880.000000   2815878   2816486   2816922   2817221   2817458  
  6870.000000   2817725   2818102   2818632   2819300   2820052  
  6860.000000   2820810   2821517   2822156   2822761   2823392  
  6850.000000   2824109   2824930   2825828   2826726   2827536  
  6840.000000   2828179   2828620   2828864   2828955   2828950  
  6830.000000   2828912   2828886   2828915   2829022   2829229  
  6820.000000   2829529   2829896   2830263   2830553   2830682  
  6810.000000   2830603   2830310   2829852   2829304   2828751  
  6800.000000   2828244   2827806   2827422   2827071   2826737  
  6790.000000   2826426   2826152   2825927   2825738   2825546  
  6780.000000   2825294   2824942   2824474   2823924   2823353  
  6770.000000   2822833   2822408   2822079   2821804   2821514  
  6760.000000   2821145   2820655   2820035   2819298   2818471  
  6750.000000   2817575   2816626   2815641   2814643   2813677  
  6740.000000   2812792   2812041   2811453   2811032   2810747  
  6730.000000   2810548   2810372   2810158   2809848   2809390  
  6720.000000   2808746   2807896   2806857   2805685   2804477  
  6710.000000   2803351   2802407   2801707   2801236   2800925  
  6700.000000   2800658   2800326   2799846   2799195   2798389  
  6690.000000   2797474   2796487   2795455   2794380   2793267  
  6680.000000   2792123   2790973   2789843   2788751   2787679  
  6670.000000   2786588   2785416   2784125   2782701   2781182  
  6660.000000   2779627   2778103   2776642   2775238   2773846  
  6650.000000   2772421   2770926   2769370   2767788   2766233  
  6640.000000   2764738   2763308   2761909   2760495   2759020  
  6630.000000   2757464   2755825   2754122   2752366   2750563  
  6620.000000   2748707   2746804   2744871   2742953   2741100  
  6610.000000   2739353   2737715   2736149   2734583   2732945  
  6600.000000   2731190   2729317   2727369   2725409   2723490  
  6590.000000   2721631   2719818   2718010   2716171   2714286  
  6580.000000   2712367   2710447   2708557   2706719   2704937  
  6570.000000   2703210   2701541   2699947   2698451   2697061  
  6560.000000   2695760   2694486   2693153   2691671   2689988  
  6550.000000   2688102   2686079   2684018   2682026   2680181  
  6540.000000   2678507   2676989   2675576   2674219   2672878  
  6530.000000   2671535   2670178   2668796   2667371   2665882  
  6520.000000   2664312   2662663   2660957   2659232   2657530  
  6510.000000   2655887   2654322   2652842   2651449   2650143  
  6500.000000   2648926   2647791   2646717   2645664   2644576  
  6490.000000   2643399   2642097   2640667   2639143   2637583  
  6480.000000   2636052   2634599   2633245   2631984   2630789  
  6470.000000   2629626   2628464   2627280   2626060   2624799  
  6460.000000   2623500   2622177   2620855   2619567   2618347  
  6450.000000   2617214   2616167   2615181   2614212   2613217  
  6440.000000   2612169   2611062   2609919   2608769   2607642  
  6430.000000   2606549   2605485   2604435   2603387   2602341  
  6420.000000   2601315   2600334   2599426   2598603   2597869  
  6410.000000   2597210   2596615   2596071   2595571   2595104  
  6400.000000   2594652   2594191   2593695   2593147   2592552  
  6390.000000   2591930   2591319   2590750   2590235   2589758  
  6380.000000   2589277   2588745   2588124   2587406   2586615  
  6370.000000   2585800   2585010   2584284   2583631   2583041  
  6360.000000   2582487   2581943   2581384   2580796   2580164  
  6350.000000   2579475   2578708   2577854   2576913   2575910  
  6340.000000   2574890   2573909   2573014   2572232   2571553  
  6330.000000   2570939   2570323   2569640   2568830   2567858  
  6320.000000   2566720   2565441   2564070   2562673   2561319  
  6310.000000   2560070   2558959   2557996   2557149   2556367  
  6300.000000   2555580   2554733   2553782   2552712   2551523  
  6290.000000   2550228   2548833   2547342   2545753   2544070  
  6280.000000   2542312   2540516   2538722   2536974   2535289  
  6270.000000   2533668   2532084   2530506   2528905   2527273  
  6260.000000   2525616   2523956   2522309   2520682   2519061  
  6250.000000   2517429   2515766   2514066   2512337   2510600  
  6240.000000   2508875   2507174   2505495   2503826   2502149  
  6230.000000   2500453   2498739   2497015   2495298   2493600  
  6220.000000   2491926   2490272   2488629   2486987   2485341  
  6210.000000   2483697   2482067   2480470   2478924   2477443  
  6200.000000   2476031   2474682   2473376   2472086   2470786  
  6190.000000   2469452   2468078   2466672   2465260   2463869  
  6180.000000   2462526   2461235   2459985   2458744   2457477  
  6170.000000   2456151   2454754   2453293   2451794   2450296  
  6160.000000   2448838   2447456   2446171   2444995   2443925  
  6150.000000   2442943   2442022   2441125   2440215   2439262  
  6140.000000   2438255   2437202   2436131   2435070   2434044  
  6130.000000   2433057   2432090   2431111   2430091   2429016  
  6120.000000   2427901   2426779   2425699   2424699   2423796  
  6110.000000   2422980   2422225   2421496   2420770   2420037  
  6100.000000   2419313   2418617   2417980   2417415   2416940  
  6090.000000   2416555   2416269   2416078   2415986   2415978  
  6080.000000   2416043   2416148   2416271   2416383   2416479  
  6070.000000   2416555   2416637   2416739   2416893   2417113  
  6060.000000   2417419   2417817   2418321   2418930   2419648  
  6050.000000   2420460   2421355   2422308   2423307   2424337  
  6040.000000   2425405   2426514   2427683   2428911   2430209  
  6030.000000   2431568   2432995   2434489   2436070   2437744  
  6020.000000   2439518   2441371   2443273   2445172   2447027  
  6010.000000   2448803   2450499   2452129   2453735   2455347  
  6000.000000   2457002   2458710   2460483   2462324   2464247  
  5990.000000   2466260   2468377   2470594   2472899   2475256  
  5980.000000   2477634   2480004   2482361   2484709   2487078  
  5970.000000   2489480   2491932   2494422   2496939   2499462  
  5960.000000   2501993   2504535   2507114   2509745   2512443  
  5950.000000   2515200   2518010   2520858   2523746   2526688  
  5940.000000   2529708   2532832   2536075   2539435   2542888  
  5930.000000   2546401   2549935   2553455   2556928   2560321  
  5920.000000   2563599   2566724   2569661   2572386   2574897  
  5910.000000   2577211   2579361   2581387   2583324   2585204  
  5900.000000   2587050   2588892   2590757   2592689   2594716  
  5890.000000   2596865   2599131   2601491   2603900   2606316  
  5880.000000   2608702   2611037   2613317   2615537   2617691  
  5870.000000   2619757   2621719   2623556   2625278   2626913  
  5860.000000   2628517   2630147   2631860   2633691   2635656  
  5850.000000   2637753   2639975   2642313   2644762   2647311  
  5840.000000   2649948   2652649   2655392   2658154   2660929  
  5830.000000   2663719   2666537   2669385   2672257   2675123  
  5820.000000   2677949   2680697   2683350   2685911   2688406  
  5810.000000   2690870   2693328   2695799   2698271   2700743  
  5800.000000   2703193   2705637   2708069   2710517   2712961  
  5790.000000   2715396   2717754   2719981   2721974   2723659  
  5780.000000   2724925   2725701   2725896   2725470   2724398  
  5770.000000   2722737   2720575   2718076   2715401   2712725  
  5760.000000   2710156   2707771   2705570   2703544   2701657  
  5750.000000   2699901   2698270   2696777   2695420   2694186  
  5740.000000   2693044   2691957   2690901   2689860   2688851  
  5730.000000   2687882   2686973   2686116   2685300   2684500  
  5720.000000   2683712   2682939   2682210   2681550   2680986  
  5710.000000   2680515   2680118   2679762   2679418   2679067  
  5700.000000   2678713   2678371   2678057   2677780   2677537  
  5690.000000   2677321   2677122   2676945   2676789   2676666  
  5680.000000   2676561   2676454   2676295   2676039   2675629  
  5670.000000   2675037   2674234   2673214   2671964   2670483  
  5660.000000   2668767   2666837   2664729   2662516   2660276  
  5650.000000   2658094   2656023   2654092   2652283   2650566  
  5640.000000   2648898   2647257   2645633   2644036   2642479  
  5630.000000   2640969   2639509   2638092   2636721   2635398  
  5620.000000   2634143   2632965   2631876   2630861   2629904  
  5610.000000   2628972   2628049   2627127   2626222   2625352  
  5600.000000   2624541   2623792   2623104   2622456   2621831  
  5590.000000   2621214   2620600   2619982   2619354   2618701  
  5580.000000   2618005   2617249   2616428   2615557   2614664  
  5570.000000   2613781   2612933   2612127   2611347   2610566  
  5560.000000   2609751   2608881   2607946   2606954   2605917  
  5550.000000   2604855   2603782   2602713   2601660   2600637  
  5540.000000   2599651   2598704   2597782   2596864   2595920  
  5530.000000   2594932   2593893   2592816   2591726   2590650  
  5520.000000   2589605   2588589   2587586   2586575   2585534  
  5510.000000   2584457   2583346   2582210   2581057   2579889  
  5500.000000   2578703   2577499   2576281   2575064   2573861  
  5490.000000   2572680   2571508   2570319   2569074   2567743  
  5480.000000   2566312   2564795   2563222   2561637   2560066  
  5470.000000   2558524   2556997   2555464   2553897   2552283  
  5460.000000   2550613   2548890   2547115   2545287   2543406  
  5450.000000   2541481   2539534   2537605   2535739   2533973  
  5440.000000   2532326   2530791   2529344   2527951   2526592  
  5430.000000   2525250   2523926   2522612   2521307   2519989  
  5420.000000   2518656   2517306   2515984   2514738   2513645  
  5410.000000   2512745   2512063   2511561   2511199   2510915  
  5400.000000   2510694   2510524   2510450   2510492   2510693  
  5390.000000   2511039   2511531   2512135   2512865   2513732  
  5380.000000   2514800   2516099   2517680   2519519   2521600  
  5370.000000   2523847   2526229   2528683   2531228   2533840  
  5360.000000   2536575   2539426   2542467   2545707   2549252  
  5350.000000   2553141   2557495   2562332   2567728   2573627  
  5340.000000   2580045   2586892   2594198   2601908   2610097  
  5330.000000   2618724   2627861   2637436   2647499   2657979  
  5320.000000   2668973   2680471   2692638   2705497   2719209  
  5310.000000   2733747   2749200   2765469   2782601   2800497  
  5300.000000   2819233   2838761   2859205   2880548   2902918  
  5290.000000   2926271   2950664   2975968   3002139   3028983  
  5280.000000   3056444   3084398   3112902   3141976   3171770  
  5270.000000   3202323   3233668   3265667   3298116   3330747  
  5260.000000   3363325   3395727   3427926   3460011   3492041  
  5250.000000   3524066   3555955   3587550   3618532   3648716  
  5240.000000   3677877   3706047   3733212   3759574   3785177  
  5230.000000   3810188   3834532   3858232   3881091   3903078  
  5220.000000   3924016   3943967   3962875   3980918   3998111  
  5210.000000   4014637   4030446   4045604   4059940   4073442  
  5200.000000   4085938   4097494   4108062   4117819   4126783  
  5190.000000   4135118   4142780   4149844   4156203   4161907  
  5180.000000   4166877   4171208   4174860   4177933   4180367  
  5170.000000   4182222   4183422   4184038   4184041   4183550  
  5160.000000   4182570   4181206   4179421   4177255   4174632  
  5150.000000   4171580   4168053   4164125   4159794   4155145  
  5140.000000   4150171   4144926   4139387   4133605   4127583  
  5130.000000   4121392   4115051   4108616   4102074   4095437  
  5120.000000   4088665   4081769   4074740   4067630   4060471  
  5110.000000   4053324   4046211   4039154   4032134   4025143  
  5100.000000   4018152   4011155   4004143   3997121   3990088  
  5090.000000   3983055   3976023   3969004   3962003   3955035  
  5080.000000   3948098   3941193   3934302   3927415   3920512  
  5070.000000   3913594   3906659   3899716   3892761   3885789  
  5060.000000   3878771   3871682   3864490   3857191   3849785  
  5050.000000   3842302   3834766   3827206   3819626   3812025  
  5040.000000   3804382   3796686   3788923   3781105   3773246  
  5030.000000   3765374   3757515   3749692   3741924   3734225  
  5020.000000   3726610   3719091   3711683   3704388   3697213  
  5010.000000   3690143   3683180   3676305   3669533   3662861  
  5000.000000   3656320   3649919   3643695   3637645   3631796  
  4990.000000   3626133   3620680   3615421   3610390   3605579  
  4980.000000   3601029   3596728   3592714   3588962   3585500  
  4970.000000   3582293   3579371   3576704   3574331   3572232  
  4960.000000   3570464   3569015   3567949   3567251   3566975  
  4950.000000   3567088   3567620   3568516   3569793   3571393  
  4940.000000   3573343   3575604   3578220   3581165   3584482  
  4930.000000   3588133   3592144   3596463   3601109   3606038  
  4920.000000   3611278   3616797   3622629   3628743   3635158  
  4910.000000   3641835   3648779   3655951   3663351   3670948  
  4900.000000   3678739   3686694   3694798   3703017   3711323  
  4890.000000   3719681   3728050   3736398   3744670   3752831  
  4880.000000   3760814   3768587   3776084   3783284   3790125  
  4870.000000   3796599   3802649   3808274   3813424   3818117  
  4860.000000   3822326   3826092   3829414   3832350   3834907  
  4850.000000   3837146   3839074   3840752   3842193   3843458  
  4840.000000   3844563   3845560   3846454   3847280   3848030  
  4830.000000   3848729   3849379   3850011   3850643   3851309  
  4820.000000   3852027   3852812   3853661   3854565   3855507  
  4810.000000   3856469   3857446   3858434   3859442   3860481  
  4800.000000   3861571   3862723   3863954   3865269   3866674  
  4790.000000   3868164   3869731   3871359   3873033   3874733  
  4780.000000   3876448   3878173   3879909   3881662   3883442  
  4770.000000   3885251   3887085   3888930   3890762   3892557  
  4760.000000   3894284   3895928   3897474   3898926   3900287  
  4750.000000   3901573   3902789   3903944   3905030   3906042  
  4740.000000   3906964   3907789   3908509   3909131   3909659  
  4730.000000   3910113   3910505   3910855   3911177   3911490  
  4720.000000   3911812   3912159   3912554   3913009   3913535  
  4710.000000   3914131   3914795   3915514   3916284   3917099  
  4700.000000   3917970   3918908   3919938   3921076   3922346  
  4690.000000   3923755   3925310   3927002   3928822   3930738  
  4680.000000   3932725   3934735   3936732   3938672   3940535  
  4670.000000   3942300   3943983   3945599   3947191   3948789  
  4660.000000   3950439   3952168   3954013   3955995   3958139  
  4650.000000   3960458   3962962   3965643   3968484   3971452  
  4640.000000   3974509   3977618   3980744   3983861   3986946  
  4630.000000   3989983   3992946   3995816   3998561   4001159  
  4620.000000   4003580   4005812   4007831   4009632   4011193  
  4610.000000   4012515   4013586   4014430   4015062   4015541  
  4600.000000   4015900   4016205   4016471   4016729   4016954  
  4590.000000   4017138   4017233   4017222   4017062   4016746  
  4580.000000   4016243   4015554   4014655   4013553   4012239  
  4570.000000   4010738   4009061   4007245   4005303   4003267  
  4560.000000   4001136   3998929   3996645   3994308   3991933  
  4550.000000   3989551   3987175   3984819   3982467   3980100  
  4540.000000   3977688   3975210   3972663   3970060   3967435  
  4530.000000   3964816   3962236   3959703   3957225   3954785  
  4520.000000   3952390   3950029   3947740   3945530   3943459  
  4510.000000   3941536   3939827   3938334   3937131   3936228  
  4500.000000   3935720   3935624   3936040   3936971   3938500  
  4490.000000   3940603   3943352   3946713   3950759   3955456  
  4480.000000   3960879   3966983   3973822   3981330   3989544  
  4470.000000   3998381   4007864   4017904   4028511   4039591  
  4460.000000   4051144   4063079   4075394   4088014   4100942  
  4450.000000   4114114   4127528   4141124   4154886   4168761  
  4440.000000   4182726   4196747   4210800   4224867   4238916  
  4430.000000   4252933   4266864   4280692   4294344   4307801  
  4420.000000   4320981   4333864   4346362   4358454   4370042  
  4410.000000   4381102   4391536   4401322   4410376   4418705  
  4400.000000   4426263   4433102   4439237   4444775   4449787  
  4390.000000   4454421   4458779   4463017   4467228   4471533  
  4380.000000   4475980   4480630   4485482   4490553   4495819  
  4370.000000   4501281   4506927   4512759   4518773   4524971  
  4360.000000   4531346   4537891   4544574   4551379   4558229  
  4350.000000   4565087   4571833   4578432   4584772   4590880  
  4340.000000   4596711   4602345   4607736   4612853   4617454  
  4330.000000   4621228   4623683   4624355   4622822   4618916  
  4320.000000   4612731   4604708   4595497   4585902   4576652  
  4310.000000   4568352   4561334   4555723   4551421   4548254  
  4300.000000   4545999   4544480   4543572   4543183   4543274  
  4290.000000   4543768   4544632   4545777   4547185   4548801  
  4280.000000   4550640   4552695   4554985   4557514   4560274  
  4270.000000   4563254   4566399   4569643   4572833   4575773  
  4260.000000   4578164   4579689   4580017   4578917   4576279  
  4250.000000   4572198   4566924   4560866   4554459   4548150  
  4240.000000   4542254   4536990   4532403   4528465   4525044  
  4230.000000   4522011   4519222   4516567   4513961   4511339  
  4220.000000   4508684   4505981   4503290   4500658   4498216  
  4210.000000   4496046   4494280   4492967   4492162   4491832  
  4200.000000   4491943   4492401   4493140   4494060   4495120  
  4190.000000   4496252   4497459   4498709   4500040   4501440  
  4180.000000   4502963   4504595   4506387   4508322   4510453  
  4170.000000   4512778   4515371   4518253   4521515   4525178  
  4160.000000   4529309   4533889   4538943   4544410   4550299  
  4150.000000   4556549   4563191   4570187   4577590   4585373  
  4140.000000   4593592   4602215   4611290   4620776   4630718  
  4130.000000   4641065   4651851   4663018   4674592   4686522  
  4120.000000   4698849   4711554   4724709   4738327   4752488  
  4110.000000   4767197   4782490   4798319   4814649   4831372  
  4100.000000   4848409   4865642   4883003   4900415   4917854  
  4090.000000   4935299   4952751   4970214   4987687   5005180  
  4080.000000   5022687   5040232   5057798   5075405   5092990  
  4070.000000   5110524   5127875   5144971   5161660   5177898  
  4060.000000   5193584   5208743   5223315   5237345   5250765  
  4050.000000   5263612   5275818   5287458   5298500   5309061  
  4040.000000   5319114   5328748   5337879   5346538   5354599  
  4030.000000   5362090   5368903   5375085   5380553   5385343  
  4020.000000   5389346   5392603   5395080   5396854   5397903  
  4010.000000   5398375   5398359   5397897   5396812   5395165  
  4000.000000   5393231  
##END= 
