##TITLE= Sample 015 By ssteindl date Donnerstag, November 22 2018
##JCAMP-DX= 4.24
##DATA TYPE= INFRARED SPECTRUM
##ORIGIN= Exported PE Spectrum Data File
##OWNER= Sandra Steindl
##DATE= 18/11/22
##TIME= 10:40:39.00
##SPECTROMETER/DATA SYSTEM= PERKIN-ELMER Frontier FT-IR/NIR IR
##INSTRUMENT PARAMETERS=
  APODIZATION=stark
  DETECTOR=INGAAS
##RESOLUTION= 16.000000
##DELTAX= -2.000000
##XUNITS= 1/CM
##YUNITS= A
##XFACTOR= 1.00
##YFACTOR= 0.00000011920928955078
##FIRSTX= 10000.00
##LASTX= 4000.00
##NPOINTS= 3001
##FIRSTY= 0.302875
##MAXY= 0.622184
##MINY= 0.229820
##XYDATA= (X++(Y..Y))
 10000.000000   2540700   2533859   2526070   2516604   2506582  
  9990.000000   2497860   2491420   2487337   2485765   2486930  
  9980.000000   2490634   2496047   2502189   2507893   2512078  
  9970.000000   2513823   2512856   2509419   2504303   2498530  
  9960.000000   2493207   2489260   2487373   2487936   2490996  
  9950.000000   2496265   2503056   2510393   2517139   2522284  
  9940.000000   2525136   2525499   2523625   2520119   2515723  
  9930.000000   2511166   2507056   2503868   2501932   2501462  
  9920.000000   2502448   2504620   2507295   2509499   2510110  
  9910.000000   2508255   2503630   2496723   2488690   2481017  
  9900.000000   2474979   2471254   2469775   2469891   2470773  
  9890.000000   2471739   2472526   2473157   2473773   2474251  
  9880.000000   2474140   2472737   2469490   2464367   2458104  
  9870.000000   2452088   2447953   2447034   2449887   2456130  
  9860.000000   2464552   2473535   2481494   2487253   2490200  
  9850.000000   2490223   2487581   2482747   2476402   2469413  
  9840.000000   2462851   2457800   2455115   2455099   2457324  
  9830.000000   2460727   2463886   2465555   2465013   2462367  
  9820.000000   2458383   2454222   2450930   2449138   2448888  
  9810.000000   2449808   2451351   2453107   2454882   2456678  
  9800.000000   2458468   2460043   2460950   2460570   2458409  
  9790.000000   2454216   2448234   2440983   2433215   2425559  
  9780.000000   2418469   2412188   2406856   2402734   2400167  
  9770.000000   2399690   2401666   2406249   2413035   2421198  
  9760.000000   2429558   2436897   2442325   2445334   2445993  
  9750.000000   2444551   2441445   2436852   2430873   2423450  
  9740.000000   2414767   2405327   2396095   2388335   2383268  
  9730.000000   2381810   2384157   2389845   2397755   2406565  
  9720.000000   2415082   2422573   2428862   2434138   2438737  
  9710.000000   2442788   2446199   2448633   2449835   2449758  
  9700.000000   2448717   2447280   2446017   2445347   2445259  
  9690.000000   2445512   2445620   2445282   2444365   2443081  
  9680.000000   2441684   2440361   2438989   2437191   2434513  
  9670.000000   2430667   2425737   2420150   2414515   2409341  
  9660.000000   2404839   2400883   2397181   2393506   2389961  
  9650.000000   2386991   2385258   2385274   2387094   2390151  
  9640.000000   2393414   2395789   2396594   2395873   2394391  
  9630.000000   2393299   2393631   2395858   2399692   2404218  
  9620.000000   2408261   2410805   2411316   2409786   2406595  
  9610.000000   2402258   2397201   2391722   2386024   2380385  
  9600.000000   2375187   2370905   2367896   2366266   2365721  
  9590.000000   2365733   2365667   2365123   2364003   2362545  
  9580.000000   2361143   2360078   2359437   2358969   2358335  
  9570.000000   2357164   2355330   2352893   2350088   2347158  
  9560.000000   2344258   2341501   2338999   2337046   2336073  
  9550.000000   2336581   2338870   2342817   2347785   2352696  
  9540.000000   2356367   2357813   2356615   2352962   2347640  
  9530.000000   2341674   2336099   2331645   2328704   2327358  
  9520.000000   2327501   2328954   2331433   2334606   2337990  
  9510.000000   2341118   2343565   2345175   2346077   2346663  
  9500.000000   2347422   2348660   2350353   2352027   2352963  
  9490.000000   2352437   2350071   2346023   2340954   2335838  
  9480.000000   2331575   2328771   2327518   2327515   2328197  
  9470.000000   2329038   2329687   2330046   2330167   2330115  
  9460.000000   2329873   2329306   2328285   2326726   2324743  
  9450.000000   2322558   2320485   2318763   2317485   2316590  
  9440.000000   2315923   2315399   2315070   2315165   2315952  
  9430.000000   2317570   2319891   2322474   2324690   2325882  
  9420.000000   2325622   2323837   2320893   2317466   2314339  
  9410.000000   2312161   2311235   2311521   2312656   2314184  
  9400.000000   2315653   2316794   2317505   2317856   2317962  
  9390.000000   2317897   2317615   2316965   2315751   2313818  
  9380.000000   2311117   2307731   2303899   2299984   2296434  
  9370.000000   2293672   2291960   2291334   2291517   2292024  
  9360.000000   2292221   2291553   2289719   2286836   2283474  
  9350.000000   2280459   2278605   2278337   2279531   2281478  
  9340.000000   2283150   2283518   2281973   2278563   2274026  
  9330.000000   2269549   2266312   2265087   2265963   2268393  
  9320.000000   2271450   2274151   2275794   2276081   2275150  
  9310.000000   2273366   2271123   2268682   2266164   2263616  
  9300.000000   2261154   2259001   2257491   2256910   2257353  
  9290.000000   2258646   2260358   2261966   2263013   2263280  
  9280.000000   2262845   2262010   2261182   2260656   2260553  
  9270.000000   2260782   2261152   2261452   2261528   2261342  
  9260.000000   2260949   2260499   2260130   2259977   2260100  
  9250.000000   2260527   2261216   2262037   2262766   2263087  
  9240.000000   2262687   2261330   2258945   2255675   2251864  
  9230.000000   2247993   2244571   2242008   2240540   2240210  
  9220.000000   2240881   2242270   2243962   2245517   2246531  
  9210.000000   2246755   2246140   2244878   2243405   2242255  
  9200.000000   2241956   2242726   2244442   2246577   2248421  
  9190.000000   2249244   2248547   2246279   2242874   2239190  
  9180.000000   2236186   2234739   2235352   2238107   2242554  
  9170.000000   2247886   2253050   2257065   2259184   2259057  
  9160.000000   2256763   2252764   2247806   2242653   2237917  
  9150.000000   2233852   2230401   2227224   2223901   2220161  
  9140.000000   2216006   2211807   2208100   2205516   2204488  
  9130.000000   2205170   2207341   2210496   2214034   2217337  
  9120.000000   2219945   2221502   2221859   2220970   2218950  
  9110.000000   2216028   2212589   2209146   2206272   2204461  
  9100.000000   2203978   2204821   2206695   2209111   2211449  
  9090.000000   2213167   2213901   2213515   2212076   2209786  
  9080.000000   2206983   2204014   2201221   2198848   2197048  
  9070.000000   2195855   2195173   2194860   2194759   2194829  
  9060.000000   2195120   2195781   2196931   2198576   2200538  
  9050.000000   2202426   2203761   2204094   2203232   2201266  
  9040.000000   2198594   2195761   2193324   2191671   2190936  
  9030.000000   2191019   2191659   2192585   2193553   2194436  
  9020.000000   2195153   2195686   2196015   2196151   2196138  
  9010.000000   2196061   2196021   2196069   2196148   2196061  
  9000.000000   2195511   2194226   2192097   2189267   2186145  
  8990.000000   2183268   2181152   2180054   2179888   2180206  
  8980.000000   2180379   2179830   2178266   2175822   2173021  
  8970.000000   2170648   2169464   2170006   2172400   2176349  
  8960.000000   2181217   2186194   2190508   2193544   2194959  
  8950.000000   2194675   2192858   2189845   2186074   2182034  
  8940.000000   2178213   2175029   2172769   2171547   2171269  
  8930.000000   2171664   2172298   2172718   2172526   2171514  
  8920.000000   2169689   2167276   2164656   2162239   2160364  
  8910.000000   2159192   2158716   2158783   2159198   2159777  
  8900.000000   2160405   2161020   2161598   2162071   2162338  
  8890.000000   2162239   2161675   2160605   2159149   2157534  
  8880.000000   2156076   2155075   2154728   2155119   2156191  
  8870.000000   2157839   2159899   2162238   2164707   2167157  
  8860.000000   2169394   2171171   2172240   2172388   2171534  
  8850.000000   2169718   2167130   2164030   2160728   2157508  
  8840.000000   2154599   2152196   2150436   2149444   2149245  
  8830.000000   2149804   2150939   2152390   2153820   2154926  
  8820.000000   2155525   2155585   2155243   2154686   2154118  
  8810.000000   2153614   2153155   2152597   2151801   2150689  
  8800.000000   2149336   2147956   2146844   2146291   2146457  
  8790.000000   2147355   2148791   2150469   2152039   2153239  
  8780.000000   2153965   2154282   2154412   2154590   2155009  
  8770.000000   2155664   2156375   2156785   2156523   2155337  
  8760.000000   2153254   2150630   2148085   2146361   2146066  
  8750.000000   2147512   2150556   2154675   2159083   2162999  
  8740.000000   2165843   2167380   2167709   2167183   2166229  
  8730.000000   2165212   2164332   2163626   2163028   2162430  
  8720.000000   2161749   2160917   2159883   2158568   2156877  
  8710.000000   2154736   2152150   2149254   2146318   2143700  
  8700.000000   2141762   2140776   2140853   2141938   2143843  
  8690.000000   2146315   2149092   2151935   2154648   2157051  
  8680.000000   2159000   2160358   2161056   2161093   2160592  
  8670.000000   2159749   2158816   2158020   2157513   2157349  
  8660.000000   2157449   2157678   2157848   2157817   2157494  
  8650.000000   2156883   2156070   2155184   2154361   2153687  
  8640.000000   2153187   2152798   2152420   2151951   2151365  
  8630.000000   2150747   2150288   2150252   2150879   2152308  
  8620.000000   2154483   2157175   2160031   2162676   2164820  
  8610.000000   2166312   2167170   2167501   2167448   2167098  
  8600.000000   2166485   2165609   2164501   2163277   2162141  
  8590.000000   2161356   2161130   2161556   2162539   2163843  
  8580.000000   2165145   2166153   2166682   2166698   2166314  
  8570.000000   2165709   2165071   2164532   2164169   2164014  
  8560.000000   2164094   2164445   2165096   2166044   2167205  
  8550.000000   2168435   2169532   2170326   2170710   2170703  
  8540.000000   2170445   2170128   2169934   2169929   2170057  
  8530.000000   2170136   2169943   2169302   2168165   2166655  
  8520.000000   2165030   2163628   2162747   2162574   2163116  
  8510.000000   2164222   2165642   2167092   2168353   2169295  
  8500.000000   2169903   2170234   2170370   2170386   2170335  
  8490.000000   2170260   2170223   2170318   2170676   2171412  
  8480.000000   2172566   2174054   2175653   2177048   2177914  
  8470.000000   2178035   2177399   2176210   2174835   2173685  
  8460.000000   2173087   2173186   2173908   2175021   2176233  
  8450.000000   2177307   2178122   2178685   2179077   2179390  
  8440.000000   2179666   2179886   2180013   2180032   2180005  
  8430.000000   2180050   2180292   2180806   2181541   2182362  
  8420.000000   2183067   2183518   2183692   2183727   2183863  
  8410.000000   2184314   2185136   2186163   2187018   2187248  
  8400.000000   2186479   2184608   2181870   2178808   2176088  
  8390.000000   2174307   2173771   2174421   2175841   2177407  
  8380.000000   2178498   2178667   2177768   2175937   2173518  
  8370.000000   2170934   2168567   2166679   2165390   2164710  
  8360.000000   2164592   2164962   2165725   2166764   2167928  
  8350.000000   2169050   2169953   2170493   2170581   2170199  
  8340.000000   2169402   2168282   2166953   2165522   2164098  
  8330.000000   2162792   2161716   2160955   2160528   2160366  
  8320.000000   2160299   2160085   2159464   2158256   2156443  
  8310.000000   2154205   2151887   2149897   2148586   2148135  
  8300.000000   2148506   2149453   2150613   2151625   2152255  
  8290.000000   2152441   2152280   2151960   2151665   2151510  
  8280.000000   2151502   2151561   2151579   2151473   2151222  
  8270.000000   2150862   2150456   2150049   2149628   2149129  
  8260.000000   2148455   2147530   2146329   2144907   2143376  
  8250.000000   2141894   2140604   2139629   2139024   2138805  
  8240.000000   2138928   2139324   2139882   2140477   2140957  
  8230.000000   2141169   2140970   2140265   2139022   2137297  
  8220.000000   2135216   2132958   2130715   2128657   2126890  
  8210.000000   2125437   2124230   2123144   2122012   2120706  
  8200.000000   2119140   2117330   2115374   2113445   2111733  
  8190.000000   2110389   2109471   2108913   2108540   2108121  
  8180.000000   2107443   2106374   2104910   2103165   2101333  
  8170.000000   2099613   2098141   2096946   2095950   2095004  
  8160.000000   2093963   2092731   2091302   2089740   2088150  
  8150.000000   2086617   2085180   2083810   2082447   2081027  
  8140.000000   2079549   2078076   2076729   2075640   2074897  
  8130.000000   2074516   2074419   2074481   2074560   2074560  
  8120.000000   2074456   2074284   2074114   2073981   2073852  
  8110.000000   2073610   2073082   2072111   2070616   2068655  
  8100.000000   2066417   2064195   2062282   2060901   2060099  
  8090.000000   2059753   2059580   2059255   2058499   2057186  
  8080.000000   2055366   2053242   2051092   2049157   2047581  
  8070.000000   2046348   2045339   2044357   2043244   2041919  
  8060.000000   2040416   2038868   2037449   2036345   2035684  
  8050.000000   2035546   2035944   2036840   2038146   2039714  
  8040.000000   2041334   2042737   2043638   2043783   2043041  
  8030.000000   2041426   2039151   2036542   2033989   2031819  
  8020.000000   2030215   2029196   2028615   2028277   2027981  
  8010.000000   2027650   2027303   2027080   2027128   2027556  
  8000.000000   2028353   2029369   2030354   2030992   2031013  
  7990.000000   2030223   2028588   2026215   2023354   2020336  
  7980.000000   2017510   2015186   2013556   2012694   2012515  
  7970.000000   2012849   2013456   2014124   2014683   2015045  
  7960.000000   2015179   2015078   2014745   2014140   2013237  
  7950.000000   2011997   2010459   2008713   2006928   2005303  
  7940.000000   2004013   2003185   2002843   2002946   2003384  
  7930.000000   2004037   2004787   2005531   2006181   2006638  
  7920.000000   2006809   2006597   2005958   2004894   2003502  
  7910.000000   2001942   2000423   1999149   1998269   1997862  
  7900.000000   1997902   1998303   1998916   1999589   2000176  
  7890.000000   2000571   2000715   2000592   2000232   1999678  
  7880.000000   1998986   1998188   1997306   1996342   1995307  
  7870.000000   1994238   1993209   1992337   1991740   1991519  
  7860.000000   1991690   1992186   1992851   1993487   1993910  
  7850.000000   1993989   1993690   1993048   1992153   1991095  
  7840.000000   1989956   1988787   1987641   1986580   1985693  
  7830.000000   1985076   1984800   1984882   1985252   1985785  
  7820.000000   1986320   1986724   1986926   1986932   1986803  
  7810.000000   1986618   1986433   1986259   1986068   1985816  
  7800.000000   1985476   1985053   1984572   1984064   1983531  
  7790.000000   1982944   1982243   1981375   1980321   1979119  
  7780.000000   1977851   1976619   1975497   1974519   1973655  
  7770.000000   1972859   1972088   1971348   1970695   1970214  
  7760.000000   1969973   1969981   1970160   1970354   1970377  
  7750.000000   1970065   1969342   1968232   1966870   1965443  
  7740.000000   1964145   1963117   1962420   1962028   1961853  
  7730.000000   1961781   1961705   1961553   1961293   1960929  
  7720.000000   1960488   1960002   1959503   1959016   1958567  
  7710.000000   1958176   1957864   1957640   1957499   1957418  
  7700.000000   1957355   1957262   1957092   1956825   1956465  
  7690.000000   1956051   1955631   1955249   1954925   1954640  
  7680.000000   1954347   1953972   1953455   1952744   1951830  
  7670.000000   1950725   1949472   1948125   1946751   1945429  
  7660.000000   1944245   1943298   1942671   1942430   1942576  
  7650.000000   1943060   1943759   1944519   1945175   1945592  
  7640.000000   1945689   1945440   1944881   1944066   1943065  
  7630.000000   1941929   1940705   1939424   1938122   1936843  
  7620.000000   1935642   1934580   1933708   1933068   1932673  
  7610.000000   1932516   1932558   1932743   1932997   1933238  
  7600.000000   1933401   1933436   1933334   1933111   1932821  
  7590.000000   1932515   1932246   1932039   1931894   1931792  
  7580.000000   1931708   1931625   1931544   1931477   1931441  
  7570.000000   1931438   1931452   1931443   1931365   1931172  
  7560.000000   1930840   1930371   1929796   1929174   1928585  
  7550.000000   1928120   1927866   1927891   1928220   1928823  
  7540.000000   1929615   1930460   1931211   1931727   1931926  
  7530.000000   1931791   1931382   1930809   1930207   1929694  
  7520.000000   1929362   1929266   1929433   1929867   1930551  
  7510.000000   1931445   1932479   1933551   1934542   1935333  
  7500.000000   1935843   1936042   1935981   1935752   1935487  
  7490.000000   1935296   1935267   1935445   1935837   1936434  
  7480.000000   1937210   1938148   1939222   1940402   1941648  
  7470.000000   1942903   1944111   1945210   1946153   1946897  
  7460.000000   1947417   1947700   1947775   1947711   1947628  
  7450.000000   1947678   1948006   1948718   1949837   1951283  
  7440.000000   1952892   1954462   1955827   1956894   1957674  
  7430.000000   1958248   1958744   1959265   1959873   1960561  
  7420.000000   1961303   1962069   1962870   1963750   1964768  
  7410.000000   1965968   1967346   1968844   1970371   1971837  
  7400.000000   1973185   1974406   1975530   1976601   1977656  
  7390.000000   1978714   1979777   1980849   1981946   1983102  
  7380.000000   1984348   1985689   1987080   1988433   1989639  
  7370.000000   1990604   1991290   1991727   1992010   1992262  
  7360.000000   1992600   1993101   1993790   1994652   1995645  
  7350.000000   1996731   1997875   1999059   2000260   2001462  
  7340.000000   2002642   2003788   2004894   2005966   2007012  
  7330.000000   2008028   2008997   2009880   2010639   2011248  
  7320.000000   2011708   2012049   2012321   2012577   2012861  
  7310.000000   2013205   2013628   2014154   2014806   2015612  
  7300.000000   2016583   2017701   2018904   2020107   2021219  
  7290.000000   2022177   2022978   2023666   2024326   2025028  
  7280.000000   2025811   2026651   2027483   2028230   2028847  
  7270.000000   2029340   2029778   2030263   2030897   2031744  
  7260.000000   2032812   2034052   2035381   2036711   2037979  
  7250.000000   2039148   2040226   2041233   2042217   2043210  
  7240.000000   2044254   2045359   2046533   2047748   2048987  
  7230.000000   2050218   2051451   2052712   2054076   2055620  
  7220.000000   2057423   2059514   2061880   2064446   2067122  
  7210.000000   2069811   2072466   2075071   2077665   2080280  
  7200.000000   2082948   2085653   2088366   2091041   2093665  
  7190.000000   2096257   2098881   2101608   2104500   2107562  
  7180.000000   2110756   2113992   2117188   2120272   2123233  
  7170.000000   2126087   2128903   2131729   2134617   2137574  
  7160.000000   2140601   2143682   2146827   2150057   2153432  
  7150.000000   2157009   2160856   2164994   2169425   2174078  
  7140.000000   2178865   2183657   2188363   2192910   2197313  
  7130.000000   2201629   2205987   2210508   2215316   2220458  
  7120.000000   2225929   2231636   2237470   2243294   2249021  
  7110.000000   2254594   2260014   2265306   2270524   2275719  
  7100.000000   2280964   2286320   2291864   2297639   2303663  
  7090.000000   2309885   2316208   2322493   2328614   2334487  
  7080.000000   2340114   2345572   2351000   2356541   2362299  
  7070.000000   2368305   2374515   2380831   2387139   2393342  
  7060.000000   2399377   2405221   2410883   2416388   2421777  
  7050.000000   2427097   2432403   2437748   2443161   2448647  
  7040.000000   2454172   2459687   2465139   2470518   2475847  
  7030.000000   2481194   2486629   2492197   2497877   2503586  
  7020.000000   2509196   2514582   2519661   2524423   2528921  
  7010.000000   2533258   2537529   2541815   2546143   2550523  
  7000.000000   2554936   2559380   2563837   2568310   2572768  
  6990.000000   2577183   2581500   2585681   2589689   2593524  
  6980.000000   2597184   2600680   2603999   2607135   2610075  
  6970.000000   2612847   2615504   2618147   2620855   2623691  
  6960.000000   2626630   2629600   2632470   2635136   2637533  
  6950.000000   2639693   2641700   2643676   2645708   2647830  
  6940.000000   2649997   2652139   2654170   2656059   2657815  
  6930.000000   2659506   2661192   2662924   2664691   2666457  
  6920.000000   2668148   2669708   2671094   2672300   2673338  
  6910.000000   2674235   2675014   2675709   2676348   2676978  
  6900.000000   2677640   2678378   2679209   2680130   2681112  
  6890.000000   2682117   2683103   2684044   2684924   2685736  
  6880.000000   2686476   2687139   2687728   2688260   2688770  
  6870.000000   2689305   2689902   2690577   2691308   2692043  
  6860.000000   2692718   2693293   2693764   2694176   2694597  
  6850.000000   2695096   2695705   2696413   2697164   2697896  
  6840.000000   2698555   2699123   2699608   2700033   2700412  
  6830.000000   2700742   2701000   2701171   2701253   2701279  
  6820.000000   2701299   2701366   2701505   2701715   2701959  
  6810.000000   2702198   2702398   2702553   2702672   2702765  
  6800.000000   2702823   2702812   2702684   2702405   2701972  
  6790.000000   2701431   2700858   2700339   2699924   2699622  
  6780.000000   2699390   2699164   2698884   2698518   2698065  
  6770.000000   2697546   2696982   2696379   2695728   2695024  
  6760.000000   2694280   2693539   2692867   2692331   2691968  
  6750.000000   2691772   2691693   2691658   2691599   2691476  
  6740.000000   2691286   2691045   2690774   2690480   2690153  
  6730.000000   2689778   2689355   2688910   2688493   2688161  
  6720.000000   2687946   2687842   2687791   2687707   2687499  
  6710.000000   2687105   2686503   2685718   2684806   2683839  
  6700.000000   2682883   2681999   2681225   2680590   2680090  
  6690.000000   2679703   2679369   2679017   2678565   2677968  
  6680.000000   2677210   2676331   2675394   2674469   2673594  
  6670.000000   2672766   2671938   2671050   2670046   2668909  
  6660.000000   2667654   2666328   2664975   2663634   2662308  
  6650.000000   2660999   2659697   2658407   2657137   2655897  
  6640.000000   2654676   2653442   2652143   2650728   2649164  
  6630.000000   2647459   2645652   2643808   2641989   2640241  
  6620.000000   2638580   2637002   2635485   2634013   2632565  
  6610.000000   2631118   2629637   2628078   2626394   2624556  
  6600.000000   2622567   2620469   2618333   2616234   2614228  
  6590.000000   2612336   2610541   2608810   2607109   2605424  
  6580.000000   2603757   2602121   2600517   2598929   2597323  
  6570.000000   2595667   2593947   2592182   2590422   2588727  
  6560.000000   2587146   2585693   2584349   2583075   2581828  
  6550.000000   2580587   2579354   2578145   2576972   2575826  
  6540.000000   2574674   2573474   2572191   2570815   2569369  
  6530.000000   2567892   2566419   2564965   2563514   2562031  
  6520.000000   2560483   2558862   2557192   2555527   2553926  
  6510.000000   2552434   2551067   2549809   2548622   2547469  
  6500.000000   2546322   2545171   2544012   2542844   2541655  
  6490.000000   2540433   2539161   2537842   2536489   2535133  
  6480.000000   2533803   2532514   2531258   2530006   2528715  
  6470.000000   2527347   2525883   2524328   2522710   2521071  
  6460.000000   2519456   2517902   2516436   2515064   2513783  
  6450.000000   2512573   2511409   2510259   2509100   2507914  
  6440.000000   2506706   2505488   2504288   2503125   2502016  
  6430.000000   2500962   2499961   2499006   2498106   2497270  
  6420.000000   2496516   2495849   2495261   2494720   2494188  
  6410.000000   2493625   2493017   2492368   2491714   2491093  
  6400.000000   2490541   2490072   2489678   2489337   2489026  
  6390.000000   2488733   2488453   2488194   2487951   2487714  
  6380.000000   2487453   2487134   2486729   2486228   2485641  
  6370.000000   2484996   2484323   2483647   2482973   2482293  
  6360.000000   2481591   2480853   2480077   2479273   2478458  
  6350.000000   2477657   2476887   2476166   2475500   2474891  
  6340.000000   2474330   2473803   2473282   2472741   2472155  
  6330.000000   2471514   2470818   2470083   2469323   2468546  
  6320.000000   2467735   2466861   2465883   2464772   2463520  
  6310.000000   2462158   2460736   2459321   2457962   2456686  
  6300.000000   2455486   2454339   2453208   2452072   2450917  
  6290.000000   2449749   2448568   2447375   2446153   2444885  
  6280.000000   2443551   2442146   2440681   2439178   2437663  
  6270.000000   2436154   2434655   2433160   2431653   2430122  
  6260.000000   2428558   2426966   2425354   2423734   2422112  
  6250.000000   2420499   2418902   2417336   2415813   2414352  
  6240.000000   2412959   2411633   2410356   2409103   2407837  
  6230.000000   2406525   2405138   2403655   2402068   2400383  
  6220.000000   2398617   2396800   2394971   2393173   2391444  
  6210.000000   2389811   2388281   2386849   2385495   2384198  
  6200.000000   2382943   2381725   2380546   2379414   2378331  
  6190.000000   2377290   2376279   2375272   2374248   2373185  
  6180.000000   2372073   2370906   2369691   2368439   2367171  
  6170.000000   2365910   2364682   2363505   2362386   2361317  
  6160.000000   2360277   2359238   2358175   2357080   2355963  
  6150.000000   2354854   2353787   2352789   2351871   2351015  
  6140.000000   2350188   2349342   2348438   2347447   2346368  
  6130.000000   2345210   2344010   2342803   2341634   2340538  
  6120.000000   2339547   2338676   2337929   2337291   2336742  
  6110.000000   2336251   2335802   2335380   2334995   2334652  
  6100.000000   2334372   2334154   2334001   2333892   2333818  
  6090.000000   2333764   2333739   2333749   2333815   2333946  
  6080.000000   2334148   2334409   2334720   2335061   2335431  
  6070.000000   2335822   2336241   2336682   2337150   2337635  
  6060.000000   2338149   2338698   2339317   2340032   2340881  
  6050.000000   2341870   2342999   2344232   2345538   2346877  
  6040.000000   2348237   2349615   2351036   2352514   2354073  
  6030.000000   2355707   2357412   2359168   2360970   2362809  
  6020.000000   2364696   2366629   2368612   2370626   2372654  
  6010.000000   2374669   2376658   2378611   2380542   2382466  
  6000.000000   2384407   2386378   2388400   2390475   2392615  
  5990.000000   2394818   2397083   2399395   2401741   2404091  
  5980.000000   2406435   2408760   2411084   2413427   2415827  
  5970.000000   2418304   2420874   2423528   2426254   2429028  
  5960.000000   2431846   2434707   2437626   2440608   2443658  
  5950.000000   2446755   2449879   2453001   2456115   2459225  
  5940.000000   2462361   2465560   2468851   2472248   2475740  
  5930.000000   2479298   2482878   2486439   2489941   2493358  
  5920.000000   2496668   2499854   2502900   2505795   2508531  
  5910.000000   2511110   2513537   2515824   2517986   2520043  
  5900.000000   2522020   2523958   2525899   2527904   2530018  
  5890.000000   2532283   2534705   2537273   2539942   2542665  
  5880.000000   2545385   2548057   2550641   2553102   2555413  
  5870.000000   2557545   2559486   2561236   2562829   2564312  
  5860.000000   2565758   2567228   2568774   2570419   2572165  
  5850.000000   2573999   2575906   2577881   2579928   2582055  
  5840.000000   2584271   2586575   2588961   2591416   2593936  
  5830.000000   2596512   2599144   2601814   2604500   2607156  
  5820.000000   2609742   2612219   2614584   2616857   2619095  
  5810.000000   2621362   2623709   2626169   2628730   2631373  
  5800.000000   2634046   2636734   2639404   2642075   2644727  
  5790.000000   2647366   2649934   2652378   2654586   2656462  
  5780.000000   2657873   2658728   2658930   2658447   2657271  
  5770.000000   2655476   2653167   2650520   2647700   2644888  
  5760.000000   2642198   2639714   2637438   2635363   2633437  
  5750.000000   2631636   2629934   2628334   2626833   2625435  
  5740.000000   2624133   2622911   2621757   2620655   2619606  
  5730.000000   2618598   2617634   2616696   2615775   2614853  
  5720.000000   2613932   2613015   2612127   2611283   2610504  
  5710.000000   2609791   2609142   2608540   2607980   2607457  
  5700.000000   2606979   2606554   2606188   2605878   2605611  
  5690.000000   2605379   2605168   2604983   2604820   2604680  
  5680.000000   2604542   2604375   2604124   2603738   2603159  
  5670.000000   2602359   2601314   2600030   2598509   2596773  
  5660.000000   2594836   2592730   2590490   2588170   2585821  
  5650.000000   2583502   2581249   2579089   2577030   2575078  
  5640.000000   2573231   2571494   2569871   2568356   2566935  
  5630.000000   2565576   2564252   2562929   2561604   2560282  
  5620.000000   2558994   2557769   2556635   2555595   2554648  
  5610.000000   2553771   2552953   2552176   2551439   2550732  
  5600.000000   2550048   2549363   2548655   2547898   2547084  
  5590.000000   2546219   2545326   2544431   2543560   2542725  
  5580.000000   2541927   2541161   2540419   2539700   2539004  
  5570.000000   2538331   2537669   2537000   2536294   2535528  
  5560.000000   2534689   2533780   2532818   2531828   2530827  
  5550.000000   2529821   2528807   2527774   2526720   2525653  
  5540.000000   2524589   2523552   2522555   2521602   2520679  
  5530.000000   2519771   2518859   2517936   2517005   2516077  
  5520.000000   2515159   2514254   2513355   2512449   2511519  
  5510.000000   2510554   2509544   2508484   2507367   2506191  
  5500.000000   2504956   2503677   2502375   2501087   2499840  
  5490.000000   2498656   2497527   2496427   2495313   2494149  
  5480.000000   2492909   2491594   2490217   2488808   2487386  
  5470.000000   2485962   2484532   2483088   2481622   2480133  
  5460.000000   2478623   2477094   2475540   2473945   2472291  
  5450.000000   2470567   2468775   2466936   2465084   2463257  
  5440.000000   2461484   2459778   2458147   2456587   2455104  
  5430.000000   2453699   2452377   2451123   2449921   2448734  
  5420.000000   2447545   2446342   2445161   2444045   2443067  
  5410.000000   2442261   2441648   2441189   2440844   2440553  
  5400.000000   2440303   2440091   2439966   2439962   2440128  
  5390.000000   2440463   2440968   2441609   2442387   2443291  
  5380.000000   2444357   2445595   2447032   2448642   2450414  
  5370.000000   2452290   2454263   2456299   2458433   2460663  
  5360.000000   2463051   2465595   2468362   2471353   2474649  
  5350.000000   2478270   2482308   2486763   2491698   2497059  
  5340.000000   2502868   2509054   2515662   2522651   2530099  
  5330.000000   2537972   2546340   2555139   2564423   2574131  
  5320.000000   2584358   2595097   2606496   2618560   2631421  
  5310.000000   2645030   2659454   2674587   2690478   2707042  
  5300.000000   2724374   2742448   2761411   2781269   2802166  
  5290.000000   2824072   2847049   2870967   2895767   2921241  
  5280.000000   2947304   2973814   3000807   3028297   3056433  
  5270.000000   3085270   3114862   3145095   3175793   3206699  
  5260.000000   3237587   3268317   3298849   3329249   3359560  
  5250.000000   3389824   3419920   3449705   3478895   3507331  
  5240.000000   3534817   3561396   3587062   3612001   3636241  
  5230.000000   3659920   3682945   3705321   3726853   3747516  
  5220.000000   3767157   3785854   3803570   3820487   3836622  
  5210.000000   3852145   3867005   3881259   3894747   3907468  
  5200.000000   3919275   3930249   3940360   3949782   3958525  
  5190.000000   3966728   3974317   3981330   3987629   3993240  
  5180.000000   3998076   4002234   4005698   4008587   4010872  
  5170.000000   4012628   4013792   4014431   4014510   4014129  
  5160.000000   4013284   4012068   4010445   4008453   4006020  
  5150.000000   4003174   3999872   3996189   3992132   3987791  
  5140.000000   3983173   3978336   3973258   3967976   3962469  
  5130.000000   3956781   3950905   3944880   3938696   3932381  
  5120.000000   3925922   3919357   3912698   3905995   3899269  
  5110.000000   3892552   3885839   3879128   3872398   3865649  
  5100.000000   3858879   3852110   3845354   3838628   3831930  
  5090.000000   3825256   3818594   3811950   3805332   3798764  
  5080.000000   3792262   3785836   3779469   3773135   3766791  
  5070.000000   3760409   3753964   3747459   3740898   3734300  
  5060.000000   3727668   3721008   3714308   3707565   3700768  
  5050.000000   3693922   3687019   3680060   3673030   3665917  
  5040.000000   3658707   3651402   3644015   3636581   3629138  
  5030.000000   3621727   3614374   3607093   3599884   3592741  
  5020.000000   3585662   3578647   3571710   3564858   3558111  
  5010.000000   3551463   3544924   3538475   3532127   3525866  
  5000.000000   3519717   3513680   3507791   3502055   3496511  
  4990.000000   3491159   3486040   3481148   3476520   3472138  
  4980.000000   3468026   3464151   3460533   3457139   3454002  
  4970.000000   3451107   3448503   3446179   3444182   3442485  
  4960.000000   3441120   3440050   3439310   3438871   3438782  
  4950.000000   3439024   3439645   3440612   3441954   3443619  
  4940.000000   3445630   3447940   3450583   3453526   3456812  
  4930.000000   3460409   3464352   3468600   3473187   3478079  
  4920.000000   3483315   3488873   3494792   3501044   3507653  
  4910.000000   3514582   3521836   3529376   3537198   3545261  
  4900.000000   3553543   3561991   3570563   3579202   3587864  
  4890.000000   3596511   3605111   3613648   3622081   3630389  
  4880.000000   3638504   3646391   3653971   3661218   3668065  
  4870.000000   3674511   3680504   3686053   3691108   3695684  
  4860.000000   3699736   3703299   3706352   3708954   3711109  
  4850.000000   3712888   3714303   3715422   3716260   3716883  
  4840.000000   3717308   3717596   3717760   3717847   3717863  
  4830.000000   3717843   3717794   3717749   3717724   3717751  
  4820.000000   3717846   3718022   3718277   3718598   3718973  
  4810.000000   3719384   3719828   3720305   3720834   3721429  
  4800.000000   3722121   3722920   3723846   3724893   3726061  
  4790.000000   3727327   3728675   3730075   3731514   3732977  
  4780.000000   3734467   3735992   3737569   3739211   3740926  
  4770.000000   3742704   3744528   3746368   3748197   3749991  
  4760.000000   3751734   3753420   3755045   3756611   3758110  
  4750.000000   3759538   3760888   3762159   3763356   3764492  
  4740.000000   3765580   3766633   3767653   3768641   3769585  
  4730.000000   3770480   3771323   3772119   3772880   3773622  
  4720.000000   3774361   3775103   3775857   3776621   3777407  
  4710.000000   3778221   3779094   3780049   3781123   3782338  
  4700.000000   3783717   3785262   3786976   3788847   3790872  
  4690.000000   3793040   3795358   3797818   3800421   3803147  
  4680.000000   3805973   3808849   3811734   3814564   3817307  
  4670.000000   3819927   3822430   3824829   3827171   3829499  
  4660.000000   3831870   3834319   3836885   3839585   3842433  
  4650.000000   3845435   3848593   3851902   3855348   3858913  
  4640.000000   3862561   3866258   3869960   3873635   3877253  
  4630.000000   3880797   3884250   3887606   3890843   3893946  
  4620.000000   3896877   3899608   3902093   3904313   3906236  
  4610.000000   3907870   3909215   3910317   3911204   3911944  
  4600.000000   3912568   3913136   3913655   3914155   3914605  
  4590.000000   3915003   3915293   3915453   3915426   3915190  
  4580.000000   3914700   3913955   3912937   3911671   3910173  
  4570.000000   3908493   3906665   3904741   3902741   3900693  
  4560.000000   3898588   3896427   3894188   3891871   3889467  
  4550.000000   3886995   3884466   3881907   3879333   3876764  
  4540.000000   3874210   3871683   3869193   3866747   3864354  
  4530.000000   3862009   3859708   3857425   3855151   3852860  
  4520.000000   3850565   3848265   3846009   3843817   3841755  
  4510.000000   3839832   3838111   3836588   3835328   3834336  
  4500.000000   3833701   3833441   3833660   3834369   3835662  
  4490.000000   3837525   3840040   3843180   3847021   3851533  
  4480.000000   3856786   3862734   3869431   3876808   3884902  
  4470.000000   3893633   3903025   3912993   3923543   3934580  
  4460.000000   3946092   3957978   3970225   3982750   3995553  
  4450.000000   4008576   4021827   4035260   4048868   4062600  
  4440.000000   4076432   4090317   4104223   4118125   4131994  
  4430.000000   4145825   4159583   4173267   4186822   4200239  
  4420.000000   4213440   4226403   4239030   4251288   4263063  
  4410.000000   4274309   4284904   4294804   4303906   4312203  
  4400.000000   4319654   4326325   4332257   4337592   4342431  
  4390.000000   4346947   4351251   4355492   4359735   4364065  
  4380.000000   4368483   4373005   4377596   4382257   4386971  
  4370.000000   4391768   4396676   4401745   4407014   4412508  
  4360.000000   4418227   4424156   4430248   4436474   4442754  
  4350.000000   4449067   4455316   4461500   4467537   4473476  
  4340.000000   4479284   4485041   4490687   4496165   4501193  
  4330.000000   4505401   4508230   4509144   4507654   4503552  
  4320.000000   4496924   4488239   4478211   4467723   4457588  
  4310.000000   4448475   4440756   4434573   4429820   4426302  
  4300.000000   4423771   4422028   4420926   4420362   4420285  
  4290.000000   4420619   4421340   4422373   4423719   4425331  
  4280.000000   4427228   4429381   4431774   4434365   4437103  
  4270.000000   4439953   4442860   4445789   4448634   4451252  
  4260.000000   4453389   4454746   4454982   4453833   4451141  
  4250.000000   4446955   4441491   4435145   4428360   4421605  
  4240.000000   4415228   4409485   4404447   4400106   4396337  
  4230.000000   4393012   4389978   4387116   4384334   4381562  
  4220.000000   4378781   4375973   4373190   4370468   4367920  
  4210.000000   4365609   4363653   4362093   4360991   4360333  
  4200.000000   4360117   4360281   4360789   4361566   4362574  
  4190.000000   4363741   4365047   4366429   4367888   4369378  
  4180.000000   4370920   4372485   4374115   4375800   4377602  
  4170.000000   4379536   4381686   4384080   4386809   4389895  
  4160.000000   4393405   4397332   4401713   4406511   4411750  
  4150.000000   4417386   4423446   4429887   4436746   4443979  
  4140.000000   4451631   4459660   4468117   4476965   4486255  
  4130.000000   4495948   4506088   4516627   4527600   4538963  
  4120.000000   4550756   4562951   4575603   4588704   4602313  
  4110.000000   4616425   4631079   4646241   4661898   4677961  
  4100.000000   4694363   4710980   4727731   4744524   4761326  
  4090.000000   4778119   4794927   4811782   4828711   4845743  
  4080.000000   4862868   4880090   4897357   4914654   4931891  
  4070.000000   4949021   4965913   4982497   4998631   5014271  
  4060.000000   5029316   5043784   5057618   5070871   5083491  
  4050.000000   5095543   5106981   5117895   5128259   5138179  
  4040.000000   5147610   5156622   5165116   5173118   5180510  
  4030.000000   5187330   5193487   5199041   5203923   5208173  
  4020.000000   5211694   5214527   5216647   5218131   5218956  
  4010.000000   5219260   5219124   5218568   5217394   5215647  
  4000.000000   5213608  
##END= 
